:MSR 	40	 # No. of measurement in file
:SYS BDS 0   # Beam Data Scanner System
#
# RFA300 ASCII Measurement Dump ( BDS format )
#
# Measurement number 	1
#
%VNR 1.0
%MOD 	RAT
%TYP 	SCN
%SCN 	PRO
%FLD 	ION
%DAT 	02-01-2012
%TIM 	12:00:00
%FSZ 	030	030
%BMT 	PHO	   8.0
%SSD 	1000
%BUP 	0
%BRD 	1000
%FSH 	1
%ASC 	0
%WEG 	0
%GPO 	0
%CPO 	0
%MEA 	2
%PRD 	20,0
%PTS 	791
%STS 	    0.0	  -65.2	   20.0 # Start Scan values in mm ( X , Y , Z )
%EDS 	    0.0	   65.2	   20.0 # End Scan values in mm ( X , Y , Z )
#
#	  X      Y      Z     Dose
#
=	0.0	-65.2	20.0	0.5
=	0.0	-65.0	20.0	0.5
=	0.0	-64.9	20.0	0.5
=	0.0	-64.7	20.0	0.5
=	0.0	-64.5	20.0	0.5
=	0.0	-64.4	20.0	0.5
=	0.0	-64.3	20.0	0.5
=	0.0	-64.0	20.0	0.5
=	0.0	-63.7	20.0	0.5
=	0.0	-63.6	20.0	0.5
=	0.0	-63.4	20.0	0.5
=	0.0	-63.3	20.0	0.5
=	0.0	-63.2	20.0	0.5
=	0.0	-63.0	20.0	0.5
=	0.0	-62.8	20.0	0.5
=	0.0	-62.7	20.0	0.5
=	0.0	-62.5	20.0	0.5
=	0.0	-62.3	20.0	0.5
=	0.0	-62.0	20.0	0.5
=	0.0	-61.8	20.0	0.5
=	0.0	-61.6	20.0	0.5
=	0.0	-61.4	20.0	0.5
=	0.0	-61.3	20.0	0.5
=	0.0	-61.1	20.0	0.5
=	0.0	-61.0	20.0	0.5
=	0.0	-60.9	20.0	0.5
=	0.0	-60.8	20.0	0.5
=	0.0	-60.6	20.0	0.5
=	0.0	-60.5	20.0	0.5
=	0.0	-60.3	20.0	0.5
=	0.0	-60.2	20.0	0.5
=	0.0	-60.0	20.0	0.5
=	0.0	-59.8	20.0	0.5
=	0.0	-59.6	20.0	0.6
=	0.0	-59.5	20.0	0.6
=	0.0	-59.3	20.0	0.6
=	0.0	-59.2	20.0	0.6
=	0.0	-59.0	20.0	0.6
=	0.0	-58.8	20.0	0.6
=	0.0	-58.6	20.0	0.6
=	0.0	-58.5	20.0	0.6
=	0.0	-58.4	20.0	0.6
=	0.0	-58.3	20.0	0.6
=	0.0	-58.1	20.0	0.6
=	0.0	-58.0	20.0	0.6
=	0.0	-57.8	20.0	0.6
=	0.0	-57.5	20.0	0.6
=	0.0	-57.4	20.0	0.6
=	0.0	-57.3	20.0	0.6
=	0.0	-57.1	20.0	0.6
=	0.0	-56.9	20.0	0.6
=	0.0	-56.8	20.0	0.6
=	0.0	-56.5	20.0	0.6
=	0.0	-56.3	20.0	0.6
=	0.0	-56.2	20.0	0.6
=	0.0	-56.1	20.0	0.6
=	0.0	-56.0	20.0	0.6
=	0.0	-55.8	20.0	0.6
=	0.0	-55.7	20.0	0.6
=	0.0	-55.5	20.0	0.6
=	0.0	-55.3	20.0	0.6
=	0.0	-55.2	20.0	0.6
=	0.0	-55.0	20.0	0.6
=	0.0	-54.9	20.0	0.6
=	0.0	-54.8	20.0	0.6
=	0.0	-54.6	20.0	0.6
=	0.0	-54.4	20.0	0.6
=	0.0	-54.3	20.0	0.6
=	0.0	-54.2	20.0	0.6
=	0.0	-54.0	20.0	0.6
=	0.0	-53.9	20.0	0.6
=	0.0	-53.8	20.0	0.6
=	0.0	-53.6	20.0	0.6
=	0.0	-53.4	20.0	0.6
=	0.0	-53.3	20.0	0.6
=	0.0	-53.1	20.0	0.6
=	0.0	-53.0	20.0	0.6
=	0.0	-52.8	20.0	0.6
=	0.0	-52.7	20.0	0.6
=	0.0	-52.6	20.0	0.6
=	0.0	-52.5	20.0	0.6
=	0.0	-52.3	20.0	0.6
=	0.0	-52.2	20.0	0.6
=	0.0	-52.0	20.0	0.6
=	0.0	-51.9	20.0	0.6
=	0.0	-51.7	20.0	0.6
=	0.0	-51.6	20.0	0.6
=	0.0	-51.5	20.0	0.6
=	0.0	-51.4	20.0	0.6
=	0.0	-51.2	20.0	0.6
=	0.0	-50.9	20.0	0.7
=	0.0	-50.8	20.0	0.7
=	0.0	-50.7	20.0	0.7
=	0.0	-50.5	20.0	0.7
=	0.0	-50.4	20.0	0.7
=	0.0	-50.2	20.0	0.7
=	0.0	-50.0	20.0	0.7
=	0.0	-49.7	20.0	0.7
=	0.0	-49.6	20.0	0.7
=	0.0	-49.3	20.0	0.7
=	0.0	-49.2	20.0	0.7
=	0.0	-48.9	20.0	0.7
=	0.0	-48.7	20.0	0.7
=	0.0	-48.5	20.0	0.7
=	0.0	-48.4	20.0	0.7
=	0.0	-48.3	20.0	0.7
=	0.0	-48.1	20.0	0.7
=	0.0	-48.0	20.0	0.7
=	0.0	-47.8	20.0	0.7
=	0.0	-47.7	20.0	0.7
=	0.0	-47.5	20.0	0.7
=	0.0	-47.3	20.0	0.7
=	0.0	-47.2	20.0	0.7
=	0.0	-47.0	20.0	0.7
=	0.0	-46.9	20.0	0.7
=	0.0	-46.7	20.0	0.7
=	0.0	-46.4	20.0	0.7
=	0.0	-46.3	20.0	0.7
=	0.0	-46.2	20.0	0.7
=	0.0	-46.0	20.0	0.7
=	0.0	-45.8	20.0	0.7
=	0.0	-45.7	20.0	0.7
=	0.0	-45.4	20.0	0.7
=	0.0	-45.3	20.0	0.7
=	0.0	-45.1	20.0	0.8
=	0.0	-45.0	20.0	0.8
=	0.0	-44.8	20.0	0.8
=	0.0	-44.7	20.0	0.8
=	0.0	-44.4	20.0	0.8
=	0.0	-44.2	20.0	0.8
=	0.0	-44.0	20.0	0.8
=	0.0	-43.8	20.0	0.8
=	0.0	-43.7	20.0	0.8
=	0.0	-43.4	20.0	0.8
=	0.0	-43.3	20.0	0.8
=	0.0	-43.2	20.0	0.8
=	0.0	-43.0	20.0	0.8
=	0.0	-42.8	20.0	0.8
=	0.0	-42.7	20.0	0.8
=	0.0	-42.5	20.0	0.8
=	0.0	-42.4	20.0	0.8
=	0.0	-42.3	20.0	0.8
=	0.0	-42.1	20.0	0.8
=	0.0	-42.0	20.0	0.8
=	0.0	-41.7	20.0	0.8
=	0.0	-41.6	20.0	0.8
=	0.0	-41.3	20.0	0.8
=	0.0	-41.1	20.0	0.8
=	0.0	-40.9	20.0	0.9
=	0.0	-40.8	20.0	0.9
=	0.0	-40.6	20.0	0.9
=	0.0	-40.4	20.0	0.9
=	0.0	-40.2	20.0	0.9
=	0.0	-40.1	20.0	0.9
=	0.0	-40.0	20.0	0.9
=	0.0	-39.7	20.0	0.9
=	0.0	-39.6	20.0	0.9
=	0.0	-39.3	20.0	0.9
=	0.0	-39.2	20.0	0.9
=	0.0	-38.9	20.0	0.9
=	0.0	-38.8	20.0	0.9
=	0.0	-38.6	20.0	0.9
=	0.0	-38.5	20.0	1.0
=	0.0	-38.4	20.0	1.0
=	0.0	-38.1	20.0	1.0
=	0.0	-38.0	20.0	1.0
=	0.0	-37.7	20.0	1.0
=	0.0	-37.6	20.0	1.0
=	0.0	-37.3	20.0	1.0
=	0.0	-37.1	20.0	1.0
=	0.0	-36.9	20.0	1.0
=	0.0	-36.7	20.0	1.0
=	0.0	-36.6	20.0	1.0
=	0.0	-36.5	20.0	1.0
=	0.0	-36.3	20.0	1.0
=	0.0	-36.1	20.0	1.1
=	0.0	-36.0	20.0	1.1
=	0.0	-35.6	20.0	1.1
=	0.0	-35.5	20.0	1.1
=	0.0	-35.2	20.0	1.1
=	0.0	-35.1	20.0	1.1
=	0.0	-34.8	20.0	1.1
=	0.0	-34.7	20.0	1.1
=	0.0	-34.6	20.0	1.1
=	0.0	-34.4	20.0	1.1
=	0.0	-34.3	20.0	1.1
=	0.0	-34.1	20.0	1.2
=	0.0	-34.0	20.0	1.2
=	0.0	-33.9	20.0	1.2
=	0.0	-33.7	20.0	1.2
=	0.0	-33.6	20.0	1.2
=	0.0	-33.4	20.0	1.2
=	0.0	-33.3	20.0	1.2
=	0.0	-33.2	20.0	1.2
=	0.0	-33.0	20.0	1.2
=	0.0	-32.9	20.0	1.2
=	0.0	-32.7	20.0	1.2
=	0.0	-32.6	20.0	1.3
=	0.0	-32.4	20.0	1.3
=	0.0	-32.3	20.0	1.3
=	0.0	-32.2	20.0	1.3
=	0.0	-32.0	20.0	1.3
=	0.0	-31.8	20.0	1.3
=	0.0	-31.6	20.0	1.3
=	0.0	-31.4	20.0	1.4
=	0.0	-31.2	20.0	1.4
=	0.0	-31.1	20.0	1.4
=	0.0	-31.0	20.0	1.4
=	0.0	-30.8	20.0	1.4
=	0.0	-30.7	20.0	1.4
=	0.0	-30.5	20.0	1.4
=	0.0	-30.3	20.0	1.4
=	0.0	-30.0	20.0	1.5
=	0.0	-29.9	20.0	1.5
=	0.0	-29.6	20.0	1.5
=	0.0	-29.5	20.0	1.5
=	0.0	-29.4	20.0	1.6
=	0.0	-29.2	20.0	1.6
=	0.0	-29.1	20.0	1.6
=	0.0	-29.0	20.0	1.6
=	0.0	-28.8	20.0	1.6
=	0.0	-28.7	20.0	1.6
=	0.0	-28.5	20.0	1.6
=	0.0	-28.4	20.0	1.7
=	0.0	-28.3	20.0	1.7
=	0.0	-28.1	20.0	1.7
=	0.0	-28.0	20.0	1.7
=	0.0	-27.8	20.0	1.8
=	0.0	-27.7	20.0	1.8
=	0.0	-27.5	20.0	1.8
=	0.0	-27.3	20.0	1.9
=	0.0	-27.1	20.0	1.9
=	0.0	-27.0	20.0	1.9
=	0.0	-26.9	20.0	1.9
=	0.0	-26.7	20.0	2.0
=	0.0	-26.5	20.0	2.0
=	0.0	-26.3	20.0	2.1
=	0.0	-26.1	20.0	2.1
=	0.0	-25.9	20.0	2.1
=	0.0	-25.6	20.0	2.2
=	0.0	-25.5	20.0	2.3
=	0.0	-25.2	20.0	2.4
=	0.0	-25.1	20.0	2.4
=	0.0	-24.9	20.0	2.5
=	0.0	-24.6	20.0	2.6
=	0.0	-24.5	20.0	2.7
=	0.0	-24.4	20.0	2.7
=	0.0	-24.2	20.0	2.8
=	0.0	-24.1	20.0	2.8
=	0.0	-24.0	20.0	2.9
=	0.0	-23.8	20.0	3.0
=	0.0	-23.7	20.0	3.1
=	0.0	-23.6	20.0	3.2
=	0.0	-23.4	20.0	3.2
=	0.0	-23.3	20.0	3.3
=	0.0	-23.1	20.0	3.4
=	0.0	-22.9	20.0	3.6
=	0.0	-22.8	20.0	3.7
=	0.0	-22.6	20.0	3.9
=	0.0	-22.4	20.0	4.0
=	0.0	-22.1	20.0	4.3
=	0.0	-22.0	20.0	4.4
=	0.0	-21.9	20.0	4.5
=	0.0	-21.8	20.0	4.6
=	0.0	-21.6	20.0	4.9
=	0.0	-21.5	20.0	5.1
=	0.0	-21.3	20.0	5.2
=	0.0	-21.2	20.0	5.5
=	0.0	-21.1	20.0	5.7
=	0.0	-20.9	20.0	6.0
=	0.0	-20.8	20.0	6.2
=	0.0	-20.5	20.0	6.7
=	0.0	-20.4	20.0	7.0
=	0.0	-20.2	20.0	7.3
=	0.0	-19.9	20.0	8.0
=	0.0	-19.8	20.0	8.3
=	0.0	-19.7	20.0	8.6
=	0.0	-19.6	20.0	9.0
=	0.0	-19.4	20.0	9.7
=	0.0	-19.2	20.0	10.5
=	0.0	-19.0	20.0	11.2
=	0.0	-18.9	20.0	11.7
=	0.0	-18.8	20.0	12.3
=	0.0	-18.6	20.0	13.0
=	0.0	-18.4	20.0	14.2
=	0.0	-18.2	20.0	15.4
=	0.0	-18.0	20.0	16.9
=	0.0	-17.9	20.0	18.0
=	0.0	-17.7	20.0	19.3
=	0.0	-17.5	20.0	21.2
=	0.0	-17.4	20.0	22.4
=	0.0	-17.2	20.0	23.7
=	0.0	-17.0	20.0	25.2
=	0.0	-16.9	20.0	27.1
=	0.0	-16.7	20.0	28.7
=	0.0	-16.3	20.0	32.7
=	0.0	-16.2	20.0	34.0
=	0.0	-16.0	20.0	35.8
=	0.0	-15.9	20.0	37.0
=	0.0	-15.8	20.0	38.4
=	0.0	-15.5	20.0	41.5
=	0.0	-15.4	20.0	43.4
=	0.0	-15.2	20.0	45.2
=	0.0	-14.9	20.0	49.0
=	0.0	-14.7	20.0	51.4
=	0.0	-14.5	20.0	54.1
=	0.0	-14.4	20.0	55.7
=	0.0	-14.1	20.0	58.9
=	0.0	-14.0	20.0	60.1
=	0.0	-13.7	20.0	63.4
=	0.0	-13.5	20.0	65.9
=	0.0	-13.3	20.0	68.4
=	0.0	-13.2	20.0	69.6
=	0.0	-13.0	20.0	72.1
=	0.0	-12.8	20.0	73.8
=	0.0	-12.6	20.0	76.2
=	0.0	-12.5	20.0	77.2
=	0.0	-12.3	20.0	78.4
=	0.0	-12.1	20.0	80.1
=	0.0	-11.9	20.0	82.0
=	0.0	-11.8	20.0	83.3
=	0.0	-11.6	20.0	84.4
=	0.0	-11.4	20.0	85.8
=	0.0	-11.2	20.0	87.0
=	0.0	-10.9	20.0	88.8
=	0.0	-10.8	20.0	89.4
=	0.0	-10.6	20.0	90.6
=	0.0	-10.5	20.0	91.2
=	0.0	-10.3	20.0	92.0
=	0.0	-10.1	20.0	92.8
=	0.0	-10.0	20.0	93.1
=	0.0	-9.8	20.0	93.6
=	0.0	-9.7	20.0	94.2
=	0.0	-9.6	20.0	94.5
=	0.0	-9.4	20.0	94.8
=	0.0	-9.3	20.0	95.0
=	0.0	-9.2	20.0	95.2
=	0.0	-9.0	20.0	95.5
=	0.0	-8.9	20.0	95.8
=	0.0	-8.8	20.0	96.0
=	0.0	-8.6	20.0	96.3
=	0.0	-8.5	20.0	96.6
=	0.0	-8.3	20.0	96.8
=	0.0	-8.2	20.0	97.0
=	0.0	-8.1	20.0	97.2
=	0.0	-8.0	20.0	97.3
=	0.0	-7.8	20.0	97.5
=	0.0	-7.6	20.0	97.6
=	0.0	-7.5	20.0	97.7
=	0.0	-7.4	20.0	97.8
=	0.0	-7.2	20.0	98.0
=	0.0	-7.1	20.0	98.1
=	0.0	-7.0	20.0	98.2
=	0.0	-6.9	20.0	98.4
=	0.0	-6.7	20.0	98.5
=	0.0	-6.6	20.0	98.6
=	0.0	-6.5	20.0	98.7
=	0.0	-6.3	20.0	98.8
=	0.0	-6.2	20.0	98.8
=	0.0	-5.9	20.0	99.0
=	0.0	-5.8	20.0	99.1
=	0.0	-5.7	20.0	99.1
=	0.0	-5.5	20.0	99.2
=	0.0	-5.3	20.0	99.4
=	0.0	-5.1	20.0	99.4
=	0.0	-5.0	20.0	99.5
=	0.0	-4.9	20.0	99.5
=	0.0	-4.7	20.0	99.6
=	0.0	-4.6	20.0	99.6
=	0.0	-4.4	20.0	99.6
=	0.0	-4.2	20.0	99.6
=	0.0	-4.0	20.0	99.7
=	0.0	-3.9	20.0	99.7
=	0.0	-3.8	20.0	99.7
=	0.0	-3.6	20.0	99.7
=	0.0	-3.4	20.0	99.8
=	0.0	-3.3	20.0	99.8
=	0.0	-3.0	20.0	99.8
=	0.0	-2.9	20.0	99.8
=	0.0	-2.8	20.0	99.8
=	0.0	-2.6	20.0	99.9
=	0.0	-2.4	20.0	99.9
=	0.0	-2.2	20.0	99.9
=	0.0	-2.0	20.0	99.9
=	0.0	-1.8	20.0	99.9
=	0.0	-1.7	20.0	99.9
=	0.0	-1.6	20.0	100.0
=	0.0	-1.5	20.0	100.0
=	0.0	-1.2	20.0	100.0
=	0.0	-1.1	20.0	100.0
=	0.0	-1.0	20.0	100.0
=	0.0	-0.8	20.0	100.0
=	0.0	-0.7	20.0	100.0
=	0.0	-0.5	20.0	100.0
=	0.0	-0.3	20.0	100.0
=	0.0	0.0	20.0	100.0
=	0.0	0.3	20.0	100.0
=	0.0	0.5	20.0	100.0
=	0.0	0.7	20.0	100.0
=	0.0	0.8	20.0	100.0
=	0.0	1.0	20.0	100.0
=	0.0	1.1	20.0	100.0
=	0.0	1.2	20.0	100.0
=	0.0	1.4	20.0	100.0
=	0.0	1.6	20.0	100.0
=	0.0	1.7	20.0	99.9
=	0.0	1.8	20.0	99.9
=	0.0	2.0	20.0	99.9
=	0.0	2.2	20.0	99.9
=	0.0	2.4	20.0	99.9
=	0.0	2.6	20.0	99.9
=	0.0	2.8	20.0	99.8
=	0.0	2.9	20.0	99.8
=	0.0	3.0	20.0	99.8
=	0.0	3.2	20.0	99.8
=	0.0	3.4	20.0	99.8
=	0.0	3.6	20.0	99.7
=	0.0	3.7	20.0	99.7
=	0.0	3.8	20.0	99.7
=	0.0	4.0	20.0	99.7
=	0.0	4.2	20.0	99.6
=	0.0	4.3	20.0	99.6
=	0.0	4.6	20.0	99.6
=	0.0	4.7	20.0	99.6
=	0.0	4.8	20.0	99.5
=	0.0	5.0	20.0	99.5
=	0.0	5.1	20.0	99.4
=	0.0	5.2	20.0	99.4
=	0.0	5.4	20.0	99.3
=	0.0	5.7	20.0	99.1
=	0.0	5.8	20.0	99.1
=	0.0	5.9	20.0	99.0
=	0.0	6.1	20.0	98.9
=	0.0	6.2	20.0	98.8
=	0.0	6.5	20.0	98.7
=	0.0	6.6	20.0	98.6
=	0.0	6.7	20.0	98.5
=	0.0	6.9	20.0	98.4
=	0.0	7.0	20.0	98.2
=	0.0	7.1	20.0	98.1
=	0.0	7.2	20.0	98.0
=	0.0	7.3	20.0	97.9
=	0.0	7.5	20.0	97.7
=	0.0	7.6	20.0	97.6
=	0.0	7.8	20.0	97.5
=	0.0	8.0	20.0	97.3
=	0.0	8.1	20.0	97.2
=	0.0	8.2	20.0	97.0
=	0.0	8.3	20.0	96.8
=	0.0	8.5	20.0	96.6
=	0.0	8.6	20.0	96.3
=	0.0	8.7	20.0	96.1
=	0.0	8.9	20.0	95.8
=	0.0	9.0	20.0	95.5
=	0.0	9.2	20.0	95.2
=	0.0	9.3	20.0	95.0
=	0.0	9.4	20.0	94.8
=	0.0	9.6	20.0	94.5
=	0.0	9.7	20.0	94.2
=	0.0	9.8	20.0	93.8
=	0.0	9.9	20.0	93.3
=	0.0	10.1	20.0	92.8
=	0.0	10.2	20.0	92.3
=	0.0	10.4	20.0	91.6
=	0.0	10.6	20.0	90.6
=	0.0	10.8	20.0	89.8
=	0.0	10.9	20.0	89.0
=	0.0	11.2	20.0	87.4
=	0.0	11.3	20.0	86.3
=	0.0	11.5	20.0	85.1
=	0.0	11.7	20.0	83.5
=	0.0	11.9	20.0	82.1
=	0.0	12.0	20.0	81.0
=	0.0	12.3	20.0	78.9
=	0.0	12.5	20.0	77.2
=	0.0	12.6	20.0	76.2
=	0.0	12.7	20.0	74.6
=	0.0	12.9	20.0	73.0
=	0.0	13.1	20.0	70.1
=	0.0	13.3	20.0	68.6
=	0.0	13.4	20.0	66.9
=	0.0	13.7	20.0	63.7
=	0.0	13.9	20.0	61.3
=	0.0	14.1	20.0	59.1
=	0.0	14.3	20.0	56.3
=	0.0	14.5	20.0	54.1
=	0.0	14.7	20.0	52.2
=	0.0	14.9	20.0	49.8
=	0.0	15.1	20.0	46.4
=	0.0	15.3	20.0	44.0
=	0.0	15.5	20.0	41.5
=	0.0	15.7	20.0	39.4
=	0.0	15.9	20.0	37.0
=	0.0	16.0	20.0	35.8
=	0.0	16.2	20.0	34.0
=	0.0	16.3	20.0	32.7
=	0.0	16.6	20.0	29.5
=	0.0	16.8	20.0	27.4
=	0.0	17.0	20.0	25.2
=	0.0	17.2	20.0	23.7
=	0.0	17.4	20.0	22.4
=	0.0	17.5	20.0	21.4
=	0.0	17.7	20.0	19.3
=	0.0	17.8	20.0	18.5
=	0.0	18.0	20.0	17.4
=	0.0	18.2	20.0	15.9
=	0.0	18.3	20.0	14.8
=	0.0	18.5	20.0	13.5
=	0.0	18.7	20.0	12.7
=	0.0	18.9	20.0	11.9
=	0.0	19.0	20.0	11.2
=	0.0	19.1	20.0	10.8
=	0.0	19.3	20.0	9.9
=	0.0	19.5	20.0	9.2
=	0.0	19.7	20.0	8.7
=	0.0	19.8	20.0	8.3
=	0.0	19.9	20.0	8.0
=	0.0	20.1	20.0	7.5
=	0.0	20.3	20.0	7.2
=	0.0	20.5	20.0	6.7
=	0.0	20.7	20.0	6.4
=	0.0	20.8	20.0	6.1
=	0.0	21.1	20.0	5.7
=	0.0	21.2	20.0	5.5
=	0.0	21.3	20.0	5.2
=	0.0	21.5	20.0	5.1
=	0.0	21.6	20.0	4.9
=	0.0	21.8	20.0	4.6
=	0.0	21.9	20.0	4.5
=	0.0	22.0	20.0	4.4
=	0.0	22.1	20.0	4.3
=	0.0	22.4	20.0	4.1
=	0.0	22.6	20.0	3.9
=	0.0	22.8	20.0	3.7
=	0.0	22.9	20.0	3.6
=	0.0	23.1	20.0	3.4
=	0.0	23.3	20.0	3.3
=	0.0	23.4	20.0	3.2
=	0.0	23.6	20.0	3.2
=	0.0	23.7	20.0	3.1
=	0.0	23.8	20.0	3.0
=	0.0	24.0	20.0	2.9
=	0.0	24.1	20.0	2.8
=	0.0	24.2	20.0	2.8
=	0.0	24.4	20.0	2.7
=	0.0	24.5	20.0	2.7
=	0.0	24.6	20.0	2.6
=	0.0	24.8	20.0	2.5
=	0.0	25.0	20.0	2.4
=	0.0	25.2	20.0	2.4
=	0.0	25.4	20.0	2.3
=	0.0	25.6	20.0	2.2
=	0.0	25.9	20.0	2.2
=	0.0	26.1	20.0	2.1
=	0.0	26.3	20.0	2.1
=	0.0	26.5	20.0	2.0
=	0.0	26.7	20.0	2.0
=	0.0	26.9	20.0	1.9
=	0.0	27.0	20.0	1.9
=	0.0	27.1	20.0	1.9
=	0.0	27.3	20.0	1.9
=	0.0	27.5	20.0	1.8
=	0.0	27.6	20.0	1.8
=	0.0	27.8	20.0	1.8
=	0.0	28.0	20.0	1.7
=	0.0	28.1	20.0	1.7
=	0.0	28.3	20.0	1.7
=	0.0	28.4	20.0	1.7
=	0.0	28.5	20.0	1.6
=	0.0	28.6	20.0	1.6
=	0.0	28.8	20.0	1.6
=	0.0	29.0	20.0	1.6
=	0.0	29.1	20.0	1.6
=	0.0	29.2	20.0	1.6
=	0.0	29.4	20.0	1.6
=	0.0	29.5	20.0	1.5
=	0.0	29.6	20.0	1.5
=	0.0	29.8	20.0	1.5
=	0.0	30.0	20.0	1.5
=	0.0	30.2	20.0	1.4
=	0.0	30.4	20.0	1.4
=	0.0	30.6	20.0	1.4
=	0.0	30.8	20.0	1.4
=	0.0	31.0	20.0	1.4
=	0.0	31.1	20.0	1.4
=	0.0	31.2	20.0	1.4
=	0.0	31.4	20.0	1.4
=	0.0	31.5	20.0	1.3
=	0.0	31.8	20.0	1.3
=	0.0	32.0	20.0	1.3
=	0.0	32.2	20.0	1.3
=	0.0	32.3	20.0	1.3
=	0.0	32.4	20.0	1.3
=	0.0	32.6	20.0	1.3
=	0.0	32.7	20.0	1.2
=	0.0	32.9	20.0	1.2
=	0.0	33.0	20.0	1.2
=	0.0	33.2	20.0	1.2
=	0.0	33.3	20.0	1.2
=	0.0	33.4	20.0	1.2
=	0.0	33.6	20.0	1.2
=	0.0	33.7	20.0	1.2
=	0.0	33.9	20.0	1.2
=	0.0	34.0	20.0	1.2
=	0.0	34.1	20.0	1.2
=	0.0	34.3	20.0	1.1
=	0.0	34.4	20.0	1.1
=	0.0	34.6	20.0	1.1
=	0.0	34.7	20.0	1.1
=	0.0	34.8	20.0	1.1
=	0.0	35.1	20.0	1.1
=	0.0	35.2	20.0	1.1
=	0.0	35.4	20.0	1.1
=	0.0	35.6	20.0	1.1
=	0.0	35.9	20.0	1.1
=	0.0	36.1	20.0	1.1
=	0.0	36.3	20.0	1.0
=	0.0	36.5	20.0	1.0
=	0.0	36.6	20.0	1.0
=	0.0	36.7	20.0	1.0
=	0.0	36.9	20.0	1.0
=	0.0	37.1	20.0	1.0
=	0.0	37.2	20.0	1.0
=	0.0	37.6	20.0	1.0
=	0.0	37.7	20.0	1.0
=	0.0	37.9	20.0	1.0
=	0.0	38.1	20.0	1.0
=	0.0	38.3	20.0	1.0
=	0.0	38.5	20.0	1.0
=	0.0	38.6	20.0	0.9
=	0.0	38.8	20.0	0.9
=	0.0	38.9	20.0	0.9
=	0.0	39.1	20.0	0.9
=	0.0	39.2	20.0	0.9
=	0.0	39.5	20.0	0.9
=	0.0	39.7	20.0	0.9
=	0.0	40.0	20.0	0.9
=	0.0	40.1	20.0	0.9
=	0.0	40.2	20.0	0.9
=	0.0	40.4	20.0	0.9
=	0.0	40.5	20.0	0.9
=	0.0	40.7	20.0	0.9
=	0.0	40.9	20.0	0.9
=	0.0	41.1	20.0	0.8
=	0.0	41.2	20.0	0.8
=	0.0	41.6	20.0	0.8
=	0.0	41.7	20.0	0.8
=	0.0	42.0	20.0	0.8
=	0.0	42.1	20.0	0.8
=	0.0	42.3	20.0	0.8
=	0.0	42.4	20.0	0.8
=	0.0	42.5	20.0	0.8
=	0.0	42.7	20.0	0.8
=	0.0	42.8	20.0	0.8
=	0.0	42.9	20.0	0.8
=	0.0	43.2	20.0	0.8
=	0.0	43.3	20.0	0.8
=	0.0	43.4	20.0	0.8
=	0.0	43.6	20.0	0.8
=	0.0	43.7	20.0	0.8
=	0.0	44.0	20.0	0.8
=	0.0	44.2	20.0	0.8
=	0.0	44.4	20.0	0.8
=	0.0	44.6	20.0	0.8
=	0.0	44.8	20.0	0.8
=	0.0	45.0	20.0	0.8
=	0.0	45.1	20.0	0.8
=	0.0	45.3	20.0	0.7
=	0.0	45.4	20.0	0.7
=	0.0	45.6	20.0	0.7
=	0.0	45.8	20.0	0.7
=	0.0	46.0	20.0	0.7
=	0.0	46.2	20.0	0.7
=	0.0	46.3	20.0	0.7
=	0.0	46.4	20.0	0.7
=	0.0	46.6	20.0	0.7
=	0.0	46.8	20.0	0.7
=	0.0	47.0	20.0	0.7
=	0.0	47.2	20.0	0.7
=	0.0	47.3	20.0	0.7
=	0.0	47.4	20.0	0.7
=	0.0	47.6	20.0	0.7
=	0.0	47.8	20.0	0.7
=	0.0	48.0	20.0	0.7
=	0.0	48.1	20.0	0.7
=	0.0	48.3	20.0	0.7
=	0.0	48.4	20.0	0.7
=	0.0	48.5	20.0	0.7
=	0.0	48.7	20.0	0.7
=	0.0	48.8	20.0	0.7
=	0.0	49.1	20.0	0.7
=	0.0	49.3	20.0	0.7
=	0.0	49.5	20.0	0.7
=	0.0	49.7	20.0	0.7
=	0.0	50.0	20.0	0.7
=	0.0	50.1	20.0	0.7
=	0.0	50.3	20.0	0.7
=	0.0	50.5	20.0	0.7
=	0.0	50.7	20.0	0.7
=	0.0	50.8	20.0	0.7
=	0.0	50.9	20.0	0.7
=	0.0	51.2	20.0	0.6
=	0.0	51.3	20.0	0.6
=	0.0	51.5	20.0	0.6
=	0.0	51.6	20.0	0.6
=	0.0	51.7	20.0	0.6
=	0.0	51.9	20.0	0.6
=	0.0	52.0	20.0	0.6
=	0.0	52.2	20.0	0.6
=	0.0	52.3	20.0	0.6
=	0.0	52.4	20.0	0.6
=	0.0	52.6	20.0	0.6
=	0.0	52.7	20.0	0.6
=	0.0	52.8	20.0	0.6
=	0.0	53.0	20.0	0.6
=	0.0	53.1	20.0	0.6
=	0.0	53.2	20.0	0.6
=	0.0	53.4	20.0	0.6
=	0.0	53.6	20.0	0.6
=	0.0	53.7	20.0	0.6
=	0.0	53.9	20.0	0.6
=	0.0	54.0	20.0	0.6
=	0.0	54.2	20.0	0.6
=	0.0	54.3	20.0	0.6
=	0.0	54.4	20.0	0.6
=	0.0	54.6	20.0	0.6
=	0.0	54.8	20.0	0.6
=	0.0	54.9	20.0	0.6
=	0.0	55.0	20.0	0.6
=	0.0	55.2	20.0	0.6
=	0.0	55.3	20.0	0.6
=	0.0	55.4	20.0	0.6
=	0.0	55.7	20.0	0.6
=	0.0	55.8	20.0	0.6
=	0.0	55.9	20.0	0.6
=	0.0	56.1	20.0	0.6
=	0.0	56.2	20.0	0.6
=	0.0	56.3	20.0	0.6
=	0.0	56.5	20.0	0.6
=	0.0	56.7	20.0	0.6
=	0.0	56.9	20.0	0.6
=	0.0	57.1	20.0	0.6
=	0.0	57.3	20.0	0.6
=	0.0	57.4	20.0	0.6
=	0.0	57.5	20.0	0.6
=	0.0	57.7	20.0	0.6
=	0.0	57.9	20.0	0.6
=	0.0	58.1	20.0	0.6
=	0.0	58.3	20.0	0.6
=	0.0	58.4	20.0	0.6
=	0.0	58.5	20.0	0.6
=	0.0	58.6	20.0	0.6
=	0.0	58.8	20.0	0.6
=	0.0	58.9	20.0	0.6
=	0.0	59.2	20.0	0.6
=	0.0	59.3	20.0	0.6
=	0.0	59.4	20.0	0.6
=	0.0	59.6	20.0	0.6
=	0.0	59.8	20.0	0.5
=	0.0	59.9	20.0	0.5
=	0.0	60.2	20.0	0.5
=	0.0	60.3	20.0	0.5
=	0.0	60.5	20.0	0.5
=	0.0	60.6	20.0	0.5
=	0.0	60.7	20.0	0.5
=	0.0	60.9	20.0	0.5
=	0.0	61.0	20.0	0.5
=	0.0	61.1	20.0	0.5
=	0.0	61.3	20.0	0.5
=	0.0	61.4	20.0	0.5
=	0.0	61.5	20.0	0.5
=	0.0	61.8	20.0	0.5
=	0.0	61.9	20.0	0.5
=	0.0	62.2	20.0	0.5
=	0.0	62.5	20.0	0.5
=	0.0	62.6	20.0	0.5
=	0.0	62.8	20.0	0.5
=	0.0	63.0	20.0	0.5
=	0.0	63.2	20.0	0.5
=	0.0	63.3	20.0	0.5
=	0.0	63.4	20.0	0.5
=	0.0	63.6	20.0	0.5
=	0.0	63.7	20.0	0.5
=	0.0	63.9	20.0	0.5
=	0.0	64.3	20.0	0.5
=	0.0	64.4	20.0	0.5
=	0.0	64.5	20.0	0.5
=	0.0	64.7	20.0	0.5
=	0.0	64.9	20.0	0.5
=	0.0	65.0	20.0	0.5
=	0.0	65.2	20.0	0.5
:EOM # End of Measurement
#
# RFA300 ASCII Measurement Dump ( BDS format )
#
# Measurement number 	2
#
%VNR 1.0
%MOD 	RAT
%TYP 	SCN
%SCN 	PRO
%FLD 	ION
%DAT 	02-01-2012
%TIM 	12:00:00
%FSZ 	030	030
%BMT 	PHO	   8.0
%SSD 	1000
%BUP 	0
%BRD 	1000
%FSH 	1
%ASC 	0
%WEG 	0
%GPO 	0
%CPO 	0
%MEA 	2
%PRD 	50,0
%PTS 	655
%STS 	    0.0	  -65.6	   50.0 # Start Scan values in mm ( X , Y , Z )
%EDS 	    0.0	   65.5	   50.0 # End Scan values in mm ( X , Y , Z )
#
#	  X      Y      Z     Dose
#
=	0.0	-65.6	50.0	0.6
=	0.0	-65.4	50.0	0.6
=	0.0	-65.2	50.0	0.6
=	0.0	-65.0	50.0	0.6
=	0.0	-64.8	50.0	0.6
=	0.0	-64.7	50.0	0.6
=	0.0	-64.5	50.0	0.6
=	0.0	-64.4	50.0	0.6
=	0.0	-64.3	50.0	0.6
=	0.0	-64.0	50.0	0.6
=	0.0	-63.8	50.0	0.6
=	0.0	-63.5	50.0	0.6
=	0.0	-63.4	50.0	0.6
=	0.0	-63.3	50.0	0.6
=	0.0	-63.1	50.0	0.6
=	0.0	-63.0	50.0	0.6
=	0.0	-62.8	50.0	0.6
=	0.0	-62.6	50.0	0.6
=	0.0	-62.4	50.0	0.6
=	0.0	-62.2	50.0	0.6
=	0.0	-62.0	50.0	0.6
=	0.0	-61.8	50.0	0.6
=	0.0	-61.5	50.0	0.6
=	0.0	-61.3	50.0	0.6
=	0.0	-61.2	50.0	0.6
=	0.0	-61.0	50.0	0.6
=	0.0	-60.9	50.0	0.6
=	0.0	-60.8	50.0	0.6
=	0.0	-60.6	50.0	0.6
=	0.0	-60.4	50.0	0.6
=	0.0	-60.2	50.0	0.6
=	0.0	-60.1	50.0	0.6
=	0.0	-59.9	50.0	0.6
=	0.0	-59.8	50.0	0.6
=	0.0	-59.7	50.0	0.6
=	0.0	-59.5	50.0	0.6
=	0.0	-59.4	50.0	0.6
=	0.0	-59.2	50.0	0.6
=	0.0	-59.1	50.0	0.6
=	0.0	-58.8	50.0	0.7
=	0.0	-58.7	50.0	0.7
=	0.0	-58.4	50.0	0.7
=	0.0	-58.3	50.0	0.7
=	0.0	-58.1	50.0	0.7
=	0.0	-57.9	50.0	0.7
=	0.0	-57.7	50.0	0.7
=	0.0	-57.5	50.0	0.7
=	0.0	-57.2	50.0	0.7
=	0.0	-57.1	50.0	0.7
=	0.0	-56.8	50.0	0.7
=	0.0	-56.7	50.0	0.7
=	0.0	-56.4	50.0	0.7
=	0.0	-56.2	50.0	0.7
=	0.0	-56.0	50.0	0.7
=	0.0	-55.9	50.0	0.7
=	0.0	-55.7	50.0	0.7
=	0.0	-55.4	50.0	0.7
=	0.0	-55.2	50.0	0.7
=	0.0	-55.0	50.0	0.7
=	0.0	-54.8	50.0	0.7
=	0.0	-54.7	50.0	0.7
=	0.0	-54.4	50.0	0.7
=	0.0	-54.2	50.0	0.7
=	0.0	-54.0	50.0	0.7
=	0.0	-53.8	50.0	0.7
=	0.0	-53.7	50.0	0.7
=	0.0	-53.6	50.0	0.7
=	0.0	-53.4	50.0	0.7
=	0.0	-53.2	50.0	0.7
=	0.0	-53.0	50.0	0.7
=	0.0	-52.7	50.0	0.7
=	0.0	-52.6	50.0	0.7
=	0.0	-52.3	50.0	0.8
=	0.0	-52.1	50.0	0.8
=	0.0	-51.9	50.0	0.8
=	0.0	-51.7	50.0	0.8
=	0.0	-51.6	50.0	0.8
=	0.0	-51.4	50.0	0.8
=	0.0	-51.3	50.0	0.8
=	0.0	-51.1	50.0	0.8
=	0.0	-51.0	50.0	0.8
=	0.0	-50.9	50.0	0.8
=	0.0	-50.7	50.0	0.8
=	0.0	-50.5	50.0	0.8
=	0.0	-50.3	50.0	0.8
=	0.0	-50.1	50.0	0.8
=	0.0	-49.8	50.0	0.8
=	0.0	-49.6	50.0	0.8
=	0.0	-49.4	50.0	0.8
=	0.0	-49.2	50.0	0.8
=	0.0	-49.1	50.0	0.8
=	0.0	-48.8	50.0	0.8
=	0.0	-48.6	50.0	0.8
=	0.0	-48.4	50.0	0.8
=	0.0	-48.2	50.0	0.8
=	0.0	-48.1	50.0	0.8
=	0.0	-47.8	50.0	0.9
=	0.0	-47.6	50.0	0.9
=	0.0	-47.4	50.0	0.9
=	0.0	-47.2	50.0	0.9
=	0.0	-47.0	50.0	0.9
=	0.0	-46.8	50.0	0.9
=	0.0	-46.7	50.0	0.9
=	0.0	-46.4	50.0	0.9
=	0.0	-46.2	50.0	0.9
=	0.0	-46.1	50.0	0.9
=	0.0	-45.9	50.0	0.9
=	0.0	-45.8	50.0	0.9
=	0.0	-45.6	50.0	0.9
=	0.0	-45.4	50.0	0.9
=	0.0	-45.1	50.0	0.9
=	0.0	-45.0	50.0	0.9
=	0.0	-44.9	50.0	0.9
=	0.0	-44.7	50.0	0.9
=	0.0	-44.6	50.0	1.0
=	0.0	-44.3	50.0	1.0
=	0.0	-44.1	50.0	1.0
=	0.0	-43.9	50.0	1.0
=	0.0	-43.7	50.0	1.0
=	0.0	-43.5	50.0	1.0
=	0.0	-43.3	50.0	1.0
=	0.0	-43.1	50.0	1.0
=	0.0	-42.9	50.0	1.0
=	0.0	-42.7	50.0	1.0
=	0.0	-42.5	50.0	1.0
=	0.0	-42.4	50.0	1.0
=	0.0	-42.3	50.0	1.0
=	0.0	-42.1	50.0	1.1
=	0.0	-41.9	50.0	1.1
=	0.0	-41.7	50.0	1.1
=	0.0	-41.5	50.0	1.1
=	0.0	-41.3	50.0	1.1
=	0.0	-41.1	50.0	1.1
=	0.0	-40.9	50.0	1.1
=	0.0	-40.7	50.0	1.1
=	0.0	-40.5	50.0	1.1
=	0.0	-40.2	50.0	1.1
=	0.0	-40.1	50.0	1.1
=	0.0	-40.0	50.0	1.1
=	0.0	-39.9	50.0	1.1
=	0.0	-39.6	50.0	1.2
=	0.0	-39.5	50.0	1.2
=	0.0	-39.2	50.0	1.2
=	0.0	-39.1	50.0	1.2
=	0.0	-39.0	50.0	1.2
=	0.0	-38.6	50.0	1.2
=	0.0	-38.5	50.0	1.2
=	0.0	-38.2	50.0	1.2
=	0.0	-38.0	50.0	1.2
=	0.0	-37.8	50.0	1.2
=	0.0	-37.5	50.0	1.3
=	0.0	-37.0	50.0	1.3
=	0.0	-36.6	50.0	1.3
=	0.0	-36.5	50.0	1.3
=	0.0	-36.2	50.0	1.4
=	0.0	-35.9	50.0	1.4
=	0.0	-35.8	50.0	1.4
=	0.0	-35.4	50.0	1.4
=	0.0	-35.0	50.0	1.5
=	0.0	-34.6	50.0	1.5
=	0.0	-34.5	50.0	1.5
=	0.0	-34.2	50.0	1.5
=	0.0	-33.9	50.0	1.5
=	0.0	-33.8	50.0	1.6
=	0.0	-33.4	50.0	1.6
=	0.0	-33.3	50.0	1.6
=	0.0	-33.0	50.0	1.6
=	0.0	-32.9	50.0	1.6
=	0.0	-32.7	50.0	1.7
=	0.0	-32.5	50.0	1.7
=	0.0	-32.4	50.0	1.7
=	0.0	-32.3	50.0	1.7
=	0.0	-32.1	50.0	1.7
=	0.0	-31.9	50.0	1.8
=	0.0	-31.7	50.0	1.8
=	0.0	-31.4	50.0	1.8
=	0.0	-31.3	50.0	1.8
=	0.0	-31.0	50.0	1.9
=	0.0	-30.9	50.0	1.9
=	0.0	-30.6	50.0	1.9
=	0.0	-30.5	50.0	1.9
=	0.0	-30.2	50.0	2.0
=	0.0	-30.1	50.0	2.0
=	0.0	-29.9	50.0	2.0
=	0.0	-29.7	50.0	2.1
=	0.0	-29.4	50.0	2.1
=	0.0	-29.3	50.0	2.1
=	0.0	-29.0	50.0	2.2
=	0.0	-28.9	50.0	2.2
=	0.0	-28.6	50.0	2.3
=	0.0	-28.4	50.0	2.3
=	0.0	-28.2	50.0	2.4
=	0.0	-28.1	50.0	2.4
=	0.0	-27.9	50.0	2.4
=	0.0	-27.6	50.0	2.5
=	0.0	-27.5	50.0	2.5
=	0.0	-27.2	50.0	2.6
=	0.0	-27.1	50.0	2.7
=	0.0	-26.8	50.0	2.7
=	0.0	-26.7	50.0	2.8
=	0.0	-26.3	50.0	2.9
=	0.0	-26.2	50.0	3.0
=	0.0	-25.9	50.0	3.1
=	0.0	-25.8	50.0	3.1
=	0.0	-25.5	50.0	3.3
=	0.0	-25.4	50.0	3.4
=	0.0	-25.1	50.0	3.5
=	0.0	-24.8	50.0	3.6
=	0.0	-24.7	50.0	3.7
=	0.0	-24.4	50.0	3.9
=	0.0	-24.3	50.0	4.0
=	0.0	-23.9	50.0	4.2
=	0.0	-23.5	50.0	4.6
=	0.0	-23.4	50.0	4.7
=	0.0	-23.1	50.0	4.9
=	0.0	-22.8	50.0	5.2
=	0.0	-22.7	50.0	5.3
=	0.0	-22.6	50.0	5.4
=	0.0	-22.3	50.0	5.8
=	0.0	-22.2	50.0	5.9
=	0.0	-21.9	50.0	6.4
=	0.0	-21.6	50.0	6.8
=	0.0	-21.4	50.0	7.2
=	0.0	-21.2	50.0	7.7
=	0.0	-21.0	50.0	8.0
=	0.0	-20.8	50.0	8.5
=	0.0	-20.6	50.0	9.0
=	0.0	-20.5	50.0	9.4
=	0.0	-20.2	50.0	10.1
=	0.0	-20.0	50.0	10.7
=	0.0	-19.8	50.0	11.5
=	0.0	-19.6	50.0	12.3
=	0.0	-19.5	50.0	12.8
=	0.0	-19.4	50.0	13.2
=	0.0	-19.2	50.0	14.0
=	0.0	-19.0	50.0	15.3
=	0.0	-18.5	50.0	18.3
=	0.0	-18.1	50.0	21.5
=	0.0	-18.0	50.0	22.3
=	0.0	-17.7	50.0	24.8
=	0.0	-17.5	50.0	26.5
=	0.0	-17.3	50.0	28.5
=	0.0	-17.0	50.0	31.1
=	0.0	-16.9	50.0	32.3
=	0.0	-16.5	50.0	35.9
=	0.0	-16.3	50.0	38.2
=	0.0	-16.1	50.0	40.4
=	0.0	-15.7	50.0	45.3
=	0.0	-15.6	50.0	46.7
=	0.0	-15.3	50.0	50.2
=	0.0	-15.0	50.0	53.2
=	0.0	-14.9	50.0	54.6
=	0.0	-14.6	50.0	57.7
=	0.0	-14.5	50.0	59.0
=	0.0	-14.3	50.0	61.8
=	0.0	-14.1	50.0	64.2
=	0.0	-13.9	50.0	66.2
=	0.0	-13.8	50.0	67.4
=	0.0	-13.6	50.0	69.0
=	0.0	-13.5	50.0	70.3
=	0.0	-13.3	50.0	72.8
=	0.0	-13.1	50.0	74.2
=	0.0	-12.8	50.0	76.8
=	0.0	-12.7	50.0	77.8
=	0.0	-12.5	50.0	80.4
=	0.0	-12.3	50.0	82.0
=	0.0	-12.1	50.0	83.2
=	0.0	-11.8	50.0	85.4
=	0.0	-11.6	50.0	86.8
=	0.0	-11.3	50.0	88.4
=	0.0	-11.2	50.0	89.1
=	0.0	-11.0	50.0	90.2
=	0.0	-10.8	50.0	91.1
=	0.0	-10.5	50.0	92.1
=	0.0	-10.3	50.0	92.7
=	0.0	-10.2	50.0	93.1
=	0.0	-10.0	50.0	93.7
=	0.0	-9.7	50.0	94.3
=	0.0	-9.5	50.0	94.7
=	0.0	-9.3	50.0	95.2
=	0.0	-9.1	50.0	95.5
=	0.0	-8.9	50.0	95.9
=	0.0	-8.7	50.0	96.1
=	0.0	-8.5	50.0	96.5
=	0.0	-8.3	50.0	96.7
=	0.0	-8.2	50.0	96.9
=	0.0	-8.0	50.0	97.1
=	0.0	-7.9	50.0	97.3
=	0.0	-7.7	50.0	97.5
=	0.0	-7.4	50.0	97.7
=	0.0	-7.2	50.0	97.8
=	0.0	-7.0	50.0	98.0
=	0.0	-6.8	50.0	98.3
=	0.0	-6.6	50.0	98.4
=	0.0	-6.4	50.0	98.6
=	0.0	-6.3	50.0	98.7
=	0.0	-5.9	50.0	98.9
=	0.0	-5.8	50.0	98.9
=	0.0	-5.7	50.0	99.0
=	0.0	-5.6	50.0	99.0
=	0.0	-5.4	50.0	99.1
=	0.0	-5.2	50.0	99.2
=	0.0	-5.0	50.0	99.2
=	0.0	-4.8	50.0	99.3
=	0.0	-4.6	50.0	99.3
=	0.0	-4.3	50.0	99.4
=	0.0	-4.2	50.0	99.4
=	0.0	-3.9	50.0	99.6
=	0.0	-3.8	50.0	99.6
=	0.0	-3.6	50.0	99.7
=	0.0	-3.5	50.0	99.7
=	0.0	-3.1	50.0	99.7
=	0.0	-3.0	50.0	99.8
=	0.0	-2.7	50.0	99.8
=	0.0	-2.6	50.0	99.8
=	0.0	-2.3	50.0	99.9
=	0.0	-2.2	50.0	99.9
=	0.0	-1.9	50.0	99.9
=	0.0	-1.8	50.0	99.9
=	0.0	-1.6	50.0	99.9
=	0.0	-1.5	50.0	99.9
=	0.0	-1.4	50.0	100.0
=	0.0	-1.1	50.0	100.0
=	0.0	-0.9	50.0	100.0
=	0.0	-0.7	50.0	100.0
=	0.0	-0.6	50.0	100.0
=	0.0	-0.2	50.0	100.0
=	0.0	-0.1	50.0	100.0
=	0.0	0.2	50.0	100.0
=	0.0	0.4	50.0	100.0
=	0.0	0.6	50.0	100.0
=	0.0	0.7	50.0	100.0
=	0.0	0.9	50.0	100.0
=	0.0	1.1	50.0	100.0
=	0.0	1.4	50.0	100.0
=	0.0	1.8	50.0	99.9
=	0.0	1.9	50.0	99.9
=	0.0	2.2	50.0	99.9
=	0.0	2.3	50.0	99.9
=	0.0	2.5	50.0	99.9
=	0.0	2.6	50.0	99.9
=	0.0	2.7	50.0	99.9
=	0.0	2.9	50.0	99.8
=	0.0	3.1	50.0	99.8
=	0.0	3.4	50.0	99.7
=	0.0	3.6	50.0	99.7
=	0.0	3.8	50.0	99.6
=	0.0	3.9	50.0	99.5
=	0.0	4.2	50.0	99.5
=	0.0	4.3	50.0	99.4
=	0.0	4.5	50.0	99.4
=	0.0	4.8	50.0	99.4
=	0.0	4.9	50.0	99.3
=	0.0	5.2	50.0	99.3
=	0.0	5.4	50.0	99.1
=	0.0	5.6	50.0	99.1
=	0.0	5.8	50.0	99.0
=	0.0	5.9	50.0	98.9
=	0.0	6.3	50.0	98.8
=	0.0	6.4	50.0	98.7
=	0.0	6.6	50.0	98.6
=	0.0	6.8	50.0	98.4
=	0.0	6.9	50.0	98.3
=	0.0	7.0	50.0	98.2
=	0.0	7.2	50.0	98.0
=	0.0	7.4	50.0	97.8
=	0.0	7.6	50.0	97.6
=	0.0	7.9	50.0	97.3
=	0.0	8.0	50.0	97.1
=	0.0	8.1	50.0	97.0
=	0.0	8.3	50.0	96.7
=	0.0	8.5	50.0	96.5
=	0.0	8.7	50.0	96.2
=	0.0	8.9	50.0	95.9
=	0.0	9.1	50.0	95.4
=	0.0	9.3	50.0	95.0
=	0.0	9.5	50.0	94.5
=	0.0	9.7	50.0	94.1
=	0.0	9.8	50.0	93.6
=	0.0	10.0	50.0	93.3
=	0.0	10.1	50.0	92.8
=	0.0	10.3	50.0	92.3
=	0.0	10.5	50.0	91.5
=	0.0	10.8	50.0	90.5
=	0.0	11.0	50.0	89.7
=	0.0	11.2	50.0	88.5
=	0.0	11.3	50.0	87.9
=	0.0	11.6	50.0	86.4
=	0.0	11.7	50.0	85.7
=	0.0	11.8	50.0	84.9
=	0.0	12.1	50.0	82.9
=	0.0	12.2	50.0	81.9
=	0.0	12.5	50.0	80.1
=	0.0	12.6	50.0	78.6
=	0.0	12.8	50.0	76.6
=	0.0	13.0	50.0	74.8
=	0.0	13.3	50.0	72.6
=	0.0	13.5	50.0	70.4
=	0.0	13.6	50.0	68.7
=	0.0	13.9	50.0	66.2
=	0.0	14.0	50.0	64.2
=	0.0	14.3	50.0	61.3
=	0.0	14.5	50.0	59.6
=	0.0	14.6	50.0	58.5
=	0.0	14.7	50.0	57.0
=	0.0	14.9	50.0	54.5
=	0.0	15.1	50.0	52.7
=	0.0	15.3	50.0	50.2
=	0.0	15.6	50.0	47.2
=	0.0	15.7	50.0	45.8
=	0.0	16.1	50.0	41.1
=	0.0	16.5	50.0	36.2
=	0.0	16.9	50.0	32.2
=	0.0	17.1	50.0	29.8
=	0.0	17.3	50.0	28.2
=	0.0	17.6	50.0	25.3
=	0.0	17.7	50.0	24.4
=	0.0	18.1	50.0	21.3
=	0.0	18.4	50.0	18.7
=	0.0	18.6	50.0	17.4
=	0.0	18.9	50.0	15.7
=	0.0	19.1	50.0	14.3
=	0.0	19.2	50.0	13.8
=	0.0	19.4	50.0	13.0
=	0.0	19.6	50.0	12.0
=	0.0	19.8	50.0	11.3
=	0.0	20.0	50.0	10.5
=	0.0	20.2	50.0	10.1
=	0.0	20.4	50.0	9.4
=	0.0	20.6	50.0	8.8
=	0.0	20.8	50.0	8.3
=	0.0	21.0	50.0	8.0
=	0.0	21.2	50.0	7.5
=	0.0	21.5	50.0	6.9
=	0.0	21.7	50.0	6.6
=	0.0	21.9	50.0	6.2
=	0.0	22.0	50.0	6.1
=	0.0	22.2	50.0	5.9
=	0.0	22.3	50.0	5.7
=	0.0	22.5	50.0	5.4
=	0.0	22.7	50.0	5.3
=	0.0	23.0	50.0	5.0
=	0.0	23.1	50.0	4.9
=	0.0	23.4	50.0	4.6
=	0.0	23.5	50.0	4.5
=	0.0	23.7	50.0	4.3
=	0.0	23.8	50.0	4.3
=	0.0	24.2	50.0	4.0
=	0.0	24.6	50.0	3.8
=	0.0	24.7	50.0	3.7
=	0.0	25.0	50.0	3.5
=	0.0	25.1	50.0	3.5
=	0.0	25.2	50.0	3.4
=	0.0	25.4	50.0	3.3
=	0.0	25.5	50.0	3.3
=	0.0	25.7	50.0	3.2
=	0.0	25.9	50.0	3.1
=	0.0	26.1	50.0	3.0
=	0.0	26.2	50.0	3.0
=	0.0	26.3	50.0	2.9
=	0.0	26.5	50.0	2.9
=	0.0	26.7	50.0	2.8
=	0.0	26.9	50.0	2.7
=	0.0	27.1	50.0	2.7
=	0.0	27.2	50.0	2.6
=	0.0	27.5	50.0	2.5
=	0.0	27.6	50.0	2.5
=	0.0	27.8	50.0	2.5
=	0.0	28.1	50.0	2.4
=	0.0	28.2	50.0	2.4
=	0.0	28.4	50.0	2.3
=	0.0	28.5	50.0	2.3
=	0.0	28.7	50.0	2.3
=	0.0	28.8	50.0	2.2
=	0.0	28.9	50.0	2.2
=	0.0	29.2	50.0	2.1
=	0.0	29.4	50.0	2.1
=	0.0	29.7	50.0	2.1
=	0.0	29.8	50.0	2.0
=	0.0	30.0	50.0	2.0
=	0.0	30.2	50.0	2.0
=	0.0	30.6	50.0	1.9
=	0.0	30.8	50.0	1.9
=	0.0	30.9	50.0	1.9
=	0.0	31.0	50.0	1.9
=	0.0	31.3	50.0	1.8
=	0.0	31.4	50.0	1.8
=	0.0	31.7	50.0	1.8
=	0.0	31.8	50.0	1.7
=	0.0	32.1	50.0	1.7
=	0.0	32.3	50.0	1.7
=	0.0	32.5	50.0	1.7
=	0.0	32.7	50.0	1.7
=	0.0	32.8	50.0	1.6
=	0.0	33.0	50.0	1.6
=	0.0	33.3	50.0	1.6
=	0.0	33.4	50.0	1.6
=	0.0	33.8	50.0	1.6
=	0.0	34.2	50.0	1.5
=	0.0	34.6	50.0	1.5
=	0.0	34.8	50.0	1.4
=	0.0	35.0	50.0	1.4
=	0.0	35.1	50.0	1.4
=	0.0	35.3	50.0	1.4
=	0.0	35.5	50.0	1.4
=	0.0	35.7	50.0	1.4
=	0.0	35.9	50.0	1.4
=	0.0	36.2	50.0	1.3
=	0.0	36.3	50.0	1.3
=	0.0	36.6	50.0	1.3
=	0.0	36.7	50.0	1.3
=	0.0	36.8	50.0	1.3
=	0.0	37.0	50.0	1.3
=	0.0	37.1	50.0	1.3
=	0.0	37.4	50.0	1.3
=	0.0	37.6	50.0	1.2
=	0.0	37.8	50.0	1.2
=	0.0	38.0	50.0	1.2
=	0.0	38.2	50.0	1.2
=	0.0	38.4	50.0	1.2
=	0.0	38.6	50.0	1.2
=	0.0	38.8	50.0	1.2
=	0.0	38.9	50.0	1.2
=	0.0	39.1	50.0	1.2
=	0.0	39.2	50.0	1.2
=	0.0	39.4	50.0	1.2
=	0.0	39.5	50.0	1.2
=	0.0	39.6	50.0	1.2
=	0.0	39.9	50.0	1.1
=	0.0	40.1	50.0	1.1
=	0.0	40.2	50.0	1.1
=	0.0	40.4	50.0	1.1
=	0.0	40.5	50.0	1.1
=	0.0	40.7	50.0	1.1
=	0.0	40.8	50.0	1.1
=	0.0	41.1	50.0	1.1
=	0.0	41.2	50.0	1.1
=	0.0	41.4	50.0	1.1
=	0.0	41.5	50.0	1.1
=	0.0	41.7	50.0	1.1
=	0.0	41.9	50.0	1.1
=	0.0	42.0	50.0	1.1
=	0.0	42.3	50.0	1.1
=	0.0	42.4	50.0	1.0
=	0.0	42.7	50.0	1.0
=	0.0	42.8	50.0	1.0
=	0.0	43.0	50.0	1.0
=	0.0	43.3	50.0	1.0
=	0.0	43.4	50.0	1.0
=	0.0	43.7	50.0	1.0
=	0.0	43.8	50.0	1.0
=	0.0	44.0	50.0	1.0
=	0.0	44.1	50.0	1.0
=	0.0	44.2	50.0	1.0
=	0.0	44.5	50.0	1.0
=	0.0	44.6	50.0	1.0
=	0.0	44.9	50.0	0.9
=	0.0	45.0	50.0	0.9
=	0.0	45.3	50.0	0.9
=	0.0	45.4	50.0	0.9
=	0.0	45.7	50.0	0.9
=	0.0	45.8	50.0	0.9
=	0.0	46.0	50.0	0.9
=	0.0	46.1	50.0	0.9
=	0.0	46.2	50.0	0.9
=	0.0	46.5	50.0	0.9
=	0.0	46.7	50.0	0.9
=	0.0	46.9	50.0	0.9
=	0.0	47.4	50.0	0.9
=	0.0	47.5	50.0	0.9
=	0.0	47.8	50.0	0.9
=	0.0	48.0	50.0	0.9
=	0.0	48.2	50.0	0.8
=	0.0	48.5	50.0	0.8
=	0.0	49.0	50.0	0.8
=	0.0	49.4	50.0	0.8
=	0.0	49.5	50.0	0.8
=	0.0	49.8	50.0	0.8
=	0.0	50.0	50.0	0.8
=	0.0	50.2	50.0	0.8
=	0.0	50.5	50.0	0.8
=	0.0	50.6	50.0	0.8
=	0.0	51.0	50.0	0.8
=	0.0	51.4	50.0	0.8
=	0.0	51.6	50.0	0.8
=	0.0	51.9	50.0	0.8
=	0.0	52.0	50.0	0.8
=	0.0	52.3	50.0	0.7
=	0.0	52.5	50.0	0.7
=	0.0	52.7	50.0	0.7
=	0.0	53.0	50.0	0.7
=	0.0	53.1	50.0	0.7
=	0.0	53.4	50.0	0.7
=	0.0	53.5	50.0	0.7
=	0.0	53.8	50.0	0.7
=	0.0	54.0	50.0	0.7
=	0.0	54.1	50.0	0.7
=	0.0	54.2	50.0	0.7
=	0.0	54.3	50.0	0.7
=	0.0	54.6	50.0	0.7
=	0.0	54.7	50.0	0.7
=	0.0	55.0	50.0	0.7
=	0.0	55.2	50.0	0.7
=	0.0	55.4	50.0	0.7
=	0.0	55.6	50.0	0.7
=	0.0	55.8	50.0	0.7
=	0.0	56.0	50.0	0.7
=	0.0	56.1	50.0	0.7
=	0.0	56.2	50.0	0.7
=	0.0	56.4	50.0	0.7
