:MSR 	40	 # No. of measurement in file
:SYS BDS 0   # Beam Data Scanner System
#
# RFA300 ASCII Measurement Dump ( BDS format )
#
# Measurement number 	1
#
%VNR 1.0
%MOD 	RAT
%TYP 	SCN
%SCN 	PRO
%FLD 	ION
%DAT 	02-01-2012
%TIM 	12:00:00
%FSZ 	030	030
%BMT 	PHO	   8.0
%SSD 	1000
%BUP 	0
%BRD 	1000
%FSH 	1
%ASC 	0
%WEG 	0
%GPO 	0
%CPO 	0
%MEA 	2
%PRD 	20,0
%PTS 	791
%STS 	    -65.2	  0.0	   20.0 # Start Scan values in mm ( X , Y , Z )
%EDS 	    65.2	   0.0	   20.0 # End Scan values in mm ( X , Y , Z )
#
#	  X      Y      Z     Dose
#
=	-65.2	0.0	20.0	0.5
=	-65.0	0.0	20.0	0.5
=	-64.9	0.0	20.0	0.5
=	-64.7	0.0	20.0	0.5
=	-64.5	0.0	20.0	0.5
=	-64.4	0.0	20.0	0.5
=	-64.3	0.0	20.0	0.5
=	-64.0	0.0	20.0	0.5
=	-63.7	0.0	20.0	0.5
=	-63.6	0.0	20.0	0.5
=	-63.4	0.0	20.0	0.5
=	-63.3	0.0	20.0	0.5
=	-63.2	0.0	20.0	0.5
=	-63.0	0.0	20.0	0.5
=	-62.8	0.0	20.0	0.5
=	-62.7	0.0	20.0	0.5
=	-62.5	0.0	20.0	0.5
=	-62.3	0.0	20.0	0.5
=	-62.0	0.0	20.0	0.5
=	-61.8	0.0	20.0	0.5
=	-61.6	0.0	20.0	0.5
=	-61.4	0.0	20.0	0.5
=	-61.3	0.0	20.0	0.5
=	-61.1	0.0	20.0	0.5
=	-61.0	0.0	20.0	0.5
=	-60.9	0.0	20.0	0.5
=	-60.8	0.0	20.0	0.5
=	-60.6	0.0	20.0	0.5
=	-60.5	0.0	20.0	0.5
=	-60.3	0.0	20.0	0.5
=	-60.2	0.0	20.0	0.5
=	-60.0	0.0	20.0	0.5
=	-59.8	0.0	20.0	0.5
=	-59.6	0.0	20.0	0.6
=	-59.5	0.0	20.0	0.6
=	-59.3	0.0	20.0	0.6
=	-59.2	0.0	20.0	0.6
=	-59.0	0.0	20.0	0.6
=	-58.8	0.0	20.0	0.6
=	-58.6	0.0	20.0	0.6
=	-58.5	0.0	20.0	0.6
=	-58.4	0.0	20.0	0.6
=	-58.3	0.0	20.0	0.6
=	-58.1	0.0	20.0	0.6
=	-58.0	0.0	20.0	0.6
=	-57.8	0.0	20.0	0.6
=	-57.5	0.0	20.0	0.6
=	-57.4	0.0	20.0	0.6
=	-57.3	0.0	20.0	0.6
=	-57.1	0.0	20.0	0.6
=	-56.9	0.0	20.0	0.6
=	-56.8	0.0	20.0	0.6
=	-56.5	0.0	20.0	0.6
=	-56.3	0.0	20.0	0.6
=	-56.2	0.0	20.0	0.6
=	-56.1	0.0	20.0	0.6
=	-56.0	0.0	20.0	0.6
=	-55.8	0.0	20.0	0.6
=	-55.7	0.0	20.0	0.6
=	-55.5	0.0	20.0	0.6
=	-55.3	0.0	20.0	0.6
=	-55.2	0.0	20.0	0.6
=	-55.0	0.0	20.0	0.6
=	-54.9	0.0	20.0	0.6
=	-54.8	0.0	20.0	0.6
=	-54.6	0.0	20.0	0.6
=	-54.4	0.0	20.0	0.6
=	-54.3	0.0	20.0	0.6
=	-54.2	0.0	20.0	0.6
=	-54.0	0.0	20.0	0.6
=	-53.9	0.0	20.0	0.6
=	-53.8	0.0	20.0	0.6
=	-53.6	0.0	20.0	0.6
=	-53.4	0.0	20.0	0.6
=	-53.3	0.0	20.0	0.6
=	-53.1	0.0	20.0	0.6
=	-53.0	0.0	20.0	0.6
=	-52.8	0.0	20.0	0.6
=	-52.7	0.0	20.0	0.6
=	-52.6	0.0	20.0	0.6
=	-52.5	0.0	20.0	0.6
=	-52.3	0.0	20.0	0.6
=	-52.2	0.0	20.0	0.6
=	-52.0	0.0	20.0	0.6
=	-51.9	0.0	20.0	0.6
=	-51.7	0.0	20.0	0.6
=	-51.6	0.0	20.0	0.6
=	-51.5	0.0	20.0	0.6
=	-51.4	0.0	20.0	0.6
=	-51.2	0.0	20.0	0.6
=	-50.9	0.0	20.0	0.7
=	-50.8	0.0	20.0	0.7
=	-50.7	0.0	20.0	0.7
=	-50.5	0.0	20.0	0.7
=	-50.4	0.0	20.0	0.7
=	-50.2	0.0	20.0	0.7
=	-50.0	0.0	20.0	0.7
=	-49.7	0.0	20.0	0.7
=	-49.6	0.0	20.0	0.7
=	-49.3	0.0	20.0	0.7
=	-49.2	0.0	20.0	0.7
=	-48.9	0.0	20.0	0.7
=	-48.7	0.0	20.0	0.7
=	-48.5	0.0	20.0	0.7
=	-48.4	0.0	20.0	0.7
=	-48.3	0.0	20.0	0.7
=	-48.1	0.0	20.0	0.7
=	-48.0	0.0	20.0	0.7
=	-47.8	0.0	20.0	0.7
=	-47.7	0.0	20.0	0.7
=	-47.5	0.0	20.0	0.7
=	-47.3	0.0	20.0	0.7
=	-47.2	0.0	20.0	0.7
=	-47.0	0.0	20.0	0.7
=	-46.9	0.0	20.0	0.7
=	-46.7	0.0	20.0	0.7
=	-46.4	0.0	20.0	0.7
=	-46.3	0.0	20.0	0.7
=	-46.2	0.0	20.0	0.7
=	-46.0	0.0	20.0	0.7
=	-45.8	0.0	20.0	0.7
=	-45.7	0.0	20.0	0.7
=	-45.4	0.0	20.0	0.7
=	-45.3	0.0	20.0	0.7
=	-45.1	0.0	20.0	0.8
=	-45.0	0.0	20.0	0.8
=	-44.8	0.0	20.0	0.8
=	-44.7	0.0	20.0	0.8
=	-44.4	0.0	20.0	0.8
=	-44.2	0.0	20.0	0.8
=	-44.0	0.0	20.0	0.8
=	-43.8	0.0	20.0	0.8
=	-43.7	0.0	20.0	0.8
=	-43.4	0.0	20.0	0.8
=	-43.3	0.0	20.0	0.8
=	-43.2	0.0	20.0	0.8
=	-43.0	0.0	20.0	0.8
=	-42.8	0.0	20.0	0.8
=	-42.7	0.0	20.0	0.8
=	-42.5	0.0	20.0	0.8
=	-42.4	0.0	20.0	0.8
=	-42.3	0.0	20.0	0.8
=	-42.1	0.0	20.0	0.8
=	-42.0	0.0	20.0	0.8
=	-41.7	0.0	20.0	0.8
=	-41.6	0.0	20.0	0.8
=	-41.3	0.0	20.0	0.8
=	-41.1	0.0	20.0	0.8
=	-40.9	0.0	20.0	0.9
=	-40.8	0.0	20.0	0.9
=	-40.6	0.0	20.0	0.9
=	-40.4	0.0	20.0	0.9
=	-40.2	0.0	20.0	0.9
=	-40.1	0.0	20.0	0.9
=	-40.0	0.0	20.0	0.9
=	-39.7	0.0	20.0	0.9
=	-39.6	0.0	20.0	0.9
=	-39.3	0.0	20.0	0.9
=	-39.2	0.0	20.0	0.9
=	-38.9	0.0	20.0	0.9
=	-38.8	0.0	20.0	0.9
=	-38.6	0.0	20.0	0.9
=	-38.5	0.0	20.0	1.0
=	-38.4	0.0	20.0	1.0
=	-38.1	0.0	20.0	1.0
=	-38.0	0.0	20.0	1.0
=	-37.7	0.0	20.0	1.0
=	-37.6	0.0	20.0	1.0
=	-37.3	0.0	20.0	1.0
=	-37.1	0.0	20.0	1.0
=	-36.9	0.0	20.0	1.0
=	-36.7	0.0	20.0	1.0
=	-36.6	0.0	20.0	1.0
=	-36.5	0.0	20.0	1.0
=	-36.3	0.0	20.0	1.0
=	-36.1	0.0	20.0	1.1
=	-36.0	0.0	20.0	1.1
=	-35.6	0.0	20.0	1.1
=	-35.5	0.0	20.0	1.1
=	-35.2	0.0	20.0	1.1
=	-35.1	0.0	20.0	1.1
=	-34.8	0.0	20.0	1.1
=	-34.7	0.0	20.0	1.1
=	-34.6	0.0	20.0	1.1
=	-34.4	0.0	20.0	1.1
=	-34.3	0.0	20.0	1.1
=	-34.1	0.0	20.0	1.2
=	-34.0	0.0	20.0	1.2
=	-33.9	0.0	20.0	1.2
=	-33.7	0.0	20.0	1.2
=	-33.6	0.0	20.0	1.2
=	-33.4	0.0	20.0	1.2
=	-33.3	0.0	20.0	1.2
=	-33.2	0.0	20.0	1.2
=	-33.0	0.0	20.0	1.2
=	-32.9	0.0	20.0	1.2
=	-32.7	0.0	20.0	1.2
=	-32.6	0.0	20.0	1.3
=	-32.4	0.0	20.0	1.3
=	-32.3	0.0	20.0	1.3
=	-32.2	0.0	20.0	1.3
=	-32.0	0.0	20.0	1.3
=	-31.8	0.0	20.0	1.3
=	-31.6	0.0	20.0	1.3
=	-31.4	0.0	20.0	1.4
=	-31.2	0.0	20.0	1.4
=	-31.1	0.0	20.0	1.4
=	-31.0	0.0	20.0	1.4
=	-30.8	0.0	20.0	1.4
=	-30.7	0.0	20.0	1.4
=	-30.5	0.0	20.0	1.4
=	-30.3	0.0	20.0	1.4
=	-30.0	0.0	20.0	1.5
=	-29.9	0.0	20.0	1.5
=	-29.6	0.0	20.0	1.5
=	-29.5	0.0	20.0	1.5
=	-29.4	0.0	20.0	1.6
=	-29.2	0.0	20.0	1.6
=	-29.1	0.0	20.0	1.6
=	-29.0	0.0	20.0	1.6
=	-28.8	0.0	20.0	1.6
=	-28.7	0.0	20.0	1.6
=	-28.5	0.0	20.0	1.6
=	-28.4	0.0	20.0	1.7
=	-28.3	0.0	20.0	1.7
=	-28.1	0.0	20.0	1.7
=	-28.0	0.0	20.0	1.7
=	-27.8	0.0	20.0	1.8
=	-27.7	0.0	20.0	1.8
=	-27.5	0.0	20.0	1.8
=	-27.3	0.0	20.0	1.9
=	-27.1	0.0	20.0	1.9
=	-27.0	0.0	20.0	1.9
=	-26.9	0.0	20.0	1.9
=	-26.7	0.0	20.0	2.0
=	-26.5	0.0	20.0	2.0
=	-26.3	0.0	20.0	2.1
=	-26.1	0.0	20.0	2.1
=	-25.9	0.0	20.0	2.1
=	-25.6	0.0	20.0	2.2
=	-25.5	0.0	20.0	2.3
=	-25.2	0.0	20.0	2.4
=	-25.1	0.0	20.0	2.4
=	-24.9	0.0	20.0	2.5
=	-24.6	0.0	20.0	2.6
=	-24.5	0.0	20.0	2.7
=	-24.4	0.0	20.0	2.7
=	-24.2	0.0	20.0	2.8
=	-24.1	0.0	20.0	2.8
=	-24.0	0.0	20.0	2.9
=	-23.8	0.0	20.0	3.0
=	-23.7	0.0	20.0	3.1
=	-23.6	0.0	20.0	3.2
=	-23.4	0.0	20.0	3.2
=	-23.3	0.0	20.0	3.3
=	-23.1	0.0	20.0	3.4
=	-22.9	0.0	20.0	3.6
=	-22.8	0.0	20.0	3.7
=	-22.6	0.0	20.0	3.9
=	-22.4	0.0	20.0	4.0
=	-22.1	0.0	20.0	4.3
=	-22.0	0.0	20.0	4.4
=	-21.9	0.0	20.0	4.5
=	-21.8	0.0	20.0	4.6
=	-21.6	0.0	20.0	4.9
=	-21.5	0.0	20.0	5.1
=	-21.3	0.0	20.0	5.2
=	-21.2	0.0	20.0	5.5
=	-21.1	0.0	20.0	5.7
=	-20.9	0.0	20.0	6.0
=	-20.8	0.0	20.0	6.2
=	-20.5	0.0	20.0	6.7
=	-20.4	0.0	20.0	7.0
=	-20.2	0.0	20.0	7.3
=	-19.9	0.0	20.0	8.0
=	-19.8	0.0	20.0	8.3
=	-19.7	0.0	20.0	8.6
=	-19.6	0.0	20.0	9.0
=	-19.4	0.0	20.0	9.7
=	-19.2	0.0	20.0	10.5
=	-19.0	0.0	20.0	11.2
=	-18.9	0.0	20.0	11.7
=	-18.8	0.0	20.0	12.3
=	-18.6	0.0	20.0	13.0
=	-18.4	0.0	20.0	14.2
=	-18.2	0.0	20.0	15.4
=	-18.0	0.0	20.0	16.9
=	-17.9	0.0	20.0	18.0
=	-17.7	0.0	20.0	19.3
=	-17.5	0.0	20.0	21.2
=	-17.4	0.0	20.0	22.4
=	-17.2	0.0	20.0	23.7
=	-17.0	0.0	20.0	25.2
=	-16.9	0.0	20.0	27.1
=	-16.7	0.0	20.0	28.7
=	-16.3	0.0	20.0	32.7
=	-16.2	0.0	20.0	34.0
=	-16.0	0.0	20.0	35.8
=	-15.9	0.0	20.0	37.0
=	-15.8	0.0	20.0	38.4
=	-15.5	0.0	20.0	41.5
=	-15.4	0.0	20.0	43.4
=	-15.2	0.0	20.0	45.2
=	-14.9	0.0	20.0	49.0
=	-14.7	0.0	20.0	51.4
=	-14.5	0.0	20.0	54.1
=	-14.4	0.0	20.0	55.7
=	-14.1	0.0	20.0	58.9
=	-14.0	0.0	20.0	60.1
=	-13.7	0.0	20.0	63.4
=	-13.5	0.0	20.0	65.9
=	-13.3	0.0	20.0	68.4
=	-13.2	0.0	20.0	69.6
=	-13.0	0.0	20.0	72.1
=	-12.8	0.0	20.0	73.8
=	-12.6	0.0	20.0	76.2
=	-12.5	0.0	20.0	77.2
=	-12.3	0.0	20.0	78.4
=	-12.1	0.0	20.0	80.1
=	-11.9	0.0	20.0	82.0
=	-11.8	0.0	20.0	83.3
=	-11.6	0.0	20.0	84.4
=	-11.4	0.0	20.0	85.8
=	-11.2	0.0	20.0	87.0
=	-10.9	0.0	20.0	88.8
=	-10.8	0.0	20.0	89.4
=	-10.6	0.0	20.0	90.6
=	-10.5	0.0	20.0	91.2
=	-10.3	0.0	20.0	92.0
=	-10.1	0.0	20.0	92.8
=	-10.0	0.0	20.0	93.1
=	-9.8	0.0	20.0	93.6
=	-9.7	0.0	20.0	94.2
=	-9.6	0.0	20.0	94.5
=	-9.4	0.0	20.0	94.8
=	-9.3	0.0	20.0	95.0
=	-9.2	0.0	20.0	95.2
=	-9.0	0.0	20.0	95.5
=	-8.9	0.0	20.0	95.8
=	-8.8	0.0	20.0	96.0
=	-8.6	0.0	20.0	96.3
=	-8.5	0.0	20.0	96.6
=	-8.3	0.0	20.0	96.8
=	-8.2	0.0	20.0	97.0
=	-8.1	0.0	20.0	97.2
=	-8.0	0.0	20.0	97.3
=	-7.8	0.0	20.0	97.5
=	-7.6	0.0	20.0	97.6
=	-7.5	0.0	20.0	97.7
=	-7.4	0.0	20.0	97.8
=	-7.2	0.0	20.0	98.0
=	-7.1	0.0	20.0	98.1
=	-7.0	0.0	20.0	98.2
=	-6.9	0.0	20.0	98.4
=	-6.7	0.0	20.0	98.5
=	-6.6	0.0	20.0	98.6
=	-6.5	0.0	20.0	98.7
=	-6.3	0.0	20.0	98.8
=	-6.2	0.0	20.0	98.8
=	-5.9	0.0	20.0	99.0
=	-5.8	0.0	20.0	99.1
=	-5.7	0.0	20.0	99.1
=	-5.5	0.0	20.0	99.2
=	-5.3	0.0	20.0	99.4
=	-5.1	0.0	20.0	99.4
=	-5.0	0.0	20.0	99.5
=	-4.9	0.0	20.0	99.5
=	-4.7	0.0	20.0	99.6
=	-4.6	0.0	20.0	99.6
=	-4.4	0.0	20.0	99.6
=	-4.2	0.0	20.0	99.6
=	-4.0	0.0	20.0	99.7
=	-3.9	0.0	20.0	99.7
=	-3.8	0.0	20.0	99.7
=	-3.6	0.0	20.0	99.7
=	-3.4	0.0	20.0	99.8
=	-3.3	0.0	20.0	99.8
=	-3.0	0.0	20.0	99.8
=	-2.9	0.0	20.0	99.8
=	-2.8	0.0	20.0	99.8
=	-2.6	0.0	20.0	99.9
=	-2.4	0.0	20.0	99.9
=	-2.2	0.0	20.0	99.9
=	-2.0	0.0	20.0	99.9
=	-1.8	0.0	20.0	99.9
=	-1.7	0.0	20.0	99.9
=	-1.6	0.0	20.0	100.0
=	-1.5	0.0	20.0	100.0
=	-1.2	0.0	20.0	100.0
=	-1.1	0.0	20.0	100.0
=	-1.0	0.0	20.0	100.0
=	-0.8	0.0	20.0	100.0
=	-0.7	0.0	20.0	100.0
=	-0.5	0.0	20.0	100.0
=	-0.3	0.0	20.0	100.0
=	0.0	0.0	20.0	100.0
=	0.3	0.0	20.0	100.0
=	0.5	0.0	20.0	100.0
=	0.7	0.0	20.0	100.0
=	0.8	0.0	20.0	100.0
=	1.0	0.0	20.0	100.0
=	1.1	0.0	20.0	100.0
=	1.2	0.0	20.0	100.0
=	1.4	0.0	20.0	100.0
=	1.6	0.0	20.0	100.0
=	1.7	0.0	20.0	99.9
=	1.8	0.0	20.0	99.9
=	2.0	0.0	20.0	99.9
=	2.2	0.0	20.0	99.9
=	2.4	0.0	20.0	99.9
=	2.6	0.0	20.0	99.9
=	2.8	0.0	20.0	99.8
=	2.9	0.0	20.0	99.8
=	3.0	0.0	20.0	99.8
=	3.2	0.0	20.0	99.8
=	3.4	0.0	20.0	99.8
=	3.6	0.0	20.0	99.7
=	3.7	0.0	20.0	99.7
=	3.8	0.0	20.0	99.7
=	4.0	0.0	20.0	99.7
=	4.2	0.0	20.0	99.6
=	4.3	0.0	20.0	99.6
=	4.6	0.0	20.0	99.6
=	4.7	0.0	20.0	99.6
=	4.8	0.0	20.0	99.5
=	5.0	0.0	20.0	99.5
=	5.1	0.0	20.0	99.4
=	5.2	0.0	20.0	99.4
=	5.4	0.0	20.0	99.3
=	5.7	0.0	20.0	99.1
=	5.8	0.0	20.0	99.1
=	5.9	0.0	20.0	99.0
=	6.1	0.0	20.0	98.9
=	6.2	0.0	20.0	98.8
=	6.5	0.0	20.0	98.7
=	6.6	0.0	20.0	98.6
=	6.7	0.0	20.0	98.5
=	6.9	0.0	20.0	98.4
=	7.0	0.0	20.0	98.2
=	7.1	0.0	20.0	98.1
=	7.2	0.0	20.0	98.0
=	7.3	0.0	20.0	97.9
=	7.5	0.0	20.0	97.7
=	7.6	0.0	20.0	97.6
=	7.8	0.0	20.0	97.5
=	8.0	0.0	20.0	97.3
=	8.1	0.0	20.0	97.2
=	8.2	0.0	20.0	97.0
=	8.3	0.0	20.0	96.8
=	8.5	0.0	20.0	96.6
=	8.6	0.0	20.0	96.3
=	8.7	0.0	20.0	96.1
=	8.9	0.0	20.0	95.8
=	9.0	0.0	20.0	95.5
=	9.2	0.0	20.0	95.2
=	9.3	0.0	20.0	95.0
=	9.4	0.0	20.0	94.8
=	9.6	0.0	20.0	94.5
=	9.7	0.0	20.0	94.2
=	9.8	0.0	20.0	93.8
=	9.9	0.0	20.0	93.3
=	10.1	0.0	20.0	92.8
=	10.2	0.0	20.0	92.3
=	10.4	0.0	20.0	91.6
=	10.6	0.0	20.0	90.6
=	10.8	0.0	20.0	89.8
=	10.9	0.0	20.0	89.0
=	11.2	0.0	20.0	87.4
=	11.3	0.0	20.0	86.3
=	11.5	0.0	20.0	85.1
=	11.7	0.0	20.0	83.5
=	11.9	0.0	20.0	82.1
=	12.0	0.0	20.0	81.0
=	12.3	0.0	20.0	78.9
=	12.5	0.0	20.0	77.2
=	12.6	0.0	20.0	76.2
=	12.7	0.0	20.0	74.6
=	12.9	0.0	20.0	73.0
=	13.1	0.0	20.0	70.1
=	13.3	0.0	20.0	68.6
=	13.4	0.0	20.0	66.9
=	13.7	0.0	20.0	63.7
=	13.9	0.0	20.0	61.3
=	14.1	0.0	20.0	59.1
=	14.3	0.0	20.0	56.3
=	14.5	0.0	20.0	54.1
=	14.7	0.0	20.0	52.2
=	14.9	0.0	20.0	49.8
=	15.1	0.0	20.0	46.4
=	15.3	0.0	20.0	44.0
=	15.5	0.0	20.0	41.5
=	15.7	0.0	20.0	39.4
=	15.9	0.0	20.0	37.0
=	16.0	0.0	20.0	35.8
=	16.2	0.0	20.0	34.0
=	16.3	0.0	20.0	32.7
=	16.6	0.0	20.0	29.5
=	16.8	0.0	20.0	27.4
=	17.0	0.0	20.0	25.2
=	17.2	0.0	20.0	23.7
=	17.4	0.0	20.0	22.4
=	17.5	0.0	20.0	21.4
=	17.7	0.0	20.0	19.3
=	17.8	0.0	20.0	18.5
=	18.0	0.0	20.0	17.4
=	18.2	0.0	20.0	15.9
=	18.3	0.0	20.0	14.8
=	18.5	0.0	20.0	13.5
=	18.7	0.0	20.0	12.7
=	18.9	0.0	20.0	11.9
=	19.0	0.0	20.0	11.2
=	19.1	0.0	20.0	10.8
=	19.3	0.0	20.0	9.9
=	19.5	0.0	20.0	9.2
=	19.7	0.0	20.0	8.7
=	19.8	0.0	20.0	8.3
=	19.9	0.0	20.0	8.0
=	20.1	0.0	20.0	7.5
=	20.3	0.0	20.0	7.2
=	20.5	0.0	20.0	6.7
=	20.7	0.0	20.0	6.4
=	20.8	0.0	20.0	6.1
=	21.1	0.0	20.0	5.7
=	21.2	0.0	20.0	5.5
=	21.3	0.0	20.0	5.2
=	21.5	0.0	20.0	5.1
=	21.6	0.0	20.0	4.9
=	21.8	0.0	20.0	4.6
=	21.9	0.0	20.0	4.5
=	22.0	0.0	20.0	4.4
=	22.1	0.0	20.0	4.3
=	22.4	0.0	20.0	4.1
=	22.6	0.0	20.0	3.9
=	22.8	0.0	20.0	3.7
=	22.9	0.0	20.0	3.6
=	23.1	0.0	20.0	3.4
=	23.3	0.0	20.0	3.3
=	23.4	0.0	20.0	3.2
=	23.6	0.0	20.0	3.2
=	23.7	0.0	20.0	3.1
=	23.8	0.0	20.0	3.0
=	24.0	0.0	20.0	2.9
=	24.1	0.0	20.0	2.8
=	24.2	0.0	20.0	2.8
=	24.4	0.0	20.0	2.7
=	24.5	0.0	20.0	2.7
=	24.6	0.0	20.0	2.6
=	24.8	0.0	20.0	2.5
=	25.0	0.0	20.0	2.4
=	25.2	0.0	20.0	2.4
=	25.4	0.0	20.0	2.3
=	25.6	0.0	20.0	2.2
=	25.9	0.0	20.0	2.2
=	26.1	0.0	20.0	2.1
=	26.3	0.0	20.0	2.1
=	26.5	0.0	20.0	2.0
=	26.7	0.0	20.0	2.0
=	26.9	0.0	20.0	1.9
=	27.0	0.0	20.0	1.9
=	27.1	0.0	20.0	1.9
=	27.3	0.0	20.0	1.9
=	27.5	0.0	20.0	1.8
=	27.6	0.0	20.0	1.8
=	27.8	0.0	20.0	1.8
=	28.0	0.0	20.0	1.7
=	28.1	0.0	20.0	1.7
=	28.3	0.0	20.0	1.7
=	28.4	0.0	20.0	1.7
=	28.5	0.0	20.0	1.6
=	28.6	0.0	20.0	1.6
=	28.8	0.0	20.0	1.6
=	29.0	0.0	20.0	1.6
=	29.1	0.0	20.0	1.6
=	29.2	0.0	20.0	1.6
=	29.4	0.0	20.0	1.6
=	29.5	0.0	20.0	1.5
=	29.6	0.0	20.0	1.5
=	29.8	0.0	20.0	1.5
=	30.0	0.0	20.0	1.5
=	30.2	0.0	20.0	1.4
=	30.4	0.0	20.0	1.4
=	30.6	0.0	20.0	1.4
=	30.8	0.0	20.0	1.4
=	31.0	0.0	20.0	1.4
=	31.1	0.0	20.0	1.4
=	31.2	0.0	20.0	1.4
=	31.4	0.0	20.0	1.4
=	31.5	0.0	20.0	1.3
=	31.8	0.0	20.0	1.3
=	32.0	0.0	20.0	1.3
=	32.2	0.0	20.0	1.3
=	32.3	0.0	20.0	1.3
=	32.4	0.0	20.0	1.3
=	32.6	0.0	20.0	1.3
=	32.7	0.0	20.0	1.2
=	32.9	0.0	20.0	1.2
=	33.0	0.0	20.0	1.2
=	33.2	0.0	20.0	1.2
=	33.3	0.0	20.0	1.2
=	33.4	0.0	20.0	1.2
=	33.6	0.0	20.0	1.2
=	33.7	0.0	20.0	1.2
=	33.9	0.0	20.0	1.2
=	34.0	0.0	20.0	1.2
=	34.1	0.0	20.0	1.2
=	34.3	0.0	20.0	1.1
=	34.4	0.0	20.0	1.1
=	34.6	0.0	20.0	1.1
=	34.7	0.0	20.0	1.1
=	34.8	0.0	20.0	1.1
=	35.1	0.0	20.0	1.1
=	35.2	0.0	20.0	1.1
=	35.4	0.0	20.0	1.1
=	35.6	0.0	20.0	1.1
=	35.9	0.0	20.0	1.1
=	36.1	0.0	20.0	1.1
=	36.3	0.0	20.0	1.0
=	36.5	0.0	20.0	1.0
=	36.6	0.0	20.0	1.0
=	36.7	0.0	20.0	1.0
=	36.9	0.0	20.0	1.0
=	37.1	0.0	20.0	1.0
=	37.2	0.0	20.0	1.0
=	37.6	0.0	20.0	1.0
=	37.7	0.0	20.0	1.0
=	37.9	0.0	20.0	1.0
=	38.1	0.0	20.0	1.0
=	38.3	0.0	20.0	1.0
=	38.5	0.0	20.0	1.0
=	38.6	0.0	20.0	0.9
=	38.8	0.0	20.0	0.9
=	38.9	0.0	20.0	0.9
=	39.1	0.0	20.0	0.9
=	39.2	0.0	20.0	0.9
=	39.5	0.0	20.0	0.9
=	39.7	0.0	20.0	0.9
=	40.0	0.0	20.0	0.9
=	40.1	0.0	20.0	0.9
=	40.2	0.0	20.0	0.9
=	40.4	0.0	20.0	0.9
=	40.5	0.0	20.0	0.9
=	40.7	0.0	20.0	0.9
=	40.9	0.0	20.0	0.9
=	41.1	0.0	20.0	0.8
=	41.2	0.0	20.0	0.8
=	41.6	0.0	20.0	0.8
=	41.7	0.0	20.0	0.8
=	42.0	0.0	20.0	0.8
=	42.1	0.0	20.0	0.8
=	42.3	0.0	20.0	0.8
=	42.4	0.0	20.0	0.8
=	42.5	0.0	20.0	0.8
=	42.7	0.0	20.0	0.8
=	42.8	0.0	20.0	0.8
=	42.9	0.0	20.0	0.8
=	43.2	0.0	20.0	0.8
=	43.3	0.0	20.0	0.8
=	43.4	0.0	20.0	0.8
=	43.6	0.0	20.0	0.8
=	43.7	0.0	20.0	0.8
=	44.0	0.0	20.0	0.8
=	44.2	0.0	20.0	0.8
=	44.4	0.0	20.0	0.8
=	44.6	0.0	20.0	0.8
=	44.8	0.0	20.0	0.8
=	45.0	0.0	20.0	0.8
=	45.1	0.0	20.0	0.8
=	45.3	0.0	20.0	0.7
=	45.4	0.0	20.0	0.7
=	45.6	0.0	20.0	0.7
=	45.8	0.0	20.0	0.7
=	46.0	0.0	20.0	0.7
=	46.2	0.0	20.0	0.7
=	46.3	0.0	20.0	0.7
=	46.4	0.0	20.0	0.7
=	46.6	0.0	20.0	0.7
=	46.8	0.0	20.0	0.7
=	47.0	0.0	20.0	0.7
=	47.2	0.0	20.0	0.7
=	47.3	0.0	20.0	0.7
=	47.4	0.0	20.0	0.7
=	47.6	0.0	20.0	0.7
=	47.8	0.0	20.0	0.7
=	48.0	0.0	20.0	0.7
=	48.1	0.0	20.0	0.7
=	48.3	0.0	20.0	0.7
=	48.4	0.0	20.0	0.7
=	48.5	0.0	20.0	0.7
=	48.7	0.0	20.0	0.7
=	48.8	0.0	20.0	0.7
=	49.1	0.0	20.0	0.7
=	49.3	0.0	20.0	0.7
=	49.5	0.0	20.0	0.7
=	49.7	0.0	20.0	0.7
=	50.0	0.0	20.0	0.7
=	50.1	0.0	20.0	0.7
=	50.3	0.0	20.0	0.7
=	50.5	0.0	20.0	0.7
=	50.7	0.0	20.0	0.7
=	50.8	0.0	20.0	0.7
=	50.9	0.0	20.0	0.7
=	51.2	0.0	20.0	0.6
=	51.3	0.0	20.0	0.6
=	51.5	0.0	20.0	0.6
=	51.6	0.0	20.0	0.6
=	51.7	0.0	20.0	0.6
=	51.9	0.0	20.0	0.6
=	52.0	0.0	20.0	0.6
=	52.2	0.0	20.0	0.6
=	52.3	0.0	20.0	0.6
=	52.4	0.0	20.0	0.6
=	52.6	0.0	20.0	0.6
=	52.7	0.0	20.0	0.6
=	52.8	0.0	20.0	0.6
=	53.0	0.0	20.0	0.6
=	53.1	0.0	20.0	0.6
=	53.2	0.0	20.0	0.6
=	53.4	0.0	20.0	0.6
=	53.6	0.0	20.0	0.6
=	53.7	0.0	20.0	0.6
=	53.9	0.0	20.0	0.6
=	54.0	0.0	20.0	0.6
=	54.2	0.0	20.0	0.6
=	54.3	0.0	20.0	0.6
=	54.4	0.0	20.0	0.6
=	54.6	0.0	20.0	0.6
=	54.8	0.0	20.0	0.6
=	54.9	0.0	20.0	0.6
=	55.0	0.0	20.0	0.6
=	55.2	0.0	20.0	0.6
=	55.3	0.0	20.0	0.6
=	55.4	0.0	20.0	0.6
=	55.7	0.0	20.0	0.6
=	55.8	0.0	20.0	0.6
=	55.9	0.0	20.0	0.6
=	56.1	0.0	20.0	0.6
=	56.2	0.0	20.0	0.6
=	56.3	0.0	20.0	0.6
=	56.5	0.0	20.0	0.6
=	56.7	0.0	20.0	0.6
=	56.9	0.0	20.0	0.6
=	57.1	0.0	20.0	0.6
=	57.3	0.0	20.0	0.6
=	57.4	0.0	20.0	0.6
=	57.5	0.0	20.0	0.6
=	57.7	0.0	20.0	0.6
=	57.9	0.0	20.0	0.6
=	58.1	0.0	20.0	0.6
=	58.3	0.0	20.0	0.6
=	58.4	0.0	20.0	0.6
=	58.5	0.0	20.0	0.6
=	58.6	0.0	20.0	0.6
=	58.8	0.0	20.0	0.6
=	58.9	0.0	20.0	0.6
=	59.2	0.0	20.0	0.6
=	59.3	0.0	20.0	0.6
=	59.4	0.0	20.0	0.6
=	59.6	0.0	20.0	0.6
=	59.8	0.0	20.0	0.5
=	59.9	0.0	20.0	0.5
=	60.2	0.0	20.0	0.5
=	60.3	0.0	20.0	0.5
=	60.5	0.0	20.0	0.5
=	60.6	0.0	20.0	0.5
=	60.7	0.0	20.0	0.5
=	60.9	0.0	20.0	0.5
=	61.0	0.0	20.0	0.5
=	61.1	0.0	20.0	0.5
=	61.3	0.0	20.0	0.5
=	61.4	0.0	20.0	0.5
=	61.5	0.0	20.0	0.5
=	61.8	0.0	20.0	0.5
=	61.9	0.0	20.0	0.5
=	62.2	0.0	20.0	0.5
=	62.5	0.0	20.0	0.5
=	62.6	0.0	20.0	0.5
=	62.8	0.0	20.0	0.5
=	63.0	0.0	20.0	0.5
=	63.2	0.0	20.0	0.5
=	63.3	0.0	20.0	0.5
=	63.4	0.0	20.0	0.5
=	63.6	0.0	20.0	0.5
=	63.7	0.0	20.0	0.5
=	63.9	0.0	20.0	0.5
=	64.3	0.0	20.0	0.5
=	64.4	0.0	20.0	0.5
=	64.5	0.0	20.0	0.5
=	64.7	0.0	20.0	0.5
=	64.9	0.0	20.0	0.5
=	65.0	0.0	20.0	0.5
=	65.2	0.0	20.0	0.5
:EOM # End of Measurement
#
# RFA300 ASCII Measurement Dump ( BDS format )
#
# Measurement number 	2
#
%VNR 1.0
%MOD 	RAT
%TYP 	SCN
%SCN 	PRO
%FLD 	ION
%DAT 	02-01-2012
%TIM 	12:00:00
%FSZ 	030	030
%BMT 	PHO	   8.0
%SSD 	1000
%BUP 	0
%BRD 	1000
%FSH 	1
%ASC 	0
%WEG 	0
%GPO 	0
%CPO 	0
%MEA 	2
%PRD 	50,0
%PTS 	655
%STS 	    -65.6	  0.0	   50.0 # Start Scan values in mm ( X , Y , Z )
%EDS 	    65.5	   0.0	   50.0 # End Scan values in mm ( X , Y , Z )
#
#	  X      Y      Z     Dose
#
=	-65.6	0.0	50.0	0.6
=	-65.4	0.0	50.0	0.6
=	-65.2	0.0	50.0	0.6
=	-65.0	0.0	50.0	0.6
=	-64.8	0.0	50.0	0.6
=	-64.7	0.0	50.0	0.6
=	-64.5	0.0	50.0	0.6
=	-64.4	0.0	50.0	0.6
=	-64.3	0.0	50.0	0.6
=	-64.0	0.0	50.0	0.6
=	-63.8	0.0	50.0	0.6
=	-63.5	0.0	50.0	0.6
=	-63.4	0.0	50.0	0.6
=	-63.3	0.0	50.0	0.6
=	-63.1	0.0	50.0	0.6
=	-63.0	0.0	50.0	0.6
=	-62.8	0.0	50.0	0.6
=	-62.6	0.0	50.0	0.6
=	-62.4	0.0	50.0	0.6
=	-62.2	0.0	50.0	0.6
=	-62.0	0.0	50.0	0.6
=	-61.8	0.0	50.0	0.6
=	-61.5	0.0	50.0	0.6
=	-61.3	0.0	50.0	0.6
=	-61.2	0.0	50.0	0.6
=	-61.0	0.0	50.0	0.6
=	-60.9	0.0	50.0	0.6
=	-60.8	0.0	50.0	0.6
=	-60.6	0.0	50.0	0.6
=	-60.4	0.0	50.0	0.6
=	-60.2	0.0	50.0	0.6
=	-60.1	0.0	50.0	0.6
=	-59.9	0.0	50.0	0.6
=	-59.8	0.0	50.0	0.6
=	-59.7	0.0	50.0	0.6
=	-59.5	0.0	50.0	0.6
=	-59.4	0.0	50.0	0.6
=	-59.2	0.0	50.0	0.6
=	-59.1	0.0	50.0	0.6
=	-58.8	0.0	50.0	0.7
=	-58.7	0.0	50.0	0.7
=	-58.4	0.0	50.0	0.7
=	-58.3	0.0	50.0	0.7
=	-58.1	0.0	50.0	0.7
=	-57.9	0.0	50.0	0.7
=	-57.7	0.0	50.0	0.7
=	-57.5	0.0	50.0	0.7
=	-57.2	0.0	50.0	0.7
=	-57.1	0.0	50.0	0.7
=	-56.8	0.0	50.0	0.7
=	-56.7	0.0	50.0	0.7
=	-56.4	0.0	50.0	0.7
=	-56.2	0.0	50.0	0.7
=	-56.0	0.0	50.0	0.7
=	-55.9	0.0	50.0	0.7
=	-55.7	0.0	50.0	0.7
=	-55.4	0.0	50.0	0.7
=	-55.2	0.0	50.0	0.7
=	-55.0	0.0	50.0	0.7
=	-54.8	0.0	50.0	0.7
=	-54.7	0.0	50.0	0.7
=	-54.4	0.0	50.0	0.7
=	-54.2	0.0	50.0	0.7
=	-54.0	0.0	50.0	0.7
=	-53.8	0.0	50.0	0.7
=	-53.7	0.0	50.0	0.7
=	-53.6	0.0	50.0	0.7
=	-53.4	0.0	50.0	0.7
=	-53.2	0.0	50.0	0.7
=	-53.0	0.0	50.0	0.7
=	-52.7	0.0	50.0	0.7
=	-52.6	0.0	50.0	0.7
=	-52.3	0.0	50.0	0.8
=	-52.1	0.0	50.0	0.8
=	-51.9	0.0	50.0	0.8
=	-51.7	0.0	50.0	0.8
=	-51.6	0.0	50.0	0.8
=	-51.4	0.0	50.0	0.8
=	-51.3	0.0	50.0	0.8
=	-51.1	0.0	50.0	0.8
=	-51.0	0.0	50.0	0.8
=	-50.9	0.0	50.0	0.8
=	-50.7	0.0	50.0	0.8
=	-50.5	0.0	50.0	0.8
=	-50.3	0.0	50.0	0.8
=	-50.1	0.0	50.0	0.8
=	-49.8	0.0	50.0	0.8
=	-49.6	0.0	50.0	0.8
=	-49.4	0.0	50.0	0.8
=	-49.2	0.0	50.0	0.8
=	-49.1	0.0	50.0	0.8
=	-48.8	0.0	50.0	0.8
=	-48.6	0.0	50.0	0.8
=	-48.4	0.0	50.0	0.8
=	-48.2	0.0	50.0	0.8
=	-48.1	0.0	50.0	0.8
=	-47.8	0.0	50.0	0.9
=	-47.6	0.0	50.0	0.9
=	-47.4	0.0	50.0	0.9
=	-47.2	0.0	50.0	0.9
=	-47.0	0.0	50.0	0.9
=	-46.8	0.0	50.0	0.9
=	-46.7	0.0	50.0	0.9
=	-46.4	0.0	50.0	0.9
=	-46.2	0.0	50.0	0.9
=	-46.1	0.0	50.0	0.9
=	-45.9	0.0	50.0	0.9
=	-45.8	0.0	50.0	0.9
=	-45.6	0.0	50.0	0.9
=	-45.4	0.0	50.0	0.9
=	-45.1	0.0	50.0	0.9
=	-45.0	0.0	50.0	0.9
=	-44.9	0.0	50.0	0.9
=	-44.7	0.0	50.0	0.9
=	-44.6	0.0	50.0	1.0
=	-44.3	0.0	50.0	1.0
=	-44.1	0.0	50.0	1.0
=	-43.9	0.0	50.0	1.0
=	-43.7	0.0	50.0	1.0
=	-43.5	0.0	50.0	1.0
=	-43.3	0.0	50.0	1.0
=	-43.1	0.0	50.0	1.0
=	-42.9	0.0	50.0	1.0
=	-42.7	0.0	50.0	1.0
=	-42.5	0.0	50.0	1.0
=	-42.4	0.0	50.0	1.0
=	-42.3	0.0	50.0	1.0
=	-42.1	0.0	50.0	1.1
=	-41.9	0.0	50.0	1.1
=	-41.7	0.0	50.0	1.1
=	-41.5	0.0	50.0	1.1
=	-41.3	0.0	50.0	1.1
=	-41.1	0.0	50.0	1.1
=	-40.9	0.0	50.0	1.1
=	-40.7	0.0	50.0	1.1
=	-40.5	0.0	50.0	1.1
=	-40.2	0.0	50.0	1.1
=	-40.1	0.0	50.0	1.1
=	-40.0	0.0	50.0	1.1
=	-39.9	0.0	50.0	1.1
=	-39.6	0.0	50.0	1.2
=	-39.5	0.0	50.0	1.2
=	-39.2	0.0	50.0	1.2
=	-39.1	0.0	50.0	1.2
=	-39.0	0.0	50.0	1.2
=	-38.6	0.0	50.0	1.2
=	-38.5	0.0	50.0	1.2
=	-38.2	0.0	50.0	1.2
=	-38.0	0.0	50.0	1.2
=	-37.8	0.0	50.0	1.2
=	-37.5	0.0	50.0	1.3
=	-37.0	0.0	50.0	1.3
=	-36.6	0.0	50.0	1.3
=	-36.5	0.0	50.0	1.3
=	-36.2	0.0	50.0	1.4
=	-35.9	0.0	50.0	1.4
=	-35.8	0.0	50.0	1.4
=	-35.4	0.0	50.0	1.4
=	-35.0	0.0	50.0	1.5
=	-34.6	0.0	50.0	1.5
=	-34.5	0.0	50.0	1.5
=	-34.2	0.0	50.0	1.5
=	-33.9	0.0	50.0	1.5
=	-33.8	0.0	50.0	1.6
=	-33.4	0.0	50.0	1.6
=	-33.3	0.0	50.0	1.6
=	-33.0	0.0	50.0	1.6
=	-32.9	0.0	50.0	1.6
=	-32.7	0.0	50.0	1.7
=	-32.5	0.0	50.0	1.7
=	-32.4	0.0	50.0	1.7
=	-32.3	0.0	50.0	1.7
=	-32.1	0.0	50.0	1.7
=	-31.9	0.0	50.0	1.8
=	-31.7	0.0	50.0	1.8
=	-31.4	0.0	50.0	1.8
=	-31.3	0.0	50.0	1.8
=	-31.0	0.0	50.0	1.9
=	-30.9	0.0	50.0	1.9
=	-30.6	0.0	50.0	1.9
=	-30.5	0.0	50.0	1.9
=	-30.2	0.0	50.0	2.0
=	-30.1	0.0	50.0	2.0
=	-29.9	0.0	50.0	2.0
=	-29.7	0.0	50.0	2.1
=	-29.4	0.0	50.0	2.1
=	-29.3	0.0	50.0	2.1
=	-29.0	0.0	50.0	2.2
=	-28.9	0.0	50.0	2.2
=	-28.6	0.0	50.0	2.3
=	-28.4	0.0	50.0	2.3
=	-28.2	0.0	50.0	2.4
=	-28.1	0.0	50.0	2.4
=	-27.9	0.0	50.0	2.4
=	-27.6	0.0	50.0	2.5
=	-27.5	0.0	50.0	2.5
=	-27.2	0.0	50.0	2.6
=	-27.1	0.0	50.0	2.7
=	-26.8	0.0	50.0	2.7
=	-26.7	0.0	50.0	2.8
=	-26.3	0.0	50.0	2.9
=	-26.2	0.0	50.0	3.0
=	-25.9	0.0	50.0	3.1
=	-25.8	0.0	50.0	3.1
=	-25.5	0.0	50.0	3.3
=	-25.4	0.0	50.0	3.4
=	-25.1	0.0	50.0	3.5
=	-24.8	0.0	50.0	3.6
=	-24.7	0.0	50.0	3.7
=	-24.4	0.0	50.0	3.9
=	-24.3	0.0	50.0	4.0
=	-23.9	0.0	50.0	4.2
=	-23.5	0.0	50.0	4.6
=	-23.4	0.0	50.0	4.7
=	-23.1	0.0	50.0	4.9
=	-22.8	0.0	50.0	5.2
=	-22.7	0.0	50.0	5.3
=	-22.6	0.0	50.0	5.4
=	-22.3	0.0	50.0	5.8
=	-22.2	0.0	50.0	5.9
=	-21.9	0.0	50.0	6.4
=	-21.6	0.0	50.0	6.8
=	-21.4	0.0	50.0	7.2
=	-21.2	0.0	50.0	7.7
=	-21.0	0.0	50.0	8.0
=	-20.8	0.0	50.0	8.5
=	-20.6	0.0	50.0	9.0
=	-20.5	0.0	50.0	9.4
=	-20.2	0.0	50.0	10.1
=	-20.0	0.0	50.0	10.7
=	-19.8	0.0	50.0	11.5
=	-19.6	0.0	50.0	12.3
=	-19.5	0.0	50.0	12.8
=	-19.4	0.0	50.0	13.2
=	-19.2	0.0	50.0	14.0
=	-19.0	0.0	50.0	15.3
=	-18.5	0.0	50.0	18.3
=	-18.1	0.0	50.0	21.5
=	-18.0	0.0	50.0	22.3
=	-17.7	0.0	50.0	24.8
=	-17.5	0.0	50.0	26.5
=	-17.3	0.0	50.0	28.5
=	-17.0	0.0	50.0	31.1
=	-16.9	0.0	50.0	32.3
=	-16.5	0.0	50.0	35.9
=	-16.3	0.0	50.0	38.2
=	-16.1	0.0	50.0	40.4
=	-15.7	0.0	50.0	45.3
=	-15.6	0.0	50.0	46.7
=	-15.3	0.0	50.0	50.2
=	-15.0	0.0	50.0	53.2
=	-14.9	0.0	50.0	54.6
=	-14.6	0.0	50.0	57.7
=	-14.5	0.0	50.0	59.0
=	-14.3	0.0	50.0	61.8
=	-14.1	0.0	50.0	64.2
=	-13.9	0.0	50.0	66.2
=	-13.8	0.0	50.0	67.4
=	-13.6	0.0	50.0	69.0
=	-13.5	0.0	50.0	70.3
=	-13.3	0.0	50.0	72.8
=	-13.1	0.0	50.0	74.2
=	-12.8	0.0	50.0	76.8
=	-12.7	0.0	50.0	77.8
=	-12.5	0.0	50.0	80.4
=	-12.3	0.0	50.0	82.0
=	-12.1	0.0	50.0	83.2
=	-11.8	0.0	50.0	85.4
=	-11.6	0.0	50.0	86.8
=	-11.3	0.0	50.0	88.4
=	-11.2	0.0	50.0	89.1
=	-11.0	0.0	50.0	90.2
=	-10.8	0.0	50.0	91.1
=	-10.5	0.0	50.0	92.1
=	-10.3	0.0	50.0	92.7
=	-10.2	0.0	50.0	93.1
=	-10.0	0.0	50.0	93.7
=	-9.7	0.0	50.0	94.3
=	-9.5	0.0	50.0	94.7
=	-9.3	0.0	50.0	95.2
=	-9.1	0.0	50.0	95.5
=	-8.9	0.0	50.0	95.9
=	-8.7	0.0	50.0	96.1
=	-8.5	0.0	50.0	96.5
=	-8.3	0.0	50.0	96.7
=	-8.2	0.0	50.0	96.9
=	-8.0	0.0	50.0	97.1
=	-7.9	0.0	50.0	97.3
=	-7.7	0.0	50.0	97.5
=	-7.4	0.0	50.0	97.7
=	-7.2	0.0	50.0	97.8
=	-7.0	0.0	50.0	98.0
=	-6.8	0.0	50.0	98.3
=	-6.6	0.0	50.0	98.4
=	-6.4	0.0	50.0	98.6
=	-6.3	0.0	50.0	98.7
=	-5.9	0.0	50.0	98.9
=	-5.8	0.0	50.0	98.9
=	-5.7	0.0	50.0	99.0
=	-5.6	0.0	50.0	99.0
=	-5.4	0.0	50.0	99.1
=	-5.2	0.0	50.0	99.2
=	-5.0	0.0	50.0	99.2
=	-4.8	0.0	50.0	99.3
=	-4.6	0.0	50.0	99.3
=	-4.3	0.0	50.0	99.4
=	-4.2	0.0	50.0	99.4
=	-3.9	0.0	50.0	99.6
=	-3.8	0.0	50.0	99.6
=	-3.6	0.0	50.0	99.7
=	-3.5	0.0	50.0	99.7
=	-3.1	0.0	50.0	99.7
=	-3.0	0.0	50.0	99.8
=	-2.7	0.0	50.0	99.8
=	-2.6	0.0	50.0	99.8
=	-2.3	0.0	50.0	99.9
=	-2.2	0.0	50.0	99.9
=	-1.9	0.0	50.0	99.9
=	-1.8	0.0	50.0	99.9
=	-1.6	0.0	50.0	99.9
=	-1.5	0.0	50.0	99.9
=	-1.4	0.0	50.0	100.0
=	-1.1	0.0	50.0	100.0
=	-0.9	0.0	50.0	100.0
=	-0.7	0.0	50.0	100.0
=	-0.6	0.0	50.0	100.0
=	-0.2	0.0	50.0	100.0
=	-0.1	0.0	50.0	100.0
=	0.2	0.0	50.0	100.0
=	0.4	0.0	50.0	100.0
=	0.6	0.0	50.0	100.0
=	0.7	0.0	50.0	100.0
=	0.9	0.0	50.0	100.0
=	1.1	0.0	50.0	100.0
=	1.4	0.0	50.0	100.0
=	1.8	0.0	50.0	99.9
=	1.9	0.0	50.0	99.9
=	2.2	0.0	50.0	99.9
=	2.3	0.0	50.0	99.9
=	2.5	0.0	50.0	99.9
=	2.6	0.0	50.0	99.9
=	2.7	0.0	50.0	99.9
=	2.9	0.0	50.0	99.8
=	3.1	0.0	50.0	99.8
=	3.4	0.0	50.0	99.7
=	3.6	0.0	50.0	99.7
=	3.8	0.0	50.0	99.6
=	3.9	0.0	50.0	99.5
=	4.2	0.0	50.0	99.5
=	4.3	0.0	50.0	99.4
=	4.5	0.0	50.0	99.4
=	4.8	0.0	50.0	99.4
=	4.9	0.0	50.0	99.3
=	5.2	0.0	50.0	99.3
=	5.4	0.0	50.0	99.1
=	5.6	0.0	50.0	99.1
=	5.8	0.0	50.0	99.0
=	5.9	0.0	50.0	98.9
=	6.3	0.0	50.0	98.8
=	6.4	0.0	50.0	98.7
=	6.6	0.0	50.0	98.6
=	6.8	0.0	50.0	98.4
=	6.9	0.0	50.0	98.3
=	7.0	0.0	50.0	98.2
=	7.2	0.0	50.0	98.0
=	7.4	0.0	50.0	97.8
=	7.6	0.0	50.0	97.6
=	7.9	0.0	50.0	97.3
=	8.0	0.0	50.0	97.1
=	8.1	0.0	50.0	97.0
=	8.3	0.0	50.0	96.7
=	8.5	0.0	50.0	96.5
=	8.7	0.0	50.0	96.2
=	8.9	0.0	50.0	95.9
=	9.1	0.0	50.0	95.4
=	9.3	0.0	50.0	95.0
=	9.5	0.0	50.0	94.5
=	9.7	0.0	50.0	94.1
=	9.8	0.0	50.0	93.6
=	10.0	0.0	50.0	93.3
=	10.1	0.0	50.0	92.8
=	10.3	0.0	50.0	92.3
=	10.5	0.0	50.0	91.5
=	10.8	0.0	50.0	90.5
=	11.0	0.0	50.0	89.7
=	11.2	0.0	50.0	88.5
=	11.3	0.0	50.0	87.9
=	11.6	0.0	50.0	86.4
=	11.7	0.0	50.0	85.7
=	11.8	0.0	50.0	84.9
=	12.1	0.0	50.0	82.9
=	12.2	0.0	50.0	81.9
=	12.5	0.0	50.0	80.1
=	12.6	0.0	50.0	78.6
=	12.8	0.0	50.0	76.6
=	13.0	0.0	50.0	74.8
=	13.3	0.0	50.0	72.6
=	13.5	0.0	50.0	70.4
=	13.6	0.0	50.0	68.7
=	13.9	0.0	50.0	66.2
=	14.0	0.0	50.0	64.2
=	14.3	0.0	50.0	61.3
=	14.5	0.0	50.0	59.6
=	14.6	0.0	50.0	58.5
=	14.7	0.0	50.0	57.0
=	14.9	0.0	50.0	54.5
=	15.1	0.0	50.0	52.7
=	15.3	0.0	50.0	50.2
=	15.6	0.0	50.0	47.2
=	15.7	0.0	50.0	45.8
=	16.1	0.0	50.0	41.1
=	16.5	0.0	50.0	36.2
=	16.9	0.0	50.0	32.2
=	17.1	0.0	50.0	29.8
=	17.3	0.0	50.0	28.2
=	17.6	0.0	50.0	25.3
=	17.7	0.0	50.0	24.4
=	18.1	0.0	50.0	21.3
=	18.4	0.0	50.0	18.7
=	18.6	0.0	50.0	17.4
=	18.9	0.0	50.0	15.7
=	19.1	0.0	50.0	14.3
=	19.2	0.0	50.0	13.8
=	19.4	0.0	50.0	13.0
=	19.6	0.0	50.0	12.0
=	19.8	0.0	50.0	11.3
=	20.0	0.0	50.0	10.5
=	20.2	0.0	50.0	10.1
=	20.4	0.0	50.0	9.4
=	20.6	0.0	50.0	8.8
=	20.8	0.0	50.0	8.3
=	21.0	0.0	50.0	8.0
=	21.2	0.0	50.0	7.5
=	21.5	0.0	50.0	6.9
=	21.7	0.0	50.0	6.6
=	21.9	0.0	50.0	6.2
=	22.0	0.0	50.0	6.1
=	22.2	0.0	50.0	5.9
=	22.3	0.0	50.0	5.7
=	22.5	0.0	50.0	5.4
=	22.7	0.0	50.0	5.3
=	23.0	0.0	50.0	5.0
=	23.1	0.0	50.0	4.9
=	23.4	0.0	50.0	4.6
=	23.5	0.0	50.0	4.5
=	23.7	0.0	50.0	4.3
=	23.8	0.0	50.0	4.3
=	24.2	0.0	50.0	4.0
=	24.6	0.0	50.0	3.8
=	24.7	0.0	50.0	3.7
=	25.0	0.0	50.0	3.5
=	25.1	0.0	50.0	3.5
=	25.2	0.0	50.0	3.4
=	25.4	0.0	50.0	3.3
=	25.5	0.0	50.0	3.3
=	25.7	0.0	50.0	3.2
=	25.9	0.0	50.0	3.1
=	26.1	0.0	50.0	3.0
=	26.2	0.0	50.0	3.0
=	26.3	0.0	50.0	2.9
=	26.5	0.0	50.0	2.9
=	26.7	0.0	50.0	2.8
=	26.9	0.0	50.0	2.7
=	27.1	0.0	50.0	2.7
=	27.2	0.0	50.0	2.6
=	27.5	0.0	50.0	2.5
=	27.6	0.0	50.0	2.5
=	27.8	0.0	50.0	2.5
=	28.1	0.0	50.0	2.4
=	28.2	0.0	50.0	2.4
=	28.4	0.0	50.0	2.3
=	28.5	0.0	50.0	2.3
=	28.7	0.0	50.0	2.3
=	28.8	0.0	50.0	2.2
=	28.9	0.0	50.0	2.2
=	29.2	0.0	50.0	2.1
=	29.4	0.0	50.0	2.1
=	29.7	0.0	50.0	2.1
=	29.8	0.0	50.0	2.0
=	30.0	0.0	50.0	2.0
=	30.2	0.0	50.0	2.0
=	30.6	0.0	50.0	1.9
=	30.8	0.0	50.0	1.9
=	30.9	0.0	50.0	1.9
=	31.0	0.0	50.0	1.9
=	31.3	0.0	50.0	1.8
=	31.4	0.0	50.0	1.8
=	31.7	0.0	50.0	1.8
=	31.8	0.0	50.0	1.7
=	32.1	0.0	50.0	1.7
=	32.3	0.0	50.0	1.7
=	32.5	0.0	50.0	1.7
=	32.7	0.0	50.0	1.7
=	32.8	0.0	50.0	1.6
=	33.0	0.0	50.0	1.6
=	33.3	0.0	50.0	1.6
=	33.4	0.0	50.0	1.6
=	33.8	0.0	50.0	1.6
=	34.2	0.0	50.0	1.5
=	34.6	0.0	50.0	1.5
=	34.8	0.0	50.0	1.4
=	35.0	0.0	50.0	1.4
=	35.1	0.0	50.0	1.4
=	35.3	0.0	50.0	1.4
=	35.5	0.0	50.0	1.4
=	35.7	0.0	50.0	1.4
=	35.9	0.0	50.0	1.4
=	36.2	0.0	50.0	1.3
=	36.3	0.0	50.0	1.3
=	36.6	0.0	50.0	1.3
=	36.7	0.0	50.0	1.3
=	36.8	0.0	50.0	1.3
=	37.0	0.0	50.0	1.3
=	37.1	0.0	50.0	1.3
=	37.4	0.0	50.0	1.3
=	37.6	0.0	50.0	1.2
=	37.8	0.0	50.0	1.2
=	38.0	0.0	50.0	1.2
=	38.2	0.0	50.0	1.2
=	38.4	0.0	50.0	1.2
=	38.6	0.0	50.0	1.2
=	38.8	0.0	50.0	1.2
=	38.9	0.0	50.0	1.2
=	39.1	0.0	50.0	1.2
=	39.2	0.0	50.0	1.2
=	39.4	0.0	50.0	1.2
=	39.5	0.0	50.0	1.2
=	39.6	0.0	50.0	1.2
=	39.9	0.0	50.0	1.1
=	40.1	0.0	50.0	1.1
=	40.2	0.0	50.0	1.1
=	40.4	0.0	50.0	1.1
=	40.5	0.0	50.0	1.1
=	40.7	0.0	50.0	1.1
=	40.8	0.0	50.0	1.1
=	41.1	0.0	50.0	1.1
=	41.2	0.0	50.0	1.1
=	41.4	0.0	50.0	1.1
=	41.5	0.0	50.0	1.1
=	41.7	0.0	50.0	1.1
=	41.9	0.0	50.0	1.1
=	42.0	0.0	50.0	1.1
=	42.3	0.0	50.0	1.1
=	42.4	0.0	50.0	1.0
=	42.7	0.0	50.0	1.0
=	42.8	0.0	50.0	1.0
=	43.0	0.0	50.0	1.0
=	43.3	0.0	50.0	1.0
=	43.4	0.0	50.0	1.0
=	43.7	0.0	50.0	1.0
=	43.8	0.0	50.0	1.0
=	44.0	0.0	50.0	1.0
=	44.1	0.0	50.0	1.0
=	44.2	0.0	50.0	1.0
=	44.5	0.0	50.0	1.0
=	44.6	0.0	50.0	1.0
=	44.9	0.0	50.0	0.9
=	45.0	0.0	50.0	0.9
=	45.3	0.0	50.0	0.9
=	45.4	0.0	50.0	0.9
=	45.7	0.0	50.0	0.9
=	45.8	0.0	50.0	0.9
=	46.0	0.0	50.0	0.9
=	46.1	0.0	50.0	0.9
=	46.2	0.0	50.0	0.9
=	46.5	0.0	50.0	0.9
=	46.7	0.0	50.0	0.9
=	46.9	0.0	50.0	0.9
=	47.4	0.0	50.0	0.9
=	47.5	0.0	50.0	0.9
=	47.8	0.0	50.0	0.9
=	48.0	0.0	50.0	0.9
=	48.2	0.0	50.0	0.8
=	48.5	0.0	50.0	0.8
=	49.0	0.0	50.0	0.8
=	49.4	0.0	50.0	0.8
=	49.5	0.0	50.0	0.8
=	49.8	0.0	50.0	0.8
=	50.0	0.0	50.0	0.8
=	50.2	0.0	50.0	0.8
=	50.5	0.0	50.0	0.8
=	50.6	0.0	50.0	0.8
=	51.0	0.0	50.0	0.8
=	51.4	0.0	50.0	0.8
=	51.6	0.0	50.0	0.8
=	51.9	0.0	50.0	0.8
=	52.0	0.0	50.0	0.8
=	52.3	0.0	50.0	0.7
=	52.5	0.0	50.0	0.7
=	52.7	0.0	50.0	0.7
=	53.0	0.0	50.0	0.7
=	53.1	0.0	50.0	0.7
=	53.4	0.0	50.0	0.7
=	53.5	0.0	50.0	0.7
=	53.8	0.0	50.0	0.7
=	54.0	0.0	50.0	0.7
=	54.1	0.0	50.0	0.7
=	54.2	0.0	50.0	0.7
=	54.3	0.0	50.0	0.7
=	54.6	0.0	50.0	0.7
=	54.7	0.0	50.0	0.7
=	55.0	0.0	50.0	0.7
=	55.2	0.0	50.0	0.7
=	55.4	0.0	50.0	0.7
=	55.6	0.0	50.0	0.7
=	55.8	0.0	50.0	0.7
=	56.0	0.0	50.0	0.7
=	56.1	0.0	50.0	0.7
=	56.2	0.0	50.0	0.7
=	56.4	0.0	50.0	0.7
