:MSR 	1	 # No. of measurement in file
:SYS BDS 0   # Beam Data Scanner System
#
# RFA300 ASCII Measurement Dump ( BDS format )
#
# Measurement number 	1
#
%VNR 1.0
%MOD 	RAT
%TYP 	SCN
%SCN 	PRO
%FLD 	ION
%DAT 	10-12-2011
%TIM 	12:00:00
%FSZ 	400	400
%BMT 	ELE	   6.0
%SSD 	
%BUP 	0
%BRD 	
%FSH 	1
%ASC 	0
%WEG 	0
%GPO 	0
%CPO 	0
%MEA 	2
%PRD 	0,0
%PTS 	813
%STS 	    0.0	  -236.3	   0.0 # Start Scan values in mm ( X , Y , Z )
%EDS 	    0.0	   235.9	   0.0 # End Scan values in mm ( X , Y , Z )
#
#	  X      Y      Z     Dose
#
=	0.0	-236.3	0.0	15.8
=	0.0	-235.7	0.0	16.2
=	0.0	-235.1	0.0	16.5
=	0.0	-234.6	0.0	16.9
=	0.0	-234.1	0.0	17.2
=	0.0	-233.5	0.0	17.6
=	0.0	-232.9	0.0	18.1
=	0.0	-232.3	0.0	18.5
=	0.0	-231.7	0.0	19.0
=	0.0	-231.1	0.0	19.5
=	0.0	-230.6	0.0	19.8
=	0.0	-230.2	0.0	20.2
=	0.0	-229.7	0.0	20.5
=	0.0	-229.2	0.0	20.9
=	0.0	-228.7	0.0	21.4
=	0.0	-228.1	0.0	21.9
=	0.0	-227.6	0.0	22.2
=	0.0	-227.1	0.0	22.7
=	0.0	-226.5	0.0	23.3
=	0.0	-225.9	0.0	23.8
=	0.0	-225.3	0.0	24.3
=	0.0	-224.8	0.0	24.7
=	0.0	-224.4	0.0	25.1
=	0.0	-223.8	0.0	25.7
=	0.0	-223.2	0.0	26.2
=	0.0	-222.6	0.0	26.9
=	0.0	-222.0	0.0	27.5
=	0.0	-221.4	0.0	28.1
=	0.0	-220.8	0.0	28.7
=	0.0	-220.2	0.0	29.3
=	0.0	-219.7	0.0	29.8
=	0.0	-219.2	0.0	30.4
=	0.0	-218.6	0.0	31.1
=	0.0	-218.0	0.0	31.7
=	0.0	-217.6	0.0	32.2
=	0.0	-217.1	0.0	32.7
=	0.0	-216.6	0.0	33.3
=	0.0	-216.0	0.0	34.0
=	0.0	-215.5	0.0	34.5
=	0.0	-215.1	0.0	35.0
=	0.0	-214.7	0.0	35.5
=	0.0	-214.2	0.0	36.2
=	0.0	-213.6	0.0	36.9
=	0.0	-212.9	0.0	37.6
=	0.0	-212.5	0.0	38.2
=	0.0	-212.0	0.0	38.7
=	0.0	-211.6	0.0	39.2
=	0.0	-211.2	0.0	39.7
=	0.0	-210.8	0.0	40.2
=	0.0	-210.3	0.0	40.8
=	0.0	-209.7	0.0	41.5
=	0.0	-209.1	0.0	42.3
=	0.0	-208.5	0.0	43.1
=	0.0	-207.9	0.0	43.8
=	0.0	-207.3	0.0	44.6
=	0.0	-206.7	0.0	45.4
=	0.0	-206.1	0.0	46.1
=	0.0	-205.5	0.0	46.9
=	0.0	-204.9	0.0	47.6
=	0.0	-204.4	0.0	48.3
=	0.0	-203.9	0.0	48.9
=	0.0	-203.3	0.0	49.6
=	0.0	-202.9	0.0	50.2
=	0.0	-202.3	0.0	50.9
=	0.0	-201.7	0.0	51.6
=	0.0	-201.1	0.0	52.3
=	0.0	-200.4	0.0	53.2
=	0.0	-199.9	0.0	53.8
=	0.0	-199.3	0.0	54.6
=	0.0	-198.7	0.0	55.3
=	0.0	-198.2	0.0	55.9
=	0.0	-197.7	0.0	56.5
=	0.0	-197.3	0.0	57.0
=	0.0	-196.8	0.0	57.5
=	0.0	-196.2	0.0	58.2
=	0.0	-195.6	0.0	59.0
=	0.0	-195.0	0.0	59.6
=	0.0	-194.4	0.0	60.3
=	0.0	-193.8	0.0	61.0
=	0.0	-193.2	0.0	61.7
=	0.0	-192.7	0.0	62.2
=	0.0	-192.3	0.0	62.7
=	0.0	-191.9	0.0	63.1
=	0.0	-191.4	0.0	63.7
=	0.0	-190.8	0.0	64.3
=	0.0	-190.4	0.0	64.8
=	0.0	-189.8	0.0	65.4
=	0.0	-189.1	0.0	66.0
=	0.0	-188.6	0.0	66.7
=	0.0	-187.9	0.0	67.3
=	0.0	-187.4	0.0	67.9
=	0.0	-186.7	0.0	68.5
=	0.0	-186.2	0.0	69.0
=	0.0	-185.7	0.0	69.5
=	0.0	-185.1	0.0	70.0
=	0.0	-184.5	0.0	70.5
=	0.0	-183.9	0.0	71.2
=	0.0	-183.3	0.0	71.7
=	0.0	-182.7	0.0	72.2
=	0.0	-182.1	0.0	72.8
=	0.0	-181.5	0.0	73.3
=	0.0	-180.9	0.0	73.9
=	0.0	-180.4	0.0	74.2
=	0.0	-179.9	0.0	74.7
=	0.0	-179.3	0.0	75.1
=	0.0	-178.7	0.0	75.7
=	0.0	-178.1	0.0	76.1
=	0.0	-177.5	0.0	76.6
=	0.0	-176.9	0.0	77.0
=	0.0	-176.3	0.0	77.5
=	0.0	-175.7	0.0	77.9
=	0.0	-175.2	0.0	78.2
=	0.0	-174.7	0.0	78.6
=	0.0	-174.3	0.0	78.9
=	0.0	-173.9	0.0	79.2
=	0.0	-173.5	0.0	79.4
=	0.0	-173.1	0.0	79.7
=	0.0	-172.6	0.0	80.0
=	0.0	-172.0	0.0	80.4
=	0.0	-171.4	0.0	80.8
=	0.0	-170.8	0.0	81.2
=	0.0	-170.2	0.0	81.5
=	0.0	-169.6	0.0	81.8
=	0.0	-169.0	0.0	82.2
=	0.0	-168.4	0.0	82.6
=	0.0	-167.8	0.0	83.0
=	0.0	-167.2	0.0	83.4
=	0.0	-166.5	0.0	83.6
=	0.0	-166.0	0.0	83.9
=	0.0	-165.3	0.0	84.3
=	0.0	-164.8	0.0	84.6
=	0.0	-164.1	0.0	84.9
=	0.0	-163.6	0.0	85.2
=	0.0	-162.9	0.0	85.5
=	0.0	-162.3	0.0	85.7
=	0.0	-161.7	0.0	86.1
=	0.0	-161.2	0.0	86.4
=	0.0	-160.6	0.0	86.6
=	0.0	-160.0	0.0	86.9
=	0.0	-159.3	0.0	87.2
=	0.0	-158.2	0.0	87.7
=	0.0	-157.6	0.0	87.9
=	0.0	-157.2	0.0	88.0
=	0.0	-156.8	0.0	88.2
=	0.0	-156.3	0.0	88.4
=	0.0	-155.7	0.0	88.6
=	0.0	-155.2	0.0	88.8
=	0.0	-154.8	0.0	89.0
=	0.0	-154.4	0.0	89.2
=	0.0	-153.9	0.0	89.3
=	0.0	-153.3	0.0	89.5
=	0.0	-152.9	0.0	89.6
=	0.0	-152.4	0.0	89.9
=	0.0	-151.9	0.0	90.0
=	0.0	-151.4	0.0	90.2
=	0.0	-151.0	0.0	90.3
=	0.0	-150.6	0.0	90.4
=	0.0	-150.2	0.0	90.6
=	0.0	-149.7	0.0	90.8
=	0.0	-149.3	0.0	90.9
=	0.0	-148.9	0.0	91.0
=	0.0	-148.5	0.0	91.2
=	0.0	-147.9	0.0	91.3
=	0.0	-147.4	0.0	91.5
=	0.0	-147.0	0.0	91.6
=	0.0	-146.5	0.0	91.8
=	0.0	-146.0	0.0	91.9
=	0.0	-145.5	0.0	92.0
=	0.0	-145.0	0.0	92.1
=	0.0	-144.6	0.0	92.2
=	0.0	-144.2	0.0	92.3
=	0.0	-143.8	0.0	92.4
=	0.0	-143.4	0.0	92.6
=	0.0	-142.9	0.0	92.8
=	0.0	-142.5	0.0	92.9
=	0.0	-142.1	0.0	92.9
=	0.0	-141.6	0.0	93.0
=	0.0	-141.2	0.0	93.1
=	0.0	-140.8	0.0	93.2
=	0.0	-140.3	0.0	93.4
=	0.0	-139.8	0.0	93.5
=	0.0	-139.5	0.0	93.6
=	0.0	-138.9	0.0	93.7
=	0.0	-138.5	0.0	93.8
=	0.0	-138.0	0.0	93.9
=	0.0	-137.4	0.0	94.1
=	0.0	-136.8	0.0	94.2
=	0.0	-136.2	0.0	94.3
=	0.0	-135.6	0.0	94.4
=	0.0	-135.0	0.0	94.6
=	0.0	-134.4	0.0	94.7
=	0.0	-134.0	0.0	94.8
=	0.0	-133.5	0.0	94.9
=	0.0	-133.0	0.0	95.0
=	0.0	-132.6	0.0	95.1
=	0.0	-132.2	0.0	95.1
=	0.0	-131.7	0.0	95.2
=	0.0	-131.1	0.0	95.4
=	0.0	-130.5	0.0	95.5
=	0.0	-129.9	0.0	95.6
=	0.0	-129.3	0.0	95.7
=	0.0	-128.7	0.0	95.8
=	0.0	-128.1	0.0	95.9
=	0.0	-127.5	0.0	96.0
=	0.0	-126.9	0.0	96.1
=	0.0	-126.3	0.0	96.2
=	0.0	-125.7	0.0	96.3
=	0.0	-124.8	0.0	96.4
=	0.0	-123.8	0.0	96.6
=	0.0	-123.0	0.0	96.7
=	0.0	-122.5	0.0	96.7
=	0.0	-121.7	0.0	96.8
=	0.0	-121.0	0.0	96.9
=	0.0	-120.2	0.0	97.0
=	0.0	-119.6	0.0	97.1
=	0.0	-119.0	0.0	97.2
=	0.0	-118.1	0.0	97.3
=	0.0	-117.1	0.0	97.4
=	0.0	-116.0	0.0	97.5
=	0.0	-115.1	0.0	97.7
=	0.0	-113.8	0.0	97.8
=	0.0	-112.8	0.0	98.0
=	0.0	-112.2	0.0	98.0
=	0.0	-111.6	0.0	98.0
=	0.0	-111.0	0.0	98.1
=	0.0	-110.4	0.0	98.2
=	0.0	-109.7	0.0	98.3
=	0.0	-109.2	0.0	98.3
=	0.0	-108.6	0.0	98.3
=	0.0	-108.0	0.0	98.4
=	0.0	-107.4	0.0	98.4
=	0.0	-106.6	0.0	98.5
=	0.0	-106.0	0.0	98.6
=	0.0	-105.4	0.0	98.6
=	0.0	-104.8	0.0	98.6
=	0.0	-103.8	0.0	98.7
=	0.0	-103.2	0.0	98.8
=	0.0	-102.1	0.0	98.8
=	0.0	-100.9	0.0	98.9
=	0.0	-99.7	0.0	99.0
=	0.0	-98.5	0.0	99.1
=	0.0	-97.3	0.0	99.2
=	0.0	-96.4	0.0	99.2
=	0.0	-95.6	0.0	99.3
=	0.0	-95.0	0.0	99.3
=	0.0	-94.4	0.0	99.4
=	0.0	-93.8	0.0	99.4
=	0.0	-93.2	0.0	99.4
=	0.0	-92.7	0.0	99.5
=	0.0	-92.2	0.0	99.5
=	0.0	-91.7	0.0	99.5
=	0.0	-91.3	0.0	99.5
=	0.0	-90.7	0.0	99.5
=	0.0	-90.1	0.0	99.6
=	0.0	-89.5	0.0	99.6
=	0.0	-88.9	0.0	99.6
=	0.0	-88.3	0.0	99.7
=	0.0	-87.7	0.0	99.7
=	0.0	-87.0	0.0	99.7
=	0.0	-86.5	0.0	99.7
=	0.0	-85.9	0.0	99.7
=	0.0	-85.3	0.0	99.8
=	0.0	-84.7	0.0	99.8
=	0.0	-84.1	0.0	99.8
=	0.0	-83.4	0.0	99.8
=	0.0	-82.9	0.0	99.9
=	0.0	-82.2	0.0	99.9
=	0.0	-81.6	0.0	99.9
=	0.0	-81.2	0.0	99.9
=	0.0	-80.7	0.0	99.9
=	0.0	-80.0	0.0	99.9
=	0.0	-79.5	0.0	99.9
=	0.0	-78.9	0.0	100.0
=	0.0	-78.4	0.0	100.0
=	0.0	-77.8	0.0	100.0
=	0.0	-77.2	0.0	100.0
=	0.0	-76.6	0.0	100.0
=	0.0	-76.0	0.0	100.0
=	0.0	-75.4	0.0	100.0
=	0.0	-74.8	0.0	100.0
=	0.0	-74.2	0.0	100.1
=	0.0	-73.8	0.0	100.1
=	0.0	-73.2	0.0	100.1
=	0.0	-72.5	0.0	100.1
=	0.0	-71.9	0.0	100.1
=	0.0	-71.3	0.0	100.1
=	0.0	-70.7	0.0	100.1
=	0.0	-70.1	0.0	100.1
=	0.0	-69.4	0.0	100.1
=	0.0	-68.7	0.0	100.1
=	0.0	-68.1	0.0	100.1
=	0.0	-67.7	0.0	100.2
=	0.0	-67.3	0.0	100.2
=	0.0	-66.8	0.0	100.2
=	0.0	-66.2	0.0	100.1
=	0.0	-65.6	0.0	100.1
=	0.0	-65.2	0.0	100.1
=	0.0	-64.8	0.0	100.1
=	0.0	-64.4	0.0	100.1
=	0.0	-64.0	0.0	100.2
=	0.0	-63.4	0.0	100.2
=	0.0	-62.8	0.0	100.2
=	0.0	-62.2	0.0	100.2
=	0.0	-61.6	0.0	100.2
=	0.0	-61.0	0.0	100.2
=	0.0	-60.4	0.0	100.2
=	0.0	-59.8	0.0	100.2
=	0.0	-59.2	0.0	100.2
=	0.0	-58.6	0.0	100.2
=	0.0	-58.2	0.0	100.2
=	0.0	-57.7	0.0	100.2
=	0.0	-57.3	0.0	100.2
=	0.0	-56.7	0.0	100.2
=	0.0	-56.2	0.0	100.2
=	0.0	-55.8	0.0	100.2
=	0.0	-55.1	0.0	100.2
=	0.0	-54.5	0.0	100.2
=	0.0	-53.9	0.0	100.2
=	0.0	-53.3	0.0	100.2
=	0.0	-52.7	0.0	100.2
=	0.0	-52.2	0.0	100.2
=	0.0	-51.7	0.0	100.2
=	0.0	-51.1	0.0	100.2
=	0.0	-50.7	0.0	100.2
=	0.0	-50.3	0.0	100.2
=	0.0	-49.7	0.0	100.2
=	0.0	-49.1	0.0	100.2
=	0.0	-48.7	0.0	100.2
=	0.0	-48.1	0.0	100.2
=	0.0	-47.5	0.0	100.2
=	0.0	-46.9	0.0	100.2
=	0.0	-46.3	0.0	100.2
=	0.0	-45.7	0.0	100.2
=	0.0	-45.2	0.0	100.2
=	0.0	-44.7	0.0	100.2
=	0.0	-44.0	0.0	100.2
=	0.0	-43.4	0.0	100.2
=	0.0	-42.8	0.0	100.2
=	0.0	-42.2	0.0	100.2
=	0.0	-41.6	0.0	100.2
=	0.0	-41.0	0.0	100.2
=	0.0	-40.4	0.0	100.1
=	0.0	-39.8	0.0	100.2
=	0.0	-39.2	0.0	100.1
=	0.0	-38.6	0.0	100.2
=	0.0	-38.0	0.0	100.2
=	0.0	-37.4	0.0	100.2
=	0.0	-36.8	0.0	100.2
=	0.0	-36.2	0.0	100.2
=	0.0	-35.5	0.0	100.2
=	0.0	-34.8	0.0	100.1
=	0.0	-34.3	0.0	100.1
=	0.0	-33.7	0.0	100.1
=	0.0	-33.1	0.0	100.1
=	0.0	-32.5	0.0	100.1
=	0.0	-31.9	0.0	100.1
=	0.0	-31.0	0.0	100.1
=	0.0	-30.3	0.0	100.1
=	0.0	-29.7	0.0	100.1
=	0.0	-29.1	0.0	100.1
=	0.0	-28.4	0.0	100.1
=	0.0	-27.7	0.0	100.1
=	0.0	-27.0	0.0	100.1
=	0.0	-26.4	0.0	100.1
=	0.0	-25.2	0.0	100.0
=	0.0	-24.0	0.0	100.0
=	0.0	-23.1	0.0	100.0
=	0.0	-22.8	0.0	100.0
=	0.0	-22.1	0.0	100.0
=	0.0	-21.6	0.0	100.0
=	0.0	-20.9	0.0	100.0
=	0.0	-20.4	0.0	100.0
=	0.0	-19.5	0.0	100.0
=	0.0	-18.4	0.0	100.0
=	0.0	-17.6	0.0	100.0
=	0.0	-17.1	0.0	100.0
=	0.0	-16.6	0.0	100.0
=	0.0	-16.1	0.0	100.0
=	0.0	-15.6	0.0	100.0
=	0.0	-15.1	0.0	100.0
=	0.0	-14.5	0.0	100.0
=	0.0	-13.9	0.0	100.0
=	0.0	-13.3	0.0	100.0
=	0.0	-12.6	0.0	100.0
=	0.0	-11.8	0.0	100.0
=	0.0	-11.3	0.0	100.0
=	0.0	-10.8	0.0	100.0
=	0.0	-10.1	0.0	100.0
=	0.0	-9.5	0.0	100.0
=	0.0	-8.7	0.0	100.0
=	0.0	-8.3	0.0	100.0
=	0.0	-7.9	0.0	100.0
=	0.0	-7.4	0.0	100.0
=	0.0	-6.9	0.0	100.0
=	0.0	-6.3	0.0	100.0
=	0.0	-5.9	0.0	100.0
=	0.0	-5.4	0.0	100.0
=	0.0	-4.8	0.0	100.0
=	0.0	-4.2	0.0	100.0
=	0.0	-3.6	0.0	100.0
=	0.0	-3.0	0.0	100.0
=	0.0	-2.3	0.0	100.0
=	0.0	-1.5	0.0	100.0
=	0.0	-1.0	0.0	100.0
=	0.0	-0.3	0.0	100.0
=	0.0	0.0	0.0	100.0
=	0.0	0.5	0.0	100.0
=	0.0	1.0	0.0	100.0
=	0.0	1.4	0.0	100.0
=	0.0	1.9	0.0	100.0
=	0.0	2.4	0.0	100.0
=	0.0	2.8	0.0	100.0
=	0.0	3.3	0.0	100.0
=	0.0	3.9	0.0	100.0
=	0.0	4.2	0.0	100.0
=	0.0	4.7	0.0	100.0
=	0.0	5.3	0.0	100.0
=	0.0	5.9	0.0	100.0
=	0.0	6.3	0.0	100.1
=	0.0	6.9	0.0	100.1
=	0.0	7.4	0.0	100.1
=	0.0	7.9	0.0	100.1
=	0.0	8.3	0.0	100.1
=	0.0	8.7	0.0	100.1
=	0.0	9.3	0.0	100.1
=	0.0	9.9	0.0	100.1
=	0.0	10.4	0.0	100.1
=	0.0	10.9	0.0	100.1
=	0.0	11.4	0.0	100.1
=	0.0	11.9	0.0	100.1
=	0.0	12.4	0.0	100.1
=	0.0	12.9	0.0	100.1
=	0.0	13.3	0.0	100.1
=	0.0	13.7	0.0	100.1
=	0.0	14.1	0.0	100.1
=	0.0	14.7	0.0	100.1
=	0.0	15.3	0.0	100.1
=	0.0	15.8	0.0	100.1
=	0.0	16.3	0.0	100.1
=	0.0	16.7	0.0	100.1
=	0.0	17.1	0.0	100.1
=	0.0	17.5	0.0	100.1
=	0.0	18.1	0.0	100.1
=	0.0	18.7	0.0	100.1
=	0.0	19.3	0.0	100.1
=	0.0	19.8	0.0	100.1
=	0.0	20.3	0.0	100.1
=	0.0	20.7	0.0	100.1
=	0.0	21.1	0.0	100.1
=	0.0	21.8	0.0	100.1
=	0.0	22.3	0.0	100.1
=	0.0	22.8	0.0	100.1
=	0.0	23.4	0.0	100.1
=	0.0	24.0	0.0	100.2
=	0.0	24.5	0.0	100.2
=	0.0	25.0	0.0	100.2
=	0.0	25.6	0.0	100.2
=	0.0	26.1	0.0	100.2
=	0.0	26.6	0.0	100.2
=	0.0	27.2	0.0	100.2
=	0.0	27.8	0.0	100.2
=	0.0	28.4	0.0	100.2
=	0.0	29.0	0.0	100.2
=	0.0	29.6	0.0	100.2
=	0.0	30.2	0.0	100.3
=	0.0	30.6	0.0	100.3
=	0.0	31.2	0.0	100.3
=	0.0	31.8	0.0	100.3
=	0.0	32.4	0.0	100.3
=	0.0	33.1	0.0	100.3
=	0.0	33.6	0.0	100.3
=	0.0	34.3	0.0	100.3
=	0.0	34.9	0.0	100.3
=	0.0	35.7	0.0	100.3
=	0.0	36.5	0.0	100.3
=	0.0	37.7	0.0	100.3
=	0.0	38.8	0.0	100.3
=	0.0	39.5	0.0	100.3
=	0.0	40.5	0.0	100.3
=	0.0	41.3	0.0	100.4
=	0.0	41.9	0.0	100.4
=	0.0	43.0	0.0	100.4
=	0.0	43.9	0.0	100.4
=	0.0	44.7	0.0	100.4
=	0.0	45.3	0.0	100.4
=	0.0	46.2	0.0	100.4
=	0.0	47.1	0.0	100.4
=	0.0	47.7	0.0	100.4
=	0.0	48.3	0.0	100.4
=	0.0	48.7	0.0	100.4
=	0.0	49.3	0.0	100.4
=	0.0	49.9	0.0	100.4
=	0.0	50.5	0.0	100.4
=	0.0	51.2	0.0	100.4
=	0.0	51.7	0.0	100.4
=	0.0	52.4	0.0	100.4
=	0.0	52.9	0.0	100.4
=	0.0	53.5	0.0	100.4
=	0.0	54.2	0.0	100.4
=	0.0	54.8	0.0	100.4
=	0.0	55.4	0.0	100.4
=	0.0	56.2	0.0	100.4
=	0.0	56.8	0.0	100.4
=	0.0	57.4	0.0	100.4
=	0.0	58.0	0.0	100.4
=	0.0	58.6	0.0	100.4
=	0.0	59.2	0.0	100.4
=	0.0	59.8	0.0	100.4
=	0.0	60.4	0.0	100.4
=	0.0	61.0	0.0	100.4
=	0.0	61.5	0.0	100.4
=	0.0	62.0	0.0	100.4
=	0.0	62.5	0.0	100.4
=	0.0	63.1	0.0	100.4
=	0.0	63.7	0.0	100.4
=	0.0	64.3	0.0	100.4
=	0.0	64.9	0.0	100.4
=	0.0	65.5	0.0	100.4
=	0.0	66.1	0.0	100.4
=	0.0	66.7	0.0	100.4
=	0.0	67.3	0.0	100.4
=	0.0	67.9	0.0	100.4
=	0.0	68.5	0.0	100.3
=	0.0	69.1	0.0	100.3
=	0.0	69.7	0.0	100.3
=	0.0	70.3	0.0	100.3
=	0.0	71.0	0.0	100.3
=	0.0	71.6	0.0	100.3
=	0.0	72.2	0.0	100.3
=	0.0	72.7	0.0	100.3
=	0.0	73.2	0.0	100.3
=	0.0	73.6	0.0	100.3
=	0.0	74.1	0.0	100.3
=	0.0	74.6	0.0	100.3
=	0.0	75.2	0.0	100.3
=	0.0	75.8	0.0	100.3
=	0.0	76.4	0.0	100.3
=	0.0	77.0	0.0	100.2
=	0.0	77.6	0.0	100.2
=	0.0	78.2	0.0	100.2
=	0.0	78.8	0.0	100.2
=	0.0	79.4	0.0	100.2
=	0.0	80.0	0.0	100.2
=	0.0	80.6	0.0	100.2
=	0.0	81.2	0.0	100.2
=	0.0	81.9	0.0	100.1
=	0.0	82.4	0.0	100.1
=	0.0	83.0	0.0	100.1
=	0.0	83.7	0.0	100.1
=	0.0	84.3	0.0	100.1
=	0.0	84.9	0.0	100.0
=	0.0	85.5	0.0	100.0
=	0.0	86.1	0.0	100.0
=	0.0	86.7	0.0	100.0
=	0.0	87.3	0.0	100.0
=	0.0	87.8	0.0	99.9
=	0.0	88.3	0.0	99.9
=	0.0	88.8	0.0	99.9
=	0.0	89.5	0.0	99.8
=	0.0	90.1	0.0	99.8
=	0.0	90.7	0.0	99.8
=	0.0	91.3	0.0	99.7
=	0.0	91.9	0.0	99.7
=	0.0	92.6	0.0	99.7
=	0.0	93.1	0.0	99.7
=	0.0	93.8	0.0	99.6
=	0.0	94.3	0.0	99.6
=	0.0	95.0	0.0	99.6
=	0.0	95.5	0.0	99.5
=	0.0	96.2	0.0	99.5
=	0.0	96.8	0.0	99.4
=	0.0	97.4	0.0	99.4
=	0.0	98.0	0.0	99.4
=	0.0	98.6	0.0	99.4
=	0.0	99.2	0.0	99.3
=	0.0	99.9	0.0	99.3
=	0.0	100.3	0.0	99.2
=	0.0	100.7	0.0	99.2
=	0.0	101.2	0.0	99.2
=	0.0	101.9	0.0	99.1
=	0.0	102.4	0.0	99.1
=	0.0	103.1	0.0	99.0
=	0.0	103.7	0.0	99.0
=	0.0	104.2	0.0	99.0
=	0.0	104.6	0.0	98.9
=	0.0	105.0	0.0	98.9
=	0.0	105.5	0.0	98.8
=	0.0	106.1	0.0	98.8
=	0.0	106.5	0.0	98.8
=	0.0	106.9	0.0	98.7
=	0.0	107.5	0.0	98.6
=	0.0	108.0	0.0	98.6
=	0.0	108.4	0.0	98.5
=	0.0	108.8	0.0	98.5
=	0.0	109.3	0.0	98.5
=	0.0	109.9	0.0	98.4
=	0.0	110.5	0.0	98.4
=	0.0	111.2	0.0	98.3
=	0.0	111.7	0.0	98.3
=	0.0	112.3	0.0	98.2
=	0.0	112.9	0.0	98.2
=	0.0	113.5	0.0	98.1
=	0.0	114.1	0.0	98.0
=	0.0	114.6	0.0	97.9
=	0.0	115.2	0.0	97.8
=	0.0	116.0	0.0	97.7
=	0.0	117.0	0.0	97.6
=	0.0	117.7	0.0	97.5
=	0.0	118.7	0.0	97.4
=	0.0	119.4	0.0	97.3
=	0.0	120.3	0.0	97.2
=	0.0	121.3	0.0	97.1
=	0.0	122.2	0.0	97.0
=	0.0	122.7	0.0	96.9
=	0.0	123.3	0.0	96.8
=	0.0	124.4	0.0	96.6
=	0.0	125.2	0.0	96.5
=	0.0	125.7	0.0	96.4
=	0.0	126.3	0.0	96.3
=	0.0	126.8	0.0	96.2
=	0.0	127.4	0.0	96.1
=	0.0	127.8	0.0	96.0
=	0.0	128.4	0.0	96.0
=	0.0	129.1	0.0	95.9
=	0.0	129.6	0.0	95.8
=	0.0	130.3	0.0	95.6
=	0.0	130.8	0.0	95.5
=	0.0	131.5	0.0	95.4
=	0.0	132.1	0.0	95.3
=	0.0	132.7	0.0	95.2
=	0.0	133.3	0.0	95.1
=	0.0	133.9	0.0	95.0
=	0.0	134.4	0.0	94.9
=	0.0	135.0	0.0	94.8
=	0.0	135.4	0.0	94.6
=	0.0	135.8	0.0	94.6
=	0.0	136.2	0.0	94.5
=	0.0	136.7	0.0	94.3
=	0.0	137.1	0.0	94.2
=	0.0	137.5	0.0	94.1
=	0.0	138.0	0.0	94.0
=	0.0	138.7	0.0	93.8
=	0.0	139.2	0.0	93.7
=	0.0	139.9	0.0	93.6
=	0.0	140.5	0.0	93.5
=	0.0	141.1	0.0	93.3
=	0.0	141.7	0.0	93.1
=	0.0	142.3	0.0	93.0
=	0.0	142.9	0.0	92.8
=	0.0	143.5	0.0	92.6
=	0.0	144.1	0.0	92.4
=	0.0	144.7	0.0	92.3
=	0.0	145.3	0.0	92.2
=	0.0	146.1	0.0	92.0
=	0.0	146.7	0.0	91.7
=	0.0	147.3	0.0	91.6
=	0.0	148.0	0.0	91.4
=	0.0	148.5	0.0	91.2
=	0.0	149.2	0.0	91.0
=	0.0	149.8	0.0	90.8
=	0.0	150.4	0.0	90.6
=	0.0	151.0	0.0	90.4
=	0.0	151.6	0.0	90.2
=	0.0	152.2	0.0	90.0
=	0.0	152.8	0.0	89.8
=	0.0	153.4	0.0	89.6
=	0.0	154.0	0.0	89.3
=	0.0	154.6	0.0	89.2
=	0.0	155.2	0.0	88.9
=	0.0	155.8	0.0	88.6
=	0.0	156.4	0.0	88.4
=	0.0	157.0	0.0	88.2
=	0.0	157.7	0.0	87.9
=	0.0	158.3	0.0	87.7
=	0.0	158.9	0.0	87.5
=	0.0	159.5	0.0	87.2
=	0.0	159.9	0.0	87.0
=	0.0	160.5	0.0	86.7
=	0.0	160.9	0.0	86.5
=	0.0	161.6	0.0	86.2
=	0.0	162.2	0.0	85.9
=	0.0	162.7	0.0	85.7
=	0.0	163.3	0.0	85.4
=	0.0	164.0	0.0	85.1
=	0.0	164.4	0.0	84.8
=	0.0	164.9	0.0	84.6
=	0.0	165.6	0.0	84.2
=	0.0	166.1	0.0	83.9
=	0.0	166.6	0.0	83.6
=	0.0	167.2	0.0	83.4
=	0.0	167.8	0.0	83.0
=	0.0	168.4	0.0	82.7
=	0.0	169.0	0.0	82.4
=	0.0	169.6	0.0	82.0
=	0.0	170.2	0.0	81.6
=	0.0	170.8	0.0	81.2
=	0.0	171.4	0.0	80.9
=	0.0	172.0	0.0	80.5
=	0.0	172.6	0.0	80.0
=	0.0	173.2	0.0	79.7
=	0.0	173.8	0.0	79.3
=	0.0	174.4	0.0	78.8
=	0.0	175.0	0.0	78.4
=	0.0	175.6	0.0	78.1
=	0.0	176.0	0.0	77.7
=	0.0	176.6	0.0	77.3
=	0.0	177.2	0.0	76.9
=	0.0	177.8	0.0	76.4
=	0.0	178.4	0.0	75.9
=	0.0	179.0	0.0	75.5
=	0.0	179.4	0.0	75.1
=	0.0	180.0	0.0	74.6
=	0.0	180.6	0.0	74.1
=	0.0	181.2	0.0	73.6
=	0.0	181.9	0.0	73.1
=	0.0	182.5	0.0	72.5
=	0.0	183.1	0.0	72.0
=	0.0	183.7	0.0	71.4
=	0.0	184.3	0.0	70.8
=	0.0	184.9	0.0	70.3
=	0.0	185.5	0.0	69.8
=	0.0	186.1	0.0	69.2
=	0.0	186.7	0.0	68.6
=	0.0	187.3	0.0	68.0
=	0.0	187.9	0.0	67.3
=	0.0	188.5	0.0	66.7
=	0.0	189.1	0.0	66.1
=	0.0	189.7	0.0	65.5
=	0.0	190.3	0.0	64.9
=	0.0	191.0	0.0	64.3
=	0.0	191.5	0.0	63.6
=	0.0	192.1	0.0	63.0
=	0.0	192.5	0.0	62.5
=	0.0	193.0	0.0	62.0
=	0.0	193.5	0.0	61.4
=	0.0	193.9	0.0	61.0
=	0.0	194.4	0.0	60.4
=	0.0	194.8	0.0	59.9
=	0.0	195.2	0.0	59.5
=	0.0	195.6	0.0	59.0
=	0.0	196.0	0.0	58.5
=	0.0	196.6	0.0	57.9
=	0.0	197.0	0.0	57.4
=	0.0	197.4	0.0	56.9
=	0.0	197.8	0.0	56.5
=	0.0	198.2	0.0	56.0
=	0.0	198.8	0.0	55.2
=	0.0	199.4	0.0	54.5
=	0.0	200.0	0.0	53.8
=	0.0	200.6	0.0	53.0
=	0.0	201.2	0.0	52.3
=	0.0	201.8	0.0	51.4
=	0.0	202.4	0.0	50.7
=	0.0	203.0	0.0	50.0
=	0.0	203.6	0.0	49.2
=	0.0	204.3	0.0	48.4
=	0.0	204.8	0.0	47.7
=	0.0	205.5	0.0	46.9
=	0.0	206.0	0.0	46.2
=	0.0	206.7	0.0	45.5
=	0.0	207.3	0.0	44.7
=	0.0	207.9	0.0	43.8
=	0.0	208.5	0.0	43.1
=	0.0	209.1	0.0	42.4
=	0.0	209.6	0.0	41.8
=	0.0	210.1	0.0	41.1
=	0.0	210.7	0.0	40.4
=	0.0	211.3	0.0	39.7
=	0.0	212.0	0.0	38.9
=	0.0	212.5	0.0	38.2
=	0.0	213.1	0.0	37.4
=	0.0	213.7	0.0	36.7
=	0.0	214.4	0.0	36.0
=	0.0	214.9	0.0	35.3
=	0.0	215.6	0.0	34.6
=	0.0	216.1	0.0	33.9
=	0.0	216.8	0.0	33.2
=	0.0	217.3	0.0	32.6
=	0.0	217.7	0.0	32.1
=	0.0	218.3	0.0	31.4
=	0.0	218.9	0.0	30.7
=	0.0	219.5	0.0	30.1
=	0.0	220.1	0.0	29.5
=	0.0	220.5	0.0	29.1
=	0.0	221.0	0.0	28.6
=	0.0	221.6	0.0	27.9
=	0.0	222.2	0.0	27.3
=	0.0	222.6	0.0	26.9
=	0.0	223.0	0.0	26.4
=	0.0	223.5	0.0	26.0
=	0.0	223.9	0.0	25.6
=	0.0	224.4	0.0	25.2
=	0.0	225.0	0.0	24.6
=	0.0	225.6	0.0	24.0
=	0.0	226.2	0.0	23.5
=	0.0	226.8	0.0	23.0
=	0.0	227.4	0.0	22.4
=	0.0	228.0	0.0	21.9
=	0.0	228.6	0.0	21.4
=	0.0	229.1	0.0	21.0
=	0.0	229.6	0.0	20.6
=	0.0	230.2	0.0	20.2
=	0.0	230.6	0.0	19.8
=	0.0	231.1	0.0	19.5
=	0.0	231.7	0.0	19.0
=	0.0	232.2	0.0	18.6
=	0.0	232.8	0.0	18.2
=	0.0	233.3	0.0	17.8
=	0.0	233.8	0.0	17.5
=	0.0	234.5	0.0	17.1
=	0.0	234.9	0.0	16.8
=	0.0	235.3	0.0	16.5
=	0.0	235.9	0.0	16.1
:EOM # End of Measurement

:EOF # End of File