:MSR 	1	 # No. of measurement in file
:SYS BDS 0   # Beam Data Scanner System
#
# RFA300 ASCII Measurement Dump ( BDS format )
#
# Measurement number 	1
#
%VNR 1.0
%MOD 	RAT
%TYP 	SCN
%SCN 	PRO
%FLD 	ION
%DAT 	10-12-2011
%TIM 	12:00:00
%FSZ 	400	400
%BMT 	ELE	   6.0
%SSD 	
%BUP 	0
%BRD 	
%FSH 	1
%ASC 	0
%WEG 	0
%GPO 	0
%CPO 	0
%MEA 	2
%PRD 	0,0
%PTS 	813
%STS 	    -236.3	  0.0	   0.0 # Start Scan values in mm ( X , Y , Z )
%EDS 	    235.9	   0.0	   0.0 # End Scan values in mm ( X , Y , Z )
#
#	  X      Y      Z     Dose
#
=	-236.3	0.0	0.0	15.8
=	-235.7	0.0	0.0	16.2
=	-235.1	0.0	0.0	16.5
=	-234.6	0.0	0.0	16.9
=	-234.1	0.0	0.0	17.2
=	-233.5	0.0	0.0	17.6
=	-232.9	0.0	0.0	18.1
=	-232.3	0.0	0.0	18.5
=	-231.7	0.0	0.0	19.0
=	-231.1	0.0	0.0	19.5
=	-230.6	0.0	0.0	19.8
=	-230.2	0.0	0.0	20.2
=	-229.7	0.0	0.0	20.5
=	-229.2	0.0	0.0	20.9
=	-228.7	0.0	0.0	21.4
=	-228.1	0.0	0.0	21.9
=	-227.6	0.0	0.0	22.2
=	-227.1	0.0	0.0	22.7
=	-226.5	0.0	0.0	23.3
=	-225.9	0.0	0.0	23.8
=	-225.3	0.0	0.0	24.3
=	-224.8	0.0	0.0	24.7
=	-224.4	0.0	0.0	25.1
=	-223.8	0.0	0.0	25.7
=	-223.2	0.0	0.0	26.2
=	-222.6	0.0	0.0	26.9
=	-222.0	0.0	0.0	27.5
=	-221.4	0.0	0.0	28.1
=	-220.8	0.0	0.0	28.7
=	-220.2	0.0	0.0	29.3
=	-219.7	0.0	0.0	29.8
=	-219.2	0.0	0.0	30.4
=	-218.6	0.0	0.0	31.1
=	-218.0	0.0	0.0	31.7
=	-217.6	0.0	0.0	32.2
=	-217.1	0.0	0.0	32.7
=	-216.6	0.0	0.0	33.3
=	-216.0	0.0	0.0	34.0
=	-215.5	0.0	0.0	34.5
=	-215.1	0.0	0.0	35.0
=	-214.7	0.0	0.0	35.5
=	-214.2	0.0	0.0	36.2
=	-213.6	0.0	0.0	36.9
=	-212.9	0.0	0.0	37.6
=	-212.5	0.0	0.0	38.2
=	-212.0	0.0	0.0	38.7
=	-211.6	0.0	0.0	39.2
=	-211.2	0.0	0.0	39.7
=	-210.8	0.0	0.0	40.2
=	-210.3	0.0	0.0	40.8
=	-209.7	0.0	0.0	41.5
=	-209.1	0.0	0.0	42.3
=	-208.5	0.0	0.0	43.1
=	-207.9	0.0	0.0	43.8
=	-207.3	0.0	0.0	44.6
=	-206.7	0.0	0.0	45.4
=	-206.1	0.0	0.0	46.1
=	-205.5	0.0	0.0	46.9
=	-204.9	0.0	0.0	47.6
=	-204.4	0.0	0.0	48.3
=	-203.9	0.0	0.0	48.9
=	-203.3	0.0	0.0	49.6
=	-202.9	0.0	0.0	50.2
=	-202.3	0.0	0.0	50.9
=	-201.7	0.0	0.0	51.6
=	-201.1	0.0	0.0	52.3
=	-200.4	0.0	0.0	53.2
=	-199.9	0.0	0.0	53.8
=	-199.3	0.0	0.0	54.6
=	-198.7	0.0	0.0	55.3
=	-198.2	0.0	0.0	55.9
=	-197.7	0.0	0.0	56.5
=	-197.3	0.0	0.0	57.0
=	-196.8	0.0	0.0	57.5
=	-196.2	0.0	0.0	58.2
=	-195.6	0.0	0.0	59.0
=	-195.0	0.0	0.0	59.6
=	-194.4	0.0	0.0	60.3
=	-193.8	0.0	0.0	61.0
=	-193.2	0.0	0.0	61.7
=	-192.7	0.0	0.0	62.2
=	-192.3	0.0	0.0	62.7
=	-191.9	0.0	0.0	63.1
=	-191.4	0.0	0.0	63.7
=	-190.8	0.0	0.0	64.3
=	-190.4	0.0	0.0	64.8
=	-189.8	0.0	0.0	65.4
=	-189.1	0.0	0.0	66.0
=	-188.6	0.0	0.0	66.7
=	-187.9	0.0	0.0	67.3
=	-187.4	0.0	0.0	67.9
=	-186.7	0.0	0.0	68.5
=	-186.2	0.0	0.0	69.0
=	-185.7	0.0	0.0	69.5
=	-185.1	0.0	0.0	70.0
=	-184.5	0.0	0.0	70.5
=	-183.9	0.0	0.0	71.2
=	-183.3	0.0	0.0	71.7
=	-182.7	0.0	0.0	72.2
=	-182.1	0.0	0.0	72.8
=	-181.5	0.0	0.0	73.3
=	-180.9	0.0	0.0	73.9
=	-180.4	0.0	0.0	74.2
=	-179.9	0.0	0.0	74.7
=	-179.3	0.0	0.0	75.1
=	-178.7	0.0	0.0	75.7
=	-178.1	0.0	0.0	76.1
=	-177.5	0.0	0.0	76.6
=	-176.9	0.0	0.0	77.0
=	-176.3	0.0	0.0	77.5
=	-175.7	0.0	0.0	77.9
=	-175.2	0.0	0.0	78.2
=	-174.7	0.0	0.0	78.6
=	-174.3	0.0	0.0	78.9
=	-173.9	0.0	0.0	79.2
=	-173.5	0.0	0.0	79.4
=	-173.1	0.0	0.0	79.7
=	-172.6	0.0	0.0	80.0
=	-172.0	0.0	0.0	80.4
=	-171.4	0.0	0.0	80.8
=	-170.8	0.0	0.0	81.2
=	-170.2	0.0	0.0	81.5
=	-169.6	0.0	0.0	81.8
=	-169.0	0.0	0.0	82.2
=	-168.4	0.0	0.0	82.6
=	-167.8	0.0	0.0	83.0
=	-167.2	0.0	0.0	83.4
=	-166.5	0.0	0.0	83.6
=	-166.0	0.0	0.0	83.9
=	-165.3	0.0	0.0	84.3
=	-164.8	0.0	0.0	84.6
=	-164.1	0.0	0.0	84.9
=	-163.6	0.0	0.0	85.2
=	-162.9	0.0	0.0	85.5
=	-162.3	0.0	0.0	85.7
=	-161.7	0.0	0.0	86.1
=	-161.2	0.0	0.0	86.4
=	-160.6	0.0	0.0	86.6
=	-160.0	0.0	0.0	86.9
=	-159.3	0.0	0.0	87.2
=	-158.2	0.0	0.0	87.7
=	-157.6	0.0	0.0	87.9
=	-157.2	0.0	0.0	88.0
=	-156.8	0.0	0.0	88.2
=	-156.3	0.0	0.0	88.4
=	-155.7	0.0	0.0	88.6
=	-155.2	0.0	0.0	88.8
=	-154.8	0.0	0.0	89.0
=	-154.4	0.0	0.0	89.2
=	-153.9	0.0	0.0	89.3
=	-153.3	0.0	0.0	89.5
=	-152.9	0.0	0.0	89.6
=	-152.4	0.0	0.0	89.9
=	-151.9	0.0	0.0	90.0
=	-151.4	0.0	0.0	90.2
=	-151.0	0.0	0.0	90.3
=	-150.6	0.0	0.0	90.4
=	-150.2	0.0	0.0	90.6
=	-149.7	0.0	0.0	90.8
=	-149.3	0.0	0.0	90.9
=	-148.9	0.0	0.0	91.0
=	-148.5	0.0	0.0	91.2
=	-147.9	0.0	0.0	91.3
=	-147.4	0.0	0.0	91.5
=	-147.0	0.0	0.0	91.6
=	-146.5	0.0	0.0	91.8
=	-146.0	0.0	0.0	91.9
=	-145.5	0.0	0.0	92.0
=	-145.0	0.0	0.0	92.1
=	-144.6	0.0	0.0	92.2
=	-144.2	0.0	0.0	92.3
=	-143.8	0.0	0.0	92.4
=	-143.4	0.0	0.0	92.6
=	-142.9	0.0	0.0	92.8
=	-142.5	0.0	0.0	92.9
=	-142.1	0.0	0.0	92.9
=	-141.6	0.0	0.0	93.0
=	-141.2	0.0	0.0	93.1
=	-140.8	0.0	0.0	93.2
=	-140.3	0.0	0.0	93.4
=	-139.8	0.0	0.0	93.5
=	-139.5	0.0	0.0	93.6
=	-138.9	0.0	0.0	93.7
=	-138.5	0.0	0.0	93.8
=	-138.0	0.0	0.0	93.9
=	-137.4	0.0	0.0	94.1
=	-136.8	0.0	0.0	94.2
=	-136.2	0.0	0.0	94.3
=	-135.6	0.0	0.0	94.4
=	-135.0	0.0	0.0	94.6
=	-134.4	0.0	0.0	94.7
=	-134.0	0.0	0.0	94.8
=	-133.5	0.0	0.0	94.9
=	-133.0	0.0	0.0	95.0
=	-132.6	0.0	0.0	95.1
=	-132.2	0.0	0.0	95.1
=	-131.7	0.0	0.0	95.2
=	-131.1	0.0	0.0	95.4
=	-130.5	0.0	0.0	95.5
=	-129.9	0.0	0.0	95.6
=	-129.3	0.0	0.0	95.7
=	-128.7	0.0	0.0	95.8
=	-128.1	0.0	0.0	95.9
=	-127.5	0.0	0.0	96.0
=	-126.9	0.0	0.0	96.1
=	-126.3	0.0	0.0	96.2
=	-125.7	0.0	0.0	96.3
=	-124.8	0.0	0.0	96.4
=	-123.8	0.0	0.0	96.6
=	-123.0	0.0	0.0	96.7
=	-122.5	0.0	0.0	96.7
=	-121.7	0.0	0.0	96.8
=	-121.0	0.0	0.0	96.9
=	-120.2	0.0	0.0	97.0
=	-119.6	0.0	0.0	97.1
=	-119.0	0.0	0.0	97.2
=	-118.1	0.0	0.0	97.3
=	-117.1	0.0	0.0	97.4
=	-116.0	0.0	0.0	97.5
=	-115.1	0.0	0.0	97.7
=	-113.8	0.0	0.0	97.8
=	-112.8	0.0	0.0	98.0
=	-112.2	0.0	0.0	98.0
=	-111.6	0.0	0.0	98.0
=	-111.0	0.0	0.0	98.1
=	-110.4	0.0	0.0	98.2
=	-109.7	0.0	0.0	98.3
=	-109.2	0.0	0.0	98.3
=	-108.6	0.0	0.0	98.3
=	-108.0	0.0	0.0	98.4
=	-107.4	0.0	0.0	98.4
=	-106.6	0.0	0.0	98.5
=	-106.0	0.0	0.0	98.6
=	-105.4	0.0	0.0	98.6
=	-104.8	0.0	0.0	98.6
=	-103.8	0.0	0.0	98.7
=	-103.2	0.0	0.0	98.8
=	-102.1	0.0	0.0	98.8
=	-100.9	0.0	0.0	98.9
=	-99.7	0.0	0.0	99.0
=	-98.5	0.0	0.0	99.1
=	-97.3	0.0	0.0	99.2
=	-96.4	0.0	0.0	99.2
=	-95.6	0.0	0.0	99.3
=	-95.0	0.0	0.0	99.3
=	-94.4	0.0	0.0	99.4
=	-93.8	0.0	0.0	99.4
=	-93.2	0.0	0.0	99.4
=	-92.7	0.0	0.0	99.5
=	-92.2	0.0	0.0	99.5
=	-91.7	0.0	0.0	99.5
=	-91.3	0.0	0.0	99.5
=	-90.7	0.0	0.0	99.5
=	-90.1	0.0	0.0	99.6
=	-89.5	0.0	0.0	99.6
=	-88.9	0.0	0.0	99.6
=	-88.3	0.0	0.0	99.7
=	-87.7	0.0	0.0	99.7
=	-87.0	0.0	0.0	99.7
=	-86.5	0.0	0.0	99.7
=	-85.9	0.0	0.0	99.7
=	-85.3	0.0	0.0	99.8
=	-84.7	0.0	0.0	99.8
=	-84.1	0.0	0.0	99.8
=	-83.4	0.0	0.0	99.8
=	-82.9	0.0	0.0	99.9
=	-82.2	0.0	0.0	99.9
=	-81.6	0.0	0.0	99.9
=	-81.2	0.0	0.0	99.9
=	-80.7	0.0	0.0	99.9
=	-80.0	0.0	0.0	99.9
=	-79.5	0.0	0.0	99.9
=	-78.9	0.0	0.0	100.0
=	-78.4	0.0	0.0	100.0
=	-77.8	0.0	0.0	100.0
=	-77.2	0.0	0.0	100.0
=	-76.6	0.0	0.0	100.0
=	-76.0	0.0	0.0	100.0
=	-75.4	0.0	0.0	100.0
=	-74.8	0.0	0.0	100.0
=	-74.2	0.0	0.0	100.1
=	-73.8	0.0	0.0	100.1
=	-73.2	0.0	0.0	100.1
=	-72.5	0.0	0.0	100.1
=	-71.9	0.0	0.0	100.1
=	-71.3	0.0	0.0	100.1
=	-70.7	0.0	0.0	100.1
=	-70.1	0.0	0.0	100.1
=	-69.4	0.0	0.0	100.1
=	-68.7	0.0	0.0	100.1
=	-68.1	0.0	0.0	100.1
=	-67.7	0.0	0.0	100.2
=	-67.3	0.0	0.0	100.2
=	-66.8	0.0	0.0	100.2
=	-66.2	0.0	0.0	100.1
=	-65.6	0.0	0.0	100.1
=	-65.2	0.0	0.0	100.1
=	-64.8	0.0	0.0	100.1
=	-64.4	0.0	0.0	100.1
=	-64.0	0.0	0.0	100.2
=	-63.4	0.0	0.0	100.2
=	-62.8	0.0	0.0	100.2
=	-62.2	0.0	0.0	100.2
=	-61.6	0.0	0.0	100.2
=	-61.0	0.0	0.0	100.2
=	-60.4	0.0	0.0	100.2
=	-59.8	0.0	0.0	100.2
=	-59.2	0.0	0.0	100.2
=	-58.6	0.0	0.0	100.2
=	-58.2	0.0	0.0	100.2
=	-57.7	0.0	0.0	100.2
=	-57.3	0.0	0.0	100.2
=	-56.7	0.0	0.0	100.2
=	-56.2	0.0	0.0	100.2
=	-55.8	0.0	0.0	100.2
=	-55.1	0.0	0.0	100.2
=	-54.5	0.0	0.0	100.2
=	-53.9	0.0	0.0	100.2
=	-53.3	0.0	0.0	100.2
=	-52.7	0.0	0.0	100.2
=	-52.2	0.0	0.0	100.2
=	-51.7	0.0	0.0	100.2
=	-51.1	0.0	0.0	100.2
=	-50.7	0.0	0.0	100.2
=	-50.3	0.0	0.0	100.2
=	-49.7	0.0	0.0	100.2
=	-49.1	0.0	0.0	100.2
=	-48.7	0.0	0.0	100.2
=	-48.1	0.0	0.0	100.2
=	-47.5	0.0	0.0	100.2
=	-46.9	0.0	0.0	100.2
=	-46.3	0.0	0.0	100.2
=	-45.7	0.0	0.0	100.2
=	-45.2	0.0	0.0	100.2
=	-44.7	0.0	0.0	100.2
=	-44.0	0.0	0.0	100.2
=	-43.4	0.0	0.0	100.2
=	-42.8	0.0	0.0	100.2
=	-42.2	0.0	0.0	100.2
=	-41.6	0.0	0.0	100.2
=	-41.0	0.0	0.0	100.2
=	-40.4	0.0	0.0	100.1
=	-39.8	0.0	0.0	100.2
=	-39.2	0.0	0.0	100.1
=	-38.6	0.0	0.0	100.2
=	-38.0	0.0	0.0	100.2
=	-37.4	0.0	0.0	100.2
=	-36.8	0.0	0.0	100.2
=	-36.2	0.0	0.0	100.2
=	-35.5	0.0	0.0	100.2
=	-34.8	0.0	0.0	100.1
=	-34.3	0.0	0.0	100.1
=	-33.7	0.0	0.0	100.1
=	-33.1	0.0	0.0	100.1
=	-32.5	0.0	0.0	100.1
=	-31.9	0.0	0.0	100.1
=	-31.0	0.0	0.0	100.1
=	-30.3	0.0	0.0	100.1
=	-29.7	0.0	0.0	100.1
=	-29.1	0.0	0.0	100.1
=	-28.4	0.0	0.0	100.1
=	-27.7	0.0	0.0	100.1
=	-27.0	0.0	0.0	100.1
=	-26.4	0.0	0.0	100.1
=	-25.2	0.0	0.0	100.0
=	-24.0	0.0	0.0	100.0
=	-23.1	0.0	0.0	100.0
=	-22.8	0.0	0.0	100.0
=	-22.1	0.0	0.0	100.0
=	-21.6	0.0	0.0	100.0
=	-20.9	0.0	0.0	100.0
=	-20.4	0.0	0.0	100.0
=	-19.5	0.0	0.0	100.0
=	-18.4	0.0	0.0	100.0
=	-17.6	0.0	0.0	100.0
=	-17.1	0.0	0.0	100.0
=	-16.6	0.0	0.0	100.0
=	-16.1	0.0	0.0	100.0
=	-15.6	0.0	0.0	100.0
=	-15.1	0.0	0.0	100.0
=	-14.5	0.0	0.0	100.0
=	-13.9	0.0	0.0	100.0
=	-13.3	0.0	0.0	100.0
=	-12.6	0.0	0.0	100.0
=	-11.8	0.0	0.0	100.0
=	-11.3	0.0	0.0	100.0
=	-10.8	0.0	0.0	100.0
=	-10.1	0.0	0.0	100.0
=	-9.5	0.0	0.0	100.0
=	-8.7	0.0	0.0	100.0
=	-8.3	0.0	0.0	100.0
=	-7.9	0.0	0.0	100.0
=	-7.4	0.0	0.0	100.0
=	-6.9	0.0	0.0	100.0
=	-6.3	0.0	0.0	100.0
=	-5.9	0.0	0.0	100.0
=	-5.4	0.0	0.0	100.0
=	-4.8	0.0	0.0	100.0
=	-4.2	0.0	0.0	100.0
=	-3.6	0.0	0.0	100.0
=	-3.0	0.0	0.0	100.0
=	-2.3	0.0	0.0	100.0
=	-1.5	0.0	0.0	100.0
=	-1.0	0.0	0.0	100.0
=	-0.3	0.0	0.0	100.0
=	0.0	0.0	0.0	100.0
=	0.5	0.0	0.0	100.0
=	1.0	0.0	0.0	100.0
=	1.4	0.0	0.0	100.0
=	1.9	0.0	0.0	100.0
=	2.4	0.0	0.0	100.0
=	2.8	0.0	0.0	100.0
=	3.3	0.0	0.0	100.0
=	3.9	0.0	0.0	100.0
=	4.2	0.0	0.0	100.0
=	4.7	0.0	0.0	100.0
=	5.3	0.0	0.0	100.0
=	5.9	0.0	0.0	100.0
=	6.3	0.0	0.0	100.1
=	6.9	0.0	0.0	100.1
=	7.4	0.0	0.0	100.1
=	7.9	0.0	0.0	100.1
=	8.3	0.0	0.0	100.1
=	8.7	0.0	0.0	100.1
=	9.3	0.0	0.0	100.1
=	9.9	0.0	0.0	100.1
=	10.4	0.0	0.0	100.1
=	10.9	0.0	0.0	100.1
=	11.4	0.0	0.0	100.1
=	11.9	0.0	0.0	100.1
=	12.4	0.0	0.0	100.1
=	12.9	0.0	0.0	100.1
=	13.3	0.0	0.0	100.1
=	13.7	0.0	0.0	100.1
=	14.1	0.0	0.0	100.1
=	14.7	0.0	0.0	100.1
=	15.3	0.0	0.0	100.1
=	15.8	0.0	0.0	100.1
=	16.3	0.0	0.0	100.1
=	16.7	0.0	0.0	100.1
=	17.1	0.0	0.0	100.1
=	17.5	0.0	0.0	100.1
=	18.1	0.0	0.0	100.1
=	18.7	0.0	0.0	100.1
=	19.3	0.0	0.0	100.1
=	19.8	0.0	0.0	100.1
=	20.3	0.0	0.0	100.1
=	20.7	0.0	0.0	100.1
=	21.1	0.0	0.0	100.1
=	21.8	0.0	0.0	100.1
=	22.3	0.0	0.0	100.1
=	22.8	0.0	0.0	100.1
=	23.4	0.0	0.0	100.1
=	24.0	0.0	0.0	100.2
=	24.5	0.0	0.0	100.2
=	25.0	0.0	0.0	100.2
=	25.6	0.0	0.0	100.2
=	26.1	0.0	0.0	100.2
=	26.6	0.0	0.0	100.2
=	27.2	0.0	0.0	100.2
=	27.8	0.0	0.0	100.2
=	28.4	0.0	0.0	100.2
=	29.0	0.0	0.0	100.2
=	29.6	0.0	0.0	100.2
=	30.2	0.0	0.0	100.3
=	30.6	0.0	0.0	100.3
=	31.2	0.0	0.0	100.3
=	31.8	0.0	0.0	100.3
=	32.4	0.0	0.0	100.3
=	33.1	0.0	0.0	100.3
=	33.6	0.0	0.0	100.3
=	34.3	0.0	0.0	100.3
=	34.9	0.0	0.0	100.3
=	35.7	0.0	0.0	100.3
=	36.5	0.0	0.0	100.3
=	37.7	0.0	0.0	100.3
=	38.8	0.0	0.0	100.3
=	39.5	0.0	0.0	100.3
=	40.5	0.0	0.0	100.3
=	41.3	0.0	0.0	100.4
=	41.9	0.0	0.0	100.4
=	43.0	0.0	0.0	100.4
=	43.9	0.0	0.0	100.4
=	44.7	0.0	0.0	100.4
=	45.3	0.0	0.0	100.4
=	46.2	0.0	0.0	100.4
=	47.1	0.0	0.0	100.4
=	47.7	0.0	0.0	100.4
=	48.3	0.0	0.0	100.4
=	48.7	0.0	0.0	100.4
=	49.3	0.0	0.0	100.4
=	49.9	0.0	0.0	100.4
=	50.5	0.0	0.0	100.4
=	51.2	0.0	0.0	100.4
=	51.7	0.0	0.0	100.4
=	52.4	0.0	0.0	100.4
=	52.9	0.0	0.0	100.4
=	53.5	0.0	0.0	100.4
=	54.2	0.0	0.0	100.4
=	54.8	0.0	0.0	100.4
=	55.4	0.0	0.0	100.4
=	56.2	0.0	0.0	100.4
=	56.8	0.0	0.0	100.4
=	57.4	0.0	0.0	100.4
=	58.0	0.0	0.0	100.4
=	58.6	0.0	0.0	100.4
=	59.2	0.0	0.0	100.4
=	59.8	0.0	0.0	100.4
=	60.4	0.0	0.0	100.4
=	61.0	0.0	0.0	100.4
=	61.5	0.0	0.0	100.4
=	62.0	0.0	0.0	100.4
=	62.5	0.0	0.0	100.4
=	63.1	0.0	0.0	100.4
=	63.7	0.0	0.0	100.4
=	64.3	0.0	0.0	100.4
=	64.9	0.0	0.0	100.4
=	65.5	0.0	0.0	100.4
=	66.1	0.0	0.0	100.4
=	66.7	0.0	0.0	100.4
=	67.3	0.0	0.0	100.4
=	67.9	0.0	0.0	100.4
=	68.5	0.0	0.0	100.3
=	69.1	0.0	0.0	100.3
=	69.7	0.0	0.0	100.3
=	70.3	0.0	0.0	100.3
=	71.0	0.0	0.0	100.3
=	71.6	0.0	0.0	100.3
=	72.2	0.0	0.0	100.3
=	72.7	0.0	0.0	100.3
=	73.2	0.0	0.0	100.3
=	73.6	0.0	0.0	100.3
=	74.1	0.0	0.0	100.3
=	74.6	0.0	0.0	100.3
=	75.2	0.0	0.0	100.3
=	75.8	0.0	0.0	100.3
=	76.4	0.0	0.0	100.3
=	77.0	0.0	0.0	100.2
=	77.6	0.0	0.0	100.2
=	78.2	0.0	0.0	100.2
=	78.8	0.0	0.0	100.2
=	79.4	0.0	0.0	100.2
=	80.0	0.0	0.0	100.2
=	80.6	0.0	0.0	100.2
=	81.2	0.0	0.0	100.2
=	81.9	0.0	0.0	100.1
=	82.4	0.0	0.0	100.1
=	83.0	0.0	0.0	100.1
=	83.7	0.0	0.0	100.1
=	84.3	0.0	0.0	100.1
=	84.9	0.0	0.0	100.0
=	85.5	0.0	0.0	100.0
=	86.1	0.0	0.0	100.0
=	86.7	0.0	0.0	100.0
=	87.3	0.0	0.0	100.0
=	87.8	0.0	0.0	99.9
=	88.3	0.0	0.0	99.9
=	88.8	0.0	0.0	99.9
=	89.5	0.0	0.0	99.8
=	90.1	0.0	0.0	99.8
=	90.7	0.0	0.0	99.8
=	91.3	0.0	0.0	99.7
=	91.9	0.0	0.0	99.7
=	92.6	0.0	0.0	99.7
=	93.1	0.0	0.0	99.7
=	93.8	0.0	0.0	99.6
=	94.3	0.0	0.0	99.6
=	95.0	0.0	0.0	99.6
=	95.5	0.0	0.0	99.5
=	96.2	0.0	0.0	99.5
=	96.8	0.0	0.0	99.4
=	97.4	0.0	0.0	99.4
=	98.0	0.0	0.0	99.4
=	98.6	0.0	0.0	99.4
=	99.2	0.0	0.0	99.3
=	99.9	0.0	0.0	99.3
=	100.3	0.0	0.0	99.2
=	100.7	0.0	0.0	99.2
=	101.2	0.0	0.0	99.2
=	101.9	0.0	0.0	99.1
=	102.4	0.0	0.0	99.1
=	103.1	0.0	0.0	99.0
=	103.7	0.0	0.0	99.0
=	104.2	0.0	0.0	99.0
=	104.6	0.0	0.0	98.9
=	105.0	0.0	0.0	98.9
=	105.5	0.0	0.0	98.8
=	106.1	0.0	0.0	98.8
=	106.5	0.0	0.0	98.8
=	106.9	0.0	0.0	98.7
=	107.5	0.0	0.0	98.6
=	108.0	0.0	0.0	98.6
=	108.4	0.0	0.0	98.5
=	108.8	0.0	0.0	98.5
=	109.3	0.0	0.0	98.5
=	109.9	0.0	0.0	98.4
=	110.5	0.0	0.0	98.4
=	111.2	0.0	0.0	98.3
=	111.7	0.0	0.0	98.3
=	112.3	0.0	0.0	98.2
=	112.9	0.0	0.0	98.2
=	113.5	0.0	0.0	98.1
=	114.1	0.0	0.0	98.0
=	114.6	0.0	0.0	97.9
=	115.2	0.0	0.0	97.8
=	116.0	0.0	0.0	97.7
=	117.0	0.0	0.0	97.6
=	117.7	0.0	0.0	97.5
=	118.7	0.0	0.0	97.4
=	119.4	0.0	0.0	97.3
=	120.3	0.0	0.0	97.2
=	121.3	0.0	0.0	97.1
=	122.2	0.0	0.0	97.0
=	122.7	0.0	0.0	96.9
=	123.3	0.0	0.0	96.8
=	124.4	0.0	0.0	96.6
=	125.2	0.0	0.0	96.5
=	125.7	0.0	0.0	96.4
=	126.3	0.0	0.0	96.3
=	126.8	0.0	0.0	96.2
=	127.4	0.0	0.0	96.1
=	127.8	0.0	0.0	96.0
=	128.4	0.0	0.0	96.0
=	129.1	0.0	0.0	95.9
=	129.6	0.0	0.0	95.8
=	130.3	0.0	0.0	95.6
=	130.8	0.0	0.0	95.5
=	131.5	0.0	0.0	95.4
=	132.1	0.0	0.0	95.3
=	132.7	0.0	0.0	95.2
=	133.3	0.0	0.0	95.1
=	133.9	0.0	0.0	95.0
=	134.4	0.0	0.0	94.9
=	135.0	0.0	0.0	94.8
=	135.4	0.0	0.0	94.6
=	135.8	0.0	0.0	94.6
=	136.2	0.0	0.0	94.5
=	136.7	0.0	0.0	94.3
=	137.1	0.0	0.0	94.2
=	137.5	0.0	0.0	94.1
=	138.0	0.0	0.0	94.0
=	138.7	0.0	0.0	93.8
=	139.2	0.0	0.0	93.7
=	139.9	0.0	0.0	93.6
=	140.5	0.0	0.0	93.5
=	141.1	0.0	0.0	93.3
=	141.7	0.0	0.0	93.1
=	142.3	0.0	0.0	93.0
=	142.9	0.0	0.0	92.8
=	143.5	0.0	0.0	92.6
=	144.1	0.0	0.0	92.4
=	144.7	0.0	0.0	92.3
=	145.3	0.0	0.0	92.2
=	146.1	0.0	0.0	92.0
=	146.7	0.0	0.0	91.7
=	147.3	0.0	0.0	91.6
=	148.0	0.0	0.0	91.4
=	148.5	0.0	0.0	91.2
=	149.2	0.0	0.0	91.0
=	149.8	0.0	0.0	90.8
=	150.4	0.0	0.0	90.6
=	151.0	0.0	0.0	90.4
=	151.6	0.0	0.0	90.2
=	152.2	0.0	0.0	90.0
=	152.8	0.0	0.0	89.8
=	153.4	0.0	0.0	89.6
=	154.0	0.0	0.0	89.3
=	154.6	0.0	0.0	89.2
=	155.2	0.0	0.0	88.9
=	155.8	0.0	0.0	88.6
=	156.4	0.0	0.0	88.4
=	157.0	0.0	0.0	88.2
=	157.7	0.0	0.0	87.9
=	158.3	0.0	0.0	87.7
=	158.9	0.0	0.0	87.5
=	159.5	0.0	0.0	87.2
=	159.9	0.0	0.0	87.0
=	160.5	0.0	0.0	86.7
=	160.9	0.0	0.0	86.5
=	161.6	0.0	0.0	86.2
=	162.2	0.0	0.0	85.9
=	162.7	0.0	0.0	85.7
=	163.3	0.0	0.0	85.4
=	164.0	0.0	0.0	85.1
=	164.4	0.0	0.0	84.8
=	164.9	0.0	0.0	84.6
=	165.6	0.0	0.0	84.2
=	166.1	0.0	0.0	83.9
=	166.6	0.0	0.0	83.6
=	167.2	0.0	0.0	83.4
=	167.8	0.0	0.0	83.0
=	168.4	0.0	0.0	82.7
=	169.0	0.0	0.0	82.4
=	169.6	0.0	0.0	82.0
=	170.2	0.0	0.0	81.6
=	170.8	0.0	0.0	81.2
=	171.4	0.0	0.0	80.9
=	172.0	0.0	0.0	80.5
=	172.6	0.0	0.0	80.0
=	173.2	0.0	0.0	79.7
=	173.8	0.0	0.0	79.3
=	174.4	0.0	0.0	78.8
=	175.0	0.0	0.0	78.4
=	175.6	0.0	0.0	78.1
=	176.0	0.0	0.0	77.7
=	176.6	0.0	0.0	77.3
=	177.2	0.0	0.0	76.9
=	177.8	0.0	0.0	76.4
=	178.4	0.0	0.0	75.9
=	179.0	0.0	0.0	75.5
=	179.4	0.0	0.0	75.1
=	180.0	0.0	0.0	74.6
=	180.6	0.0	0.0	74.1
=	181.2	0.0	0.0	73.6
=	181.9	0.0	0.0	73.1
=	182.5	0.0	0.0	72.5
=	183.1	0.0	0.0	72.0
=	183.7	0.0	0.0	71.4
=	184.3	0.0	0.0	70.8
=	184.9	0.0	0.0	70.3
=	185.5	0.0	0.0	69.8
=	186.1	0.0	0.0	69.2
=	186.7	0.0	0.0	68.6
=	187.3	0.0	0.0	68.0
=	187.9	0.0	0.0	67.3
=	188.5	0.0	0.0	66.7
=	189.1	0.0	0.0	66.1
=	189.7	0.0	0.0	65.5
=	190.3	0.0	0.0	64.9
=	191.0	0.0	0.0	64.3
=	191.5	0.0	0.0	63.6
=	192.1	0.0	0.0	63.0
=	192.5	0.0	0.0	62.5
=	193.0	0.0	0.0	62.0
=	193.5	0.0	0.0	61.4
=	193.9	0.0	0.0	61.0
=	194.4	0.0	0.0	60.4
=	194.8	0.0	0.0	59.9
=	195.2	0.0	0.0	59.5
=	195.6	0.0	0.0	59.0
=	196.0	0.0	0.0	58.5
=	196.6	0.0	0.0	57.9
=	197.0	0.0	0.0	57.4
=	197.4	0.0	0.0	56.9
=	197.8	0.0	0.0	56.5
=	198.2	0.0	0.0	56.0
=	198.8	0.0	0.0	55.2
=	199.4	0.0	0.0	54.5
=	200.0	0.0	0.0	53.8
=	200.6	0.0	0.0	53.0
=	201.2	0.0	0.0	52.3
=	201.8	0.0	0.0	51.4
=	202.4	0.0	0.0	50.7
=	203.0	0.0	0.0	50.0
=	203.6	0.0	0.0	49.2
=	204.3	0.0	0.0	48.4
=	204.8	0.0	0.0	47.7
=	205.5	0.0	0.0	46.9
=	206.0	0.0	0.0	46.2
=	206.7	0.0	0.0	45.5
=	207.3	0.0	0.0	44.7
=	207.9	0.0	0.0	43.8
=	208.5	0.0	0.0	43.1
=	209.1	0.0	0.0	42.4
=	209.6	0.0	0.0	41.8
=	210.1	0.0	0.0	41.1
=	210.7	0.0	0.0	40.4
=	211.3	0.0	0.0	39.7
=	212.0	0.0	0.0	38.9
=	212.5	0.0	0.0	38.2
=	213.1	0.0	0.0	37.4
=	213.7	0.0	0.0	36.7
=	214.4	0.0	0.0	36.0
=	214.9	0.0	0.0	35.3
=	215.6	0.0	0.0	34.6
=	216.1	0.0	0.0	33.9
=	216.8	0.0	0.0	33.2
=	217.3	0.0	0.0	32.6
=	217.7	0.0	0.0	32.1
=	218.3	0.0	0.0	31.4
=	218.9	0.0	0.0	30.7
=	219.5	0.0	0.0	30.1
=	220.1	0.0	0.0	29.5
=	220.5	0.0	0.0	29.1
=	221.0	0.0	0.0	28.6
=	221.6	0.0	0.0	27.9
=	222.2	0.0	0.0	27.3
=	222.6	0.0	0.0	26.9
=	223.0	0.0	0.0	26.4
=	223.5	0.0	0.0	26.0
=	223.9	0.0	0.0	25.6
=	224.4	0.0	0.0	25.2
=	225.0	0.0	0.0	24.6
=	225.6	0.0	0.0	24.0
=	226.2	0.0	0.0	23.5
=	226.8	0.0	0.0	23.0
=	227.4	0.0	0.0	22.4
=	228.0	0.0	0.0	21.9
=	228.6	0.0	0.0	21.4
=	229.1	0.0	0.0	21.0
=	229.6	0.0	0.0	20.6
=	230.2	0.0	0.0	20.2
=	230.6	0.0	0.0	19.8
=	231.1	0.0	0.0	19.5
=	231.7	0.0	0.0	19.0
=	232.2	0.0	0.0	18.6
=	232.8	0.0	0.0	18.2
=	233.3	0.0	0.0	17.8
=	233.8	0.0	0.0	17.5
=	234.5	0.0	0.0	17.1
=	234.9	0.0	0.0	16.8
=	235.3	0.0	0.0	16.5
=	235.9	0.0	0.0	16.1
:EOM # End of Measurement

:EOF # End of File