:MSR 	1	 # No. of measurement in file
:SYS BDS 0   # Beam Data Scanner System
#
# RFA300 ASCII Measurement Dump ( BDS format )
#
# Measurement number 	1
#
%VNR 1.0
%MOD 	RAT
%TYP 	SCN
%SCN 	DPT
%FLD 	ION
%DAT 	10-04-2011
%TIM 	12:00:00
%FSZ 	400	400
%BMT 	ELE	   6.0
%SSD 	
%BUP 	0
%BRD 	
%FSH 	1
%ASC 	0
%WEG 	0
%GPO 	0
%CPO 	0
%MEA 	1
%PRD 	0,0
%PTS 	734
%STS 	    0.0	  0.0	   0.0 # Start Scan values in mm ( X , Y , Z )
%EDS 	    0.0	   0.0	   148.5 # End Scan values in mm ( X , Y , Z )
#
#	  X      Y      Z     Dose
#
=	0.0	0.0	0.0	79.0
=	0.0	0.0	0.2	79.2
=	0.0	0.0	0.3	79.3
=	0.0	0.0	0.5	79.7
=	0.0	0.0	0.6	79.9
=	0.0	0.0	0.9	80.4
=	0.0	0.0	1.2	80.9
=	0.0	0.0	1.4	81.3
=	0.0	0.0	1.5	81.6
=	0.0	0.0	1.8	82.2
=	0.0	0.0	2.1	82.8
=	0.0	0.0	2.2	83.1
=	0.0	0.0	2.4	83.5
=	0.0	0.0	2.6	84.0
=	0.0	0.0	3.0	84.7
=	0.0	0.0	3.3	85.4
=	0.0	0.0	3.7	86.2
=	0.0	0.0	3.8	86.6
=	0.0	0.0	4.0	86.8
=	0.0	0.0	4.2	87.4
=	0.0	0.0	4.5	88.2
=	0.0	0.0	4.6	88.4
=	0.0	0.0	4.8	88.7
=	0.0	0.0	5.0	89.2
=	0.0	0.0	5.1	89.4
=	0.0	0.0	5.4	90.1
=	0.0	0.0	5.7	90.8
=	0.0	0.0	6.1	91.6
=	0.0	0.0	6.2	91.9
=	0.0	0.0	6.3	92.2
=	0.0	0.0	6.6	92.8
=	0.0	0.0	7.0	93.5
=	0.0	0.0	7.3	94.1
=	0.0	0.0	7.4	94.4
=	0.0	0.0	7.6	94.7
=	0.0	0.0	7.9	95.3
=	0.0	0.0	8.2	95.9
=	0.0	0.0	8.3	96.2
=	0.0	0.0	8.5	96.5
=	0.0	0.0	8.7	96.8
=	0.0	0.0	8.8	97.0
=	0.0	0.0	9.1	97.5
=	0.0	0.0	9.4	98.1
=	0.0	0.0	9.5	98.3
=	0.0	0.0	9.7	98.5
=	0.0	0.0	9.9	98.8
=	0.0	0.0	10.0	98.9
=	0.0	0.0	10.3	99.2
=	0.0	0.0	10.6	99.4
=	0.0	0.0	10.9	99.5
=	0.0	0.0	11.2	99.6
=	0.0	0.0	11.3	99.6
=	0.0	0.0	11.5	99.7
=	0.0	0.0	11.9	99.8
=	0.0	0.0	12.0	99.8
=	0.0	0.0	12.2	99.9
=	0.0	0.0	12.4	99.9
=	0.0	0.0	12.7	100.0
=	0.0	0.0	13.0	99.9
=	0.0	0.0	13.2	99.8
=	0.0	0.0	13.4	99.7
=	0.0	0.0	13.6	99.4
=	0.0	0.0	14.0	99.0
=	0.0	0.0	14.3	98.5
=	0.0	0.0	14.4	98.3
=	0.0	0.0	14.6	98.0
=	0.0	0.0	14.8	97.4
=	0.0	0.0	15.2	96.6
=	0.0	0.0	15.4	95.9
=	0.0	0.0	15.8	94.9
=	0.0	0.0	16.1	94.0
=	0.0	0.0	16.2	93.5
=	0.0	0.0	16.4	93.0
=	0.0	0.0	16.6	92.1
=	0.0	0.0	17.0	90.5
=	0.0	0.0	17.3	89.2
=	0.0	0.0	17.5	88.3
=	0.0	0.0	17.6	87.7
=	0.0	0.0	17.9	86.4
=	0.0	0.0	18.0	85.8
=	0.0	0.0	18.2	84.8
=	0.0	0.0	18.5	83.5
=	0.0	0.0	18.7	82.5
=	0.0	0.0	18.8	81.8
=	0.0	0.0	19.1	80.2
=	0.0	0.0	19.4	78.1
=	0.0	0.0	19.5	77.4
=	0.0	0.0	19.7	76.2
=	0.0	0.0	20.0	74.6
=	0.0	0.0	20.3	72.3
=	0.0	0.0	20.7	70.1
=	0.0	0.0	20.8	69.4
=	0.0	0.0	20.9	68.2
=	0.0	0.0	21.1	66.7
=	0.0	0.0	21.2	65.9
=	0.0	0.0	21.6	63.6
=	0.0	0.0	21.9	61.4
=	0.0	0.0	22.0	60.6
=	0.0	0.0	22.2	59.2
=	0.0	0.0	22.4	57.7
=	0.0	0.0	22.5	57.0
=	0.0	0.0	22.7	55.0
=	0.0	0.0	23.0	52.5
=	0.0	0.0	23.2	51.3
=	0.0	0.0	23.4	49.8
=	0.0	0.0	23.6	47.7
=	0.0	0.0	23.7	46.6
=	0.0	0.0	24.0	44.7
=	0.0	0.0	24.3	42.9
=	0.0	0.0	24.4	42.1
=	0.0	0.0	24.5	40.8
=	0.0	0.0	24.8	38.6
=	0.0	0.0	25.2	35.8
=	0.0	0.0	25.5	33.6
=	0.0	0.0	25.6	32.5
=	0.0	0.0	25.8	31.4
=	0.0	0.0	26.0	30.0
=	0.0	0.0	26.1	29.2
=	0.0	0.0	26.4	27.1
=	0.0	0.0	26.7	25.1
=	0.0	0.0	26.9	24.0
=	0.0	0.0	27.0	23.2
=	0.0	0.0	27.3	21.5
=	0.0	0.0	27.6	19.5
=	0.0	0.0	27.7	18.9
=	0.0	0.0	27.9	17.7
=	0.0	0.0	28.1	16.5
=	0.0	0.0	28.3	16.0
=	0.0	0.0	28.5	14.8
=	0.0	0.0	28.8	13.2
=	0.0	0.0	28.9	12.7
=	0.0	0.0	29.2	11.6
=	0.0	0.0	29.3	10.9
=	0.0	0.0	29.5	10.2
=	0.0	0.0	29.8	9.2
=	0.0	0.0	30.1	8.2
=	0.0	0.0	30.2	7.7
=	0.0	0.0	30.3	7.4
=	0.0	0.0	30.6	6.6
=	0.0	0.0	30.9	5.6
=	0.0	0.0	31.3	4.7
=	0.0	0.0	31.4	4.5
=	0.0	0.0	31.5	4.1
=	0.0	0.0	31.8	3.7
=	0.0	0.0	32.0	3.4
=	0.0	0.0	32.1	3.1
=	0.0	0.0	32.4	2.7
=	0.0	0.0	32.8	2.3
=	0.0	0.0	33.0	2.0
=	0.0	0.0	33.4	1.7
=	0.0	0.0	33.7	1.5
=	0.0	0.0	33.8	1.5
=	0.0	0.0	34.0	1.4
=	0.0	0.0	34.1	1.3
=	0.0	0.0	34.3	1.2
=	0.0	0.0	34.6	1.1
=	0.0	0.0	34.9	1.0
=	0.0	0.0	35.0	1.0
=	0.0	0.0	35.2	0.9
=	0.0	0.0	35.4	0.9
=	0.0	0.0	35.5	0.9
=	0.0	0.0	35.8	0.9
=	0.0	0.0	36.1	0.8
=	0.0	0.0	36.2	0.8
=	0.0	0.0	36.4	0.8
=	0.0	0.0	36.7	0.8
=	0.0	0.0	37.0	0.8
=	0.0	0.0	37.3	0.8
=	0.0	0.0	37.4	0.8
=	0.0	0.0	37.6	0.7
=	0.0	0.0	37.9	0.7
=	0.0	0.0	38.0	0.7
=	0.0	0.0	38.2	0.7
=	0.0	0.0	38.6	0.7
=	0.0	0.0	38.7	0.7
=	0.0	0.0	38.9	0.7
=	0.0	0.0	39.1	0.7
=	0.0	0.0	39.5	0.7
=	0.0	0.0	39.8	0.7
=	0.0	0.0	39.9	0.7
=	0.0	0.0	40.1	0.7
=	0.0	0.0	40.3	0.7
=	0.0	0.0	40.7	0.7
=	0.0	0.0	41.0	0.7
=	0.0	0.0	41.2	0.7
=	0.0	0.0	41.3	0.7
=	0.0	0.0	41.6	0.7
=	0.0	0.0	41.9	0.7
=	0.0	0.0	42.2	0.7
=	0.0	0.0	42.4	0.7
=	0.0	0.0	42.5	0.7
=	0.0	0.0	42.8	0.7
=	0.0	0.0	43.1	0.7
=	0.0	0.0	43.2	0.7
=	0.0	0.0	43.4	0.7
=	0.0	0.0	43.6	0.7
=	0.0	0.0	43.8	0.7
=	0.0	0.0	44.0	0.7
=	0.0	0.0	44.3	0.7
=	0.0	0.0	44.4	0.7
=	0.0	0.0	44.6	0.7
=	0.0	0.0	44.8	0.7
=	0.0	0.0	44.9	0.7
=	0.0	0.0	45.1	0.7
=	0.0	0.0	45.3	0.7
=	0.0	0.0	45.5	0.7
=	0.0	0.0	45.6	0.7
=	0.0	0.0	45.9	0.7
=	0.0	0.0	46.1	0.7
=	0.0	0.0	46.2	0.7
=	0.0	0.0	46.4	0.7
=	0.0	0.0	46.5	0.7
=	0.0	0.0	46.7	0.7
=	0.0	0.0	46.9	0.7
=	0.0	0.0	47.0	0.7
=	0.0	0.0	47.3	0.7
=	0.0	0.0	47.6	0.7
=	0.0	0.0	47.8	0.7
=	0.0	0.0	47.9	0.7
=	0.0	0.0	48.2	0.7
=	0.0	0.0	48.5	0.7
=	0.0	0.0	48.8	0.7
=	0.0	0.0	49.2	0.7
=	0.0	0.0	49.3	0.7
=	0.0	0.0	49.4	0.7
=	0.0	0.0	49.7	0.7
=	0.0	0.0	50.1	0.7
=	0.0	0.0	50.4	0.7
=	0.0	0.0	50.6	0.7
=	0.0	0.0	50.7	0.7
=	0.0	0.0	51.0	0.7
=	0.0	0.0	51.3	0.7
=	0.0	0.0	51.6	0.7
=	0.0	0.0	52.0	0.7
=	0.0	0.0	52.1	0.7
=	0.0	0.0	52.2	0.7
=	0.0	0.0	52.5	0.7
=	0.0	0.0	52.7	0.7
=	0.0	0.0	52.8	0.7
=	0.0	0.0	53.0	0.7
=	0.0	0.0	53.1	0.7
=	0.0	0.0	53.4	0.7
=	0.0	0.0	53.5	0.7
=	0.0	0.0	53.7	0.7
=	0.0	0.0	54.1	0.7
=	0.0	0.0	54.2	0.7
=	0.0	0.0	54.4	0.7
=	0.0	0.0	54.6	0.7
=	0.0	0.0	54.7	0.7
=	0.0	0.0	54.9	0.7
=	0.0	0.0	55.2	0.7
=	0.0	0.0	55.3	0.7
=	0.0	0.0	55.5	0.7
=	0.0	0.0	55.7	0.7
=	0.0	0.0	55.8	0.7
=	0.0	0.0	56.0	0.7
=	0.0	0.0	56.2	0.7
=	0.0	0.0	56.3	0.7
=	0.0	0.0	56.4	0.7
=	0.0	0.0	56.6	0.7
=	0.0	0.0	56.8	0.7
=	0.0	0.0	56.9	0.7
=	0.0	0.0	57.0	0.7
=	0.0	0.0	57.2	0.7
=	0.0	0.0	57.4	0.7
=	0.0	0.0	57.5	0.7
=	0.0	0.0	57.7	0.7
=	0.0	0.0	57.8	0.7
=	0.0	0.0	58.0	0.7
=	0.0	0.0	58.1	0.7
=	0.0	0.0	58.3	0.7
=	0.0	0.0	58.4	0.7
=	0.0	0.0	58.5	0.7
=	0.0	0.0	58.7	0.7
=	0.0	0.0	58.9	0.7
=	0.0	0.0	59.1	0.7
=	0.0	0.0	59.2	0.7
=	0.0	0.0	59.4	0.7
=	0.0	0.0	59.5	0.7
=	0.0	0.0	59.7	0.7
=	0.0	0.0	60.0	0.7
=	0.0	0.0	60.2	0.7
=	0.0	0.0	60.3	0.7
=	0.0	0.0	60.4	0.7
=	0.0	0.0	60.6	0.7
=	0.0	0.0	60.8	0.7
=	0.0	0.0	61.0	0.7
=	0.0	0.0	61.2	0.7
=	0.0	0.0	61.3	0.7
=	0.0	0.0	61.6	0.7
=	0.0	0.0	61.9	0.7
=	0.0	0.0	62.2	0.7
=	0.0	0.0	62.3	0.7
=	0.0	0.0	62.5	0.7
=	0.0	0.0	62.8	0.7
=	0.0	0.0	63.1	0.7
=	0.0	0.0	63.2	0.7
=	0.0	0.0	63.4	0.7
=	0.0	0.0	63.6	0.7
=	0.0	0.0	63.7	0.7
=	0.0	0.0	64.0	0.7
=	0.0	0.0	64.3	0.7
=	0.0	0.0	64.6	0.7
=	0.0	0.0	64.8	0.7
=	0.0	0.0	64.9	0.7
=	0.0	0.0	65.2	0.7
=	0.0	0.0	65.6	0.7
=	0.0	0.0	65.9	0.7
=	0.0	0.0	66.0	0.7
=	0.0	0.0	66.2	0.7
=	0.0	0.0	66.4	0.7
=	0.0	0.0	66.5	0.7
=	0.0	0.0	66.8	0.7
=	0.0	0.0	67.1	0.7
=	0.0	0.0	67.3	0.7
=	0.0	0.0	67.4	0.7
=	0.0	0.0	67.6	0.7
=	0.0	0.0	67.7	0.7
=	0.0	0.0	68.0	0.7
=	0.0	0.0	68.3	0.7
=	0.0	0.0	68.5	0.7
=	0.0	0.0	68.7	0.7
=	0.0	0.0	68.9	0.7
=	0.0	0.0	69.2	0.7
=	0.0	0.0	69.3	0.7
=	0.0	0.0	69.5	0.7
=	0.0	0.0	69.8	0.7
=	0.0	0.0	69.9	0.7
=	0.0	0.0	70.1	0.7
=	0.0	0.0	70.4	0.7
=	0.0	0.0	70.7	0.7
=	0.0	0.0	70.9	0.7
=	0.0	0.0	71.0	0.7
=	0.0	0.0	71.2	0.7
=	0.0	0.0	71.3	0.7
=	0.0	0.0	71.5	0.7
=	0.0	0.0	71.6	0.7
=	0.0	0.0	71.8	0.7
=	0.0	0.0	72.0	0.7
=	0.0	0.0	72.2	0.7
=	0.0	0.0	72.3	0.7
=	0.0	0.0	72.4	0.7
=	0.0	0.0	72.5	0.7
=	0.0	0.0	72.7	0.7
=	0.0	0.0	73.0	0.7
=	0.0	0.0	73.1	0.7
=	0.0	0.0	73.3	0.7
=	0.0	0.0	73.5	0.7
=	0.0	0.0	73.7	0.7
=	0.0	0.0	74.0	0.7
=	0.0	0.0	74.2	0.7
=	0.0	0.0	74.4	0.7
=	0.0	0.0	74.6	0.7
=	0.0	0.0	74.9	0.7
=	0.0	0.0	75.2	0.7
=	0.0	0.0	75.4	0.7
=	0.0	0.0	75.5	0.7
=	0.0	0.0	75.8	0.7
=	0.0	0.0	75.9	0.7
=	0.0	0.0	76.1	0.7
=	0.0	0.0	76.2	0.7
=	0.0	0.0	76.4	0.7
=	0.0	0.0	76.5	0.7
=	0.0	0.0	76.6	0.7
=	0.0	0.0	76.8	0.7
=	0.0	0.0	77.0	0.7
=	0.0	0.0	77.1	0.7
=	0.0	0.0	77.3	0.7
=	0.0	0.0	77.5	0.7
=	0.0	0.0	77.6	0.7
=	0.0	0.0	77.8	0.7
=	0.0	0.0	78.0	0.7
=	0.0	0.0	78.2	0.7
=	0.0	0.0	78.5	0.7
=	0.0	0.0	78.6	0.7
=	0.0	0.0	78.8	0.7
=	0.0	0.0	78.9	0.7
=	0.0	0.0	79.1	0.7
=	0.0	0.0	79.2	0.7
=	0.0	0.0	79.5	0.7
=	0.0	0.0	79.7	0.7
=	0.0	0.0	79.9	0.7
=	0.0	0.0	80.0	0.7
=	0.0	0.0	80.2	0.7
=	0.0	0.0	80.3	0.7
=	0.0	0.0	80.4	0.7
=	0.0	0.0	80.6	0.7
=	0.0	0.0	80.8	0.7
=	0.0	0.0	81.0	0.7
=	0.0	0.0	81.2	0.7
=	0.0	0.0	81.3	0.7
=	0.0	0.0	81.6	0.7
=	0.0	0.0	81.7	0.7
=	0.0	0.0	81.9	0.7
=	0.0	0.0	82.3	0.7
=	0.0	0.0	82.6	0.7
=	0.0	0.0	82.8	0.7
=	0.0	0.0	82.9	0.7
=	0.0	0.0	83.2	0.7
=	0.0	0.0	83.5	0.7
=	0.0	0.0	83.6	0.7
=	0.0	0.0	83.8	0.7
=	0.0	0.0	84.0	0.7
=	0.0	0.0	84.1	0.7
=	0.0	0.0	84.4	0.7
=	0.0	0.0	84.7	0.7
=	0.0	0.0	85.1	0.6
=	0.0	0.0	85.2	0.6
=	0.0	0.0	85.3	0.6
=	0.0	0.0	85.6	0.6
=	0.0	0.0	86.0	0.6
=	0.0	0.0	86.3	0.7
=	0.0	0.0	86.5	0.7
=	0.0	0.0	86.6	0.7
=	0.0	0.0	86.8	0.7
=	0.0	0.0	87.1	0.6
=	0.0	0.0	87.2	0.6
=	0.0	0.0	87.5	0.7
=	0.0	0.0	87.6	0.7
=	0.0	0.0	87.8	0.7
=	0.0	0.0	88.0	0.7
=	0.0	0.0	88.5	0.6
=	0.0	0.0	88.7	0.6
=	0.0	0.0	88.9	0.7
=	0.0	0.0	89.1	0.7
=	0.0	0.0	89.3	0.7
=	0.0	0.0	89.6	0.7
=	0.0	0.0	89.7	0.7
=	0.0	0.0	89.9	0.7
=	0.0	0.0	90.1	0.7
=	0.0	0.0	90.3	0.7
=	0.0	0.0	90.5	0.6
=	0.0	0.0	90.6	0.6
=	0.0	0.0	90.8	0.6
=	0.0	0.0	91.1	0.6
=	0.0	0.0	91.3	0.6
=	0.0	0.0	91.4	0.6
=	0.0	0.0	91.5	0.6
=	0.0	0.0	91.7	0.6
=	0.0	0.0	91.9	0.6
=	0.0	0.0	92.0	0.6
=	0.0	0.0	92.3	0.6
=	0.0	0.0	92.5	0.6
=	0.0	0.0	92.6	0.6
=	0.0	0.0	92.8	0.6
=	0.0	0.0	92.9	0.6
=	0.0	0.0	93.1	0.6
=	0.0	0.0	93.2	0.6
=	0.0	0.0	93.4	0.6
=	0.0	0.0	93.5	0.6
=	0.0	0.0	93.7	0.6
=	0.0	0.0	93.8	0.6
=	0.0	0.0	94.0	0.6
=	0.0	0.0	94.1	0.6
=	0.0	0.0	94.3	0.6
=	0.0	0.0	94.4	0.6
=	0.0	0.0	94.6	0.6
=	0.0	0.0	94.8	0.6
=	0.0	0.0	94.9	0.6
=	0.0	0.0	95.1	0.6
=	0.0	0.0	95.3	0.6
=	0.0	0.0	95.5	0.6
=	0.0	0.0	95.7	0.6
=	0.0	0.0	95.8	0.6
=	0.0	0.0	96.0	0.6
=	0.0	0.0	96.1	0.6
=	0.0	0.0	96.5	0.6
=	0.0	0.0	96.6	0.6
=	0.0	0.0	96.8	0.6
=	0.0	0.0	96.9	0.6
=	0.0	0.0	97.1	0.6
=	0.0	0.0	97.2	0.6
=	0.0	0.0	97.4	0.6
=	0.0	0.0	97.5	0.6
=	0.0	0.0	97.7	0.6
=	0.0	0.0	98.0	0.6
=	0.0	0.0	98.1	0.6
=	0.0	0.0	98.3	0.6
=	0.0	0.0	98.5	0.6
=	0.0	0.0	98.7	0.6
=	0.0	0.0	98.9	0.6
=	0.0	0.0	99.2	0.6
=	0.0	0.0	99.6	0.6
=	0.0	0.0	99.7	0.6
=	0.0	0.0	99.9	0.6
=	0.0	0.0	100.1	0.6
=	0.0	0.0	100.5	0.6
=	0.0	0.0	100.8	0.6
=	0.0	0.0	100.9	0.6
=	0.0	0.0	101.1	0.6
=	0.0	0.0	101.4	0.6
=	0.0	0.0	101.7	0.6
=	0.0	0.0	102.0	0.6
=	0.0	0.0	102.2	0.6
=	0.0	0.0	102.3	0.6
=	0.0	0.0	102.6	0.6
=	0.0	0.0	102.9	0.6
=	0.0	0.0	103.1	0.6
=	0.0	0.0	103.2	0.6
=	0.0	0.0	103.5	0.6
=	0.0	0.0	103.8	0.6
=	0.0	0.0	104.2	0.6
=	0.0	0.0	104.4	0.6
=	0.0	0.0	104.7	0.6
=	0.0	0.0	104.8	0.6
=	0.0	0.0	105.1	0.6
=	0.0	0.0	105.4	0.6
=	0.0	0.0	105.7	0.6
=	0.0	0.0	105.9	0.6
=	0.0	0.0	106.1	0.6
=	0.0	0.0	106.2	0.6
=	0.0	0.0	106.3	0.6
=	0.0	0.0	106.5	0.6
=	0.0	0.0	106.7	0.6
=	0.0	0.0	106.9	0.6
=	0.0	0.0	107.1	0.6
=	0.0	0.0	107.2	0.6
=	0.0	0.0	107.4	0.6
=	0.0	0.0	107.6	0.6
=	0.0	0.0	107.8	0.6
=	0.0	0.0	108.1	0.6
=	0.0	0.0	108.3	0.6
=	0.0	0.0	108.4	0.6
=	0.0	0.0	108.5	0.6
=	0.0	0.0	108.7	0.6
=	0.0	0.0	108.8	0.6
=	0.0	0.0	109.0	0.6
=	0.0	0.0	109.1	0.6
=	0.0	0.0	109.2	0.6
=	0.0	0.0	109.4	0.6
=	0.0	0.0	109.6	0.6
=	0.0	0.0	109.7	0.6
=	0.0	0.0	109.9	0.6
=	0.0	0.0	110.0	0.6
=	0.0	0.0	110.1	0.6
=	0.0	0.0	110.3	0.6
=	0.0	0.0	110.5	0.6
=	0.0	0.0	110.6	0.6
=	0.0	0.0	110.8	0.6
=	0.0	0.0	110.9	0.6
=	0.0	0.0	111.1	0.6
=	0.0	0.0	111.3	0.6
=	0.0	0.0	111.6	0.6
=	0.0	0.0	111.9	0.6
=	0.0	0.0	112.0	0.6
=	0.0	0.0	112.2	0.6
=	0.0	0.0	112.3	0.6
=	0.0	0.0	112.5	0.6
=	0.0	0.0	112.6	0.6
=	0.0	0.0	112.8	0.6
=	0.0	0.0	113.1	0.6
=	0.0	0.0	113.4	0.6
=	0.0	0.0	113.6	0.6
=	0.0	0.0	113.7	0.6
=	0.0	0.0	114.0	0.6
=	0.0	0.0	114.1	0.6
=	0.0	0.0	114.3	0.6
=	0.0	0.0	114.7	0.6
=	0.0	0.0	114.8	0.6
=	0.0	0.0	114.9	0.6
=	0.0	0.0	115.3	0.5
=	0.0	0.0	115.6	0.5
=	0.0	0.0	115.9	0.5
=	0.0	0.0	116.1	0.5
=	0.0	0.0	116.2	0.5
=	0.0	0.0	116.5	0.5
=	0.0	0.0	116.6	0.5
=	0.0	0.0	116.8	0.5
=	0.0	0.0	117.1	0.5
=	0.0	0.0	117.3	0.5
=	0.0	0.0	117.4	0.5
=	0.0	0.0	117.7	0.5
=	0.0	0.0	118.0	0.5
=	0.0	0.0	118.4	0.5
=	0.0	0.0	118.5	0.5
=	0.0	0.0	118.7	0.5
=	0.0	0.0	118.9	0.5
=	0.0	0.0	119.0	0.5
=	0.0	0.0	119.3	0.5
=	0.0	0.0	119.6	0.5
=	0.0	0.0	119.7	0.5
=	0.0	0.0	119.9	0.5
=	0.0	0.0	120.1	0.5
=	0.0	0.0	120.3	0.5
=	0.0	0.0	120.5	0.5
=	0.0	0.0	120.6	0.5
=	0.0	0.0	120.8	0.5
=	0.0	0.0	120.9	0.5
=	0.0	0.0	121.1	0.5
=	0.0	0.0	121.4	0.5
=	0.0	0.0	121.5	0.5
=	0.0	0.0	121.7	0.5
=	0.0	0.0	122.0	0.5
=	0.0	0.0	122.1	0.5
=	0.0	0.0	122.2	0.5
=	0.0	0.0	122.4	0.5
=	0.0	0.0	122.6	0.5
=	0.0	0.0	122.9	0.5
=	0.0	0.0	123.0	0.5
=	0.0	0.0	123.2	0.5
=	0.0	0.0	123.3	0.5
=	0.0	0.0	123.4	0.5
=	0.0	0.0	123.6	0.5
=	0.0	0.0	123.8	0.5
=	0.0	0.0	124.1	0.5
=	0.0	0.0	124.5	0.5
=	0.0	0.0	124.7	0.5
=	0.0	0.0	124.8	0.5
=	0.0	0.0	125.1	0.5
=	0.0	0.0	125.3	0.5
=	0.0	0.0	125.4	0.5
=	0.0	0.0	125.6	0.5
=	0.0	0.0	125.8	0.5
=	0.0	0.0	126.0	0.5
=	0.0	0.0	126.2	0.5
=	0.0	0.0	126.3	0.5
=	0.0	0.0	126.6	0.5
=	0.0	0.0	126.7	0.5
=	0.0	0.0	126.9	0.5
=	0.0	0.0	127.1	0.5
=	0.0	0.0	127.3	0.5
=	0.0	0.0	127.5	0.5
=	0.0	0.0	127.8	0.5
=	0.0	0.0	127.9	0.5
=	0.0	0.0	128.1	0.5
=	0.0	0.0	128.2	0.5
=	0.0	0.0	128.4	0.5
=	0.0	0.0	128.6	0.5
=	0.0	0.0	128.8	0.5
=	0.0	0.0	129.0	0.5
=	0.0	0.0	129.1	0.5
=	0.0	0.0	129.3	0.5
=	0.0	0.0	129.4	0.5
=	0.0	0.0	129.6	0.5
=	0.0	0.0	129.7	0.5
=	0.0	0.0	129.9	0.5
=	0.0	0.0	130.0	0.5
=	0.0	0.0	130.2	0.5
=	0.0	0.0	130.3	0.5
=	0.0	0.0	130.5	0.5
=	0.0	0.0	130.6	0.5
=	0.0	0.0	130.9	0.5
=	0.0	0.0	131.1	0.5
=	0.0	0.0	131.3	0.5
=	0.0	0.0	131.4	0.5
=	0.0	0.0	131.5	0.5
=	0.0	0.0	131.7	0.5
=	0.0	0.0	131.9	0.5
=	0.0	0.0	132.2	0.5
=	0.0	0.0	132.3	0.5
=	0.0	0.0	132.5	0.5
=	0.0	0.0	132.6	0.5
=	0.0	0.0	132.7	0.5
=	0.0	0.0	133.0	0.5
=	0.0	0.0	133.1	0.5
=	0.0	0.0	133.2	0.5
=	0.0	0.0	133.4	0.5
=	0.0	0.0	133.5	0.5
=	0.0	0.0	133.7	0.5
=	0.0	0.0	134.0	0.5
=	0.0	0.0	134.1	0.5
=	0.0	0.0	134.3	0.5
=	0.0	0.0	134.7	0.5
=	0.0	0.0	135.0	0.5
=	0.0	0.0	135.2	0.5
=	0.0	0.0	135.3	0.5
=	0.0	0.0	135.6	0.5
=	0.0	0.0	135.9	0.5
=	0.0	0.0	136.0	0.5
=	0.0	0.0	136.2	0.5
=	0.0	0.0	136.4	0.5
=	0.0	0.0	136.5	0.5
=	0.0	0.0	136.8	0.5
=	0.0	0.0	137.1	0.5
=	0.0	0.0	137.2	0.5
=	0.0	0.0	137.4	0.5
=	0.0	0.0	137.5	0.5
=	0.0	0.0	137.7	0.5
=	0.0	0.0	138.0	0.5
=	0.0	0.0	138.4	0.5
=	0.0	0.0	138.7	0.5
=	0.0	0.0	138.8	0.5
=	0.0	0.0	139.0	0.5
=	0.0	0.0	139.1	0.5
=	0.0	0.0	139.3	0.5
=	0.0	0.0	139.5	0.5
=	0.0	0.0	139.7	0.5
=	0.0	0.0	139.9	0.5
=	0.0	0.0	140.0	0.5
=	0.0	0.0	140.2	0.5
=	0.0	0.0	140.3	0.5
=	0.0	0.0	140.4	0.5
=	0.0	0.0	140.6	0.5
=	0.0	0.0	140.8	0.5
=	0.0	0.0	140.9	0.5
=	0.0	0.0	141.1	0.5
=	0.0	0.0	141.2	0.5
=	0.0	0.0	141.4	0.5
=	0.0	0.0	141.5	0.5
=	0.0	0.0	141.6	0.5
=	0.0	0.0	141.8	0.5
=	0.0	0.0	141.9	0.5
=	0.0	0.0	142.1	0.5
=	0.0	0.0	142.3	0.5
=	0.0	0.0	142.4	0.5
=	0.0	0.0	142.6	0.5
=	0.0	0.0	142.8	0.5
=	0.0	0.0	143.1	0.5
=	0.0	0.0	143.4	0.5
=	0.0	0.0	143.6	0.5
=	0.0	0.0	143.7	0.5
=	0.0	0.0	144.0	0.5
=	0.0	0.0	144.3	0.5
=	0.0	0.0	144.4	0.5
=	0.0	0.0	144.6	0.5
=	0.0	0.0	144.8	0.5
=	0.0	0.0	145.0	0.5
=	0.0	0.0	145.2	0.5
=	0.0	0.0	145.3	0.5
=	0.0	0.0	145.6	0.5
=	0.0	0.0	145.7	0.5
=	0.0	0.0	145.9	0.5
=	0.0	0.0	146.1	0.5
=	0.0	0.0	146.2	0.5
=	0.0	0.0	146.5	0.5
=	0.0	0.0	146.9	0.5
=	0.0	0.0	147.1	0.5
=	0.0	0.0	147.3	0.5
=	0.0	0.0	147.4	0.5
=	0.0	0.0	147.6	0.5
=	0.0	0.0	147.9	0.5
=	0.0	0.0	148.0	0.5
=	0.0	0.0	148.4	0.4
=	0.0	0.0	148.5	0.4
:EOM # End of Measurement

:EOF # End of File