:MSR 	5	 # No. of measurement in file
:SYS BDS 0   # Beam Data Scanner System
#
# RFA300 ASCII Measurement Dump ( BDS format )
#
# Measurement number 	1
#
%VNR 1.0
%MOD 	RAT
%TYP 	SCN
%SCN 	PRO
%FLD 	ION
%DAT 	10-14-2011
%TIM 	12:00:00
%FSZ 	400	150
%BMT 	PHO	   10.0
%SSD 	1000
%BUP 	0
%BRD 	1000
%FSH 	1
%ASC 	0
%WEG 	60
%GPO 	0
%CPO 	0
%MEA 	6
%PRD 	24,0
%PTS 	829
%STS 	    -254.6	  0.0	   24.0 # Start Scan values in mm ( X , Y , Z )
%EDS 	    254.4	   0.0	   24.0 # End Scan values in mm ( X , Y , Z )
#
#	  X      Y      Z     Dose
#
=	-254.6	0.0	24.0	7.6
=	-254.0	0.0	24.0	7.6
=	-253.2	0.0	24.0	7.6
=	-252.5	0.0	24.0	7.7
=	-252.0	0.0	24.0	7.7
=	-251.3	0.0	24.0	7.7
=	-250.5	0.0	24.0	7.8
=	-250.0	0.0	24.0	7.8
=	-249.5	0.0	24.0	7.8
=	-248.7	0.0	24.0	7.8
=	-248.0	0.0	24.0	7.9
=	-247.4	0.0	24.0	7.9
=	-246.7	0.0	24.0	8.0
=	-246.1	0.0	24.0	8.0
=	-245.4	0.0	24.0	8.0
=	-244.8	0.0	24.0	8.0
=	-244.2	0.0	24.0	8.1
=	-243.6	0.0	24.0	8.1
=	-243.1	0.0	24.0	8.1
=	-242.5	0.0	24.0	8.1
=	-242.0	0.0	24.0	8.2
=	-241.5	0.0	24.0	8.2
=	-240.8	0.0	24.0	8.2
=	-240.2	0.0	24.0	8.2
=	-239.6	0.0	24.0	8.3
=	-239.0	0.0	24.0	8.3
=	-238.4	0.0	24.0	8.3
=	-237.8	0.0	24.0	8.3
=	-237.1	0.0	24.0	8.3
=	-236.4	0.0	24.0	8.4
=	-235.8	0.0	24.0	8.4
=	-235.1	0.0	24.0	8.5
=	-234.6	0.0	24.0	8.5
=	-234.1	0.0	24.0	8.6
=	-233.4	0.0	24.0	8.6
=	-232.7	0.0	24.0	8.7
=	-232.1	0.0	24.0	8.7
=	-231.3	0.0	24.0	8.8
=	-230.7	0.0	24.0	8.9
=	-230.1	0.0	24.0	9.0
=	-229.5	0.0	24.0	9.0
=	-228.9	0.0	24.0	9.1
=	-228.3	0.0	24.0	9.2
=	-227.8	0.0	24.0	9.2
=	-227.1	0.0	24.0	9.3
=	-226.4	0.0	24.0	9.4
=	-225.7	0.0	24.0	9.6
=	-224.9	0.0	24.0	9.7
=	-224.3	0.0	24.0	9.8
=	-223.7	0.0	24.0	9.8
=	-223.1	0.0	24.0	9.9
=	-222.4	0.0	24.0	10.0
=	-221.9	0.0	24.0	10.1
=	-221.4	0.0	24.0	10.2
=	-220.6	0.0	24.0	10.3
=	-220.0	0.0	24.0	10.5
=	-219.4	0.0	24.0	10.6
=	-218.9	0.0	24.0	10.8
=	-218.3	0.0	24.0	10.9
=	-217.7	0.0	24.0	11.0
=	-216.9	0.0	24.0	11.3
=	-216.2	0.0	24.0	11.6
=	-215.6	0.0	24.0	11.9
=	-215.0	0.0	24.0	12.1
=	-214.4	0.0	24.0	12.5
=	-213.7	0.0	24.0	13.0
=	-213.1	0.0	24.0	13.5
=	-212.5	0.0	24.0	14.1
=	-211.9	0.0	24.0	14.8
=	-211.2	0.0	24.0	16.0
=	-210.5	0.0	24.0	17.2
=	-210.0	0.0	24.0	18.5
=	-209.5	0.0	24.0	20.1
=	-208.9	0.0	24.0	22.3
=	-208.2	0.0	24.0	25.1
=	-207.6	0.0	24.0	28.7
=	-207.0	0.0	24.0	32.3
=	-206.3	0.0	24.0	37.1
=	-205.7	0.0	24.0	41.3
=	-205.0	0.0	24.0	47.2
=	-204.2	0.0	24.0	53.1
=	-203.6	0.0	24.0	58.6
=	-202.9	0.0	24.0	64.2
=	-202.3	0.0	24.0	68.7
=	-201.7	0.0	24.0	72.7
=	-201.0	0.0	24.0	77.3
=	-200.4	0.0	24.0	80.2
=	-199.9	0.0	24.0	82.5
=	-199.3	0.0	24.0	84.8
=	-198.8	0.0	24.0	86.2
=	-198.1	0.0	24.0	87.9
=	-197.4	0.0	24.0	89.1
=	-196.7	0.0	24.0	89.9
=	-196.1	0.0	24.0	90.6
=	-195.4	0.0	24.0	91.2
=	-194.7	0.0	24.0	91.8
=	-194.2	0.0	24.0	92.1
=	-193.5	0.0	24.0	92.5
=	-192.9	0.0	24.0	92.8
=	-192.4	0.0	24.0	93.1
=	-191.8	0.0	24.0	93.2
=	-191.2	0.0	24.0	93.5
=	-190.6	0.0	24.0	93.7
=	-190.0	0.0	24.0	93.9
=	-189.3	0.0	24.0	94.1
=	-188.8	0.0	24.0	94.2
=	-188.2	0.0	24.0	94.3
=	-187.6	0.0	24.0	94.4
=	-186.9	0.0	24.0	94.6
=	-186.2	0.0	24.0	94.7
=	-185.7	0.0	24.0	94.8
=	-185.0	0.0	24.0	94.9
=	-184.4	0.0	24.0	95.0
=	-183.8	0.0	24.0	95.1
=	-183.1	0.0	24.0	95.1
=	-182.5	0.0	24.0	95.2
=	-181.9	0.0	24.0	95.3
=	-181.2	0.0	24.0	95.3
=	-180.6	0.0	24.0	95.5
=	-180.0	0.0	24.0	95.5
=	-179.4	0.0	24.0	95.6
=	-178.9	0.0	24.0	95.7
=	-178.2	0.0	24.0	95.7
=	-177.6	0.0	24.0	95.8
=	-177.0	0.0	24.0	95.9
=	-176.4	0.0	24.0	96.0
=	-175.8	0.0	24.0	96.0
=	-175.1	0.0	24.0	96.1
=	-174.5	0.0	24.0	96.2
=	-173.9	0.0	24.0	96.2
=	-173.3	0.0	24.0	96.3
=	-172.6	0.0	24.0	96.3
=	-172.0	0.0	24.0	96.4
=	-171.3	0.0	24.0	96.4
=	-170.7	0.0	24.0	96.5
=	-170.1	0.0	24.0	96.5
=	-169.6	0.0	24.0	96.6
=	-168.9	0.0	24.0	96.6
=	-168.3	0.0	24.0	96.7
=	-167.6	0.0	24.0	96.7
=	-167.0	0.0	24.0	96.7
=	-166.4	0.0	24.0	96.8
=	-165.6	0.0	24.0	96.8
=	-165.0	0.0	24.0	96.8
=	-164.5	0.0	24.0	96.9
=	-163.9	0.0	24.0	96.9
=	-163.3	0.0	24.0	96.9
=	-162.8	0.0	24.0	96.9
=	-162.3	0.0	24.0	96.9
=	-161.8	0.0	24.0	97.0
=	-161.1	0.0	24.0	97.0
=	-160.4	0.0	24.0	97.0
=	-159.9	0.0	24.0	97.0
=	-159.2	0.0	24.0	97.1
=	-158.7	0.0	24.0	97.2
=	-158.1	0.0	24.0	97.2
=	-157.5	0.0	24.0	97.3
=	-156.7	0.0	24.0	97.3
=	-156.1	0.0	24.0	97.4
=	-155.4	0.0	24.0	97.4
=	-154.9	0.0	24.0	97.4
=	-154.3	0.0	24.0	97.5
=	-153.7	0.0	24.0	97.5
=	-153.1	0.0	24.0	97.5
=	-152.5	0.0	24.0	97.5
=	-151.8	0.0	24.0	97.6
=	-151.3	0.0	24.0	97.6
=	-150.7	0.0	24.0	97.6
=	-150.0	0.0	24.0	97.7
=	-149.3	0.0	24.0	97.7
=	-148.8	0.0	24.0	97.8
=	-148.1	0.0	24.0	97.8
=	-147.5	0.0	24.0	97.9
=	-146.7	0.0	24.0	98.0
=	-146.1	0.0	24.0	98.0
=	-145.4	0.0	24.0	98.0
=	-144.8	0.0	24.0	98.1
=	-144.2	0.0	24.0	98.1
=	-143.7	0.0	24.0	98.1
=	-143.1	0.0	24.0	98.1
=	-142.6	0.0	24.0	98.2
=	-141.9	0.0	24.0	98.2
=	-141.3	0.0	24.0	98.2
=	-140.7	0.0	24.0	98.3
=	-140.2	0.0	24.0	98.3
=	-139.6	0.0	24.0	98.3
=	-139.1	0.0	24.0	98.4
=	-138.3	0.0	24.0	98.4
=	-137.8	0.0	24.0	98.4
=	-137.2	0.0	24.0	98.5
=	-136.6	0.0	24.0	98.6
=	-135.8	0.0	24.0	98.6
=	-135.2	0.0	24.0	98.6
=	-134.6	0.0	24.0	98.7
=	-134.0	0.0	24.0	98.7
=	-133.4	0.0	24.0	98.8
=	-132.8	0.0	24.0	98.8
=	-132.3	0.0	24.0	98.8
=	-131.7	0.0	24.0	98.8
=	-131.2	0.0	24.0	98.9
=	-130.7	0.0	24.0	98.9
=	-130.1	0.0	24.0	99.0
=	-129.5	0.0	24.0	99.0
=	-128.7	0.0	24.0	99.1
=	-128.1	0.0	24.0	99.1
=	-127.3	0.0	24.0	99.2
=	-126.7	0.0	24.0	99.3
=	-126.0	0.0	24.0	99.3
=	-125.4	0.0	24.0	99.3
=	-124.8	0.0	24.0	99.3
=	-124.1	0.0	24.0	99.4
=	-123.6	0.0	24.0	99.5
=	-123.0	0.0	24.0	99.5
=	-122.4	0.0	24.0	99.5
=	-121.8	0.0	24.0	99.6
=	-121.2	0.0	24.0	99.6
=	-120.4	0.0	24.0	99.6
=	-119.9	0.0	24.0	99.6
=	-119.2	0.0	24.0	99.6
=	-118.5	0.0	24.0	99.7
=	-117.9	0.0	24.0	99.7
=	-117.3	0.0	24.0	99.8
=	-116.6	0.0	24.0	99.9
=	-115.9	0.0	24.0	99.9
=	-115.3	0.0	24.0	99.9
=	-114.7	0.0	24.0	99.9
=	-114.2	0.0	24.0	99.9
=	-113.6	0.0	24.0	100.0
=	-113.0	0.0	24.0	100.0
=	-112.4	0.0	24.0	100.0
=	-111.7	0.0	24.0	100.0
=	-111.0	0.0	24.0	100.0
=	-110.4	0.0	24.0	100.1
=	-109.9	0.0	24.0	100.1
=	-109.4	0.0	24.0	100.1
=	-108.7	0.0	24.0	100.2
=	-107.9	0.0	24.0	100.2
=	-107.3	0.0	24.0	100.3
=	-106.7	0.0	24.0	100.3
=	-106.1	0.0	24.0	100.3
=	-105.6	0.0	24.0	100.3
=	-105.0	0.0	24.0	100.3
=	-104.3	0.0	24.0	100.3
=	-103.7	0.0	24.0	100.4
=	-103.2	0.0	24.0	100.4
=	-102.5	0.0	24.0	100.4
=	-102.0	0.0	24.0	100.4
=	-101.3	0.0	24.0	100.5
=	-100.6	0.0	24.0	100.6
=	-100.0	0.0	24.0	100.6
=	-99.4	0.0	24.0	100.6
=	-98.8	0.0	24.0	100.6
=	-98.2	0.0	24.0	100.7
=	-97.6	0.0	24.0	100.7
=	-97.0	0.0	24.0	100.8
=	-96.4	0.0	24.0	100.8
=	-95.9	0.0	24.0	100.8
=	-95.3	0.0	24.0	100.8
=	-94.7	0.0	24.0	100.8
=	-94.1	0.0	24.0	100.8
=	-93.5	0.0	24.0	100.8
=	-92.7	0.0	24.0	100.8
=	-91.9	0.0	24.0	100.8
=	-91.3	0.0	24.0	100.8
=	-90.8	0.0	24.0	100.9
=	-90.2	0.0	24.0	100.9
=	-89.6	0.0	24.0	100.9
=	-89.1	0.0	24.0	100.9
=	-88.4	0.0	24.0	101.0
=	-87.8	0.0	24.0	101.0
=	-87.0	0.0	24.0	101.0
=	-86.4	0.0	24.0	101.0
=	-85.8	0.0	24.0	101.0
=	-85.3	0.0	24.0	101.0
=	-84.8	0.0	24.0	101.1
=	-84.1	0.0	24.0	101.1
=	-83.5	0.0	24.0	101.2
=	-82.8	0.0	24.0	101.3
=	-82.3	0.0	24.0	101.3
=	-81.6	0.0	24.0	101.3
=	-81.0	0.0	24.0	101.3
=	-80.3	0.0	24.0	101.3
=	-79.6	0.0	24.0	101.3
=	-79.0	0.0	24.0	101.4
=	-78.3	0.0	24.0	101.4
=	-77.5	0.0	24.0	101.4
=	-76.9	0.0	24.0	101.4
=	-76.4	0.0	24.0	101.4
=	-75.8	0.0	24.0	101.4
=	-75.0	0.0	24.0	101.4
=	-74.4	0.0	24.0	101.4
=	-73.8	0.0	24.0	101.4
=	-73.1	0.0	24.0	101.5
=	-72.5	0.0	24.0	101.5
=	-72.0	0.0	24.0	101.5
=	-71.5	0.0	24.0	101.5
=	-70.9	0.0	24.0	101.5
=	-70.2	0.0	24.0	101.5
=	-69.5	0.0	24.0	101.5
=	-69.0	0.0	24.0	101.5
=	-68.4	0.0	24.0	101.5
=	-67.8	0.0	24.0	101.5
=	-67.1	0.0	24.0	101.5
=	-66.3	0.0	24.0	101.5
=	-65.7	0.0	24.0	101.5
=	-65.2	0.0	24.0	101.5
=	-64.5	0.0	24.0	101.5
=	-63.9	0.0	24.0	101.5
=	-63.4	0.0	24.0	101.5
=	-62.9	0.0	24.0	101.5
=	-62.2	0.0	24.0	101.5
=	-61.7	0.0	24.0	101.5
=	-61.1	0.0	24.0	101.5
=	-60.4	0.0	24.0	101.5
=	-60.0	0.0	24.0	101.5
=	-59.4	0.0	24.0	101.5
=	-58.7	0.0	24.0	101.5
=	-58.1	0.0	24.0	101.5
=	-57.5	0.0	24.0	101.5
=	-56.9	0.0	24.0	101.5
=	-56.3	0.0	24.0	101.5
=	-55.6	0.0	24.0	101.5
=	-55.0	0.0	24.0	101.5
=	-54.4	0.0	24.0	101.5
=	-53.8	0.0	24.0	101.6
=	-53.1	0.0	24.0	101.6
=	-52.6	0.0	24.0	101.6
=	-51.9	0.0	24.0	101.6
=	-51.2	0.0	24.0	101.6
=	-50.5	0.0	24.0	101.6
=	-49.9	0.0	24.0	101.5
=	-49.4	0.0	24.0	101.5
=	-48.9	0.0	24.0	101.5
=	-48.3	0.0	24.0	101.5
=	-47.6	0.0	24.0	101.4
=	-46.9	0.0	24.0	101.4
=	-46.3	0.0	24.0	101.4
=	-45.6	0.0	24.0	101.5
=	-44.9	0.0	24.0	101.4
=	-44.3	0.0	24.0	101.4
=	-43.7	0.0	24.0	101.4
=	-43.0	0.0	24.0	101.4
=	-42.3	0.0	24.0	101.4
=	-41.7	0.0	24.0	101.3
=	-41.2	0.0	24.0	101.3
=	-40.7	0.0	24.0	101.3
=	-40.2	0.0	24.0	101.3
=	-39.6	0.0	24.0	101.3
=	-39.1	0.0	24.0	101.2
=	-38.5	0.0	24.0	101.2
=	-37.7	0.0	24.0	101.2
=	-37.2	0.0	24.0	101.1
=	-36.7	0.0	24.0	101.1
=	-36.1	0.0	24.0	101.1
=	-35.5	0.0	24.0	101.1
=	-35.0	0.0	24.0	101.0
=	-34.5	0.0	24.0	101.0
=	-33.9	0.0	24.0	101.0
=	-33.2	0.0	24.0	101.0
=	-32.7	0.0	24.0	101.0
=	-32.2	0.0	24.0	101.0
=	-31.6	0.0	24.0	101.0
=	-31.0	0.0	24.0	101.0
=	-30.4	0.0	24.0	100.9
=	-29.8	0.0	24.0	100.9
=	-29.2	0.0	24.0	100.9
=	-28.7	0.0	24.0	100.9
=	-28.1	0.0	24.0	100.9
=	-27.4	0.0	24.0	100.9
=	-26.6	0.0	24.0	100.8
=	-25.9	0.0	24.0	100.8
=	-25.4	0.0	24.0	100.8
=	-24.8	0.0	24.0	100.8
=	-24.3	0.0	24.0	100.8
=	-23.6	0.0	24.0	100.7
=	-23.1	0.0	24.0	100.7
=	-22.5	0.0	24.0	100.7
=	-22.0	0.0	24.0	100.7
=	-21.4	0.0	24.0	100.7
=	-20.8	0.0	24.0	100.7
=	-20.1	0.0	24.0	100.7
=	-19.5	0.0	24.0	100.7
=	-19.0	0.0	24.0	100.7
=	-18.4	0.0	24.0	100.6
=	-17.9	0.0	24.0	100.6
=	-17.3	0.0	24.0	100.5
=	-16.7	0.0	24.0	100.5
=	-16.1	0.0	24.0	100.5
=	-15.5	0.0	24.0	100.4
=	-14.9	0.0	24.0	100.4
=	-14.2	0.0	24.0	100.4
=	-13.6	0.0	24.0	100.3
=	-12.9	0.0	24.0	100.3
=	-12.3	0.0	24.0	100.3
=	-11.8	0.0	24.0	100.2
=	-11.3	0.0	24.0	100.2
=	-10.7	0.0	24.0	100.2
=	-10.1	0.0	24.0	100.2
=	-9.6	0.0	24.0	100.2
=	-9.1	0.0	24.0	100.2
=	-8.4	0.0	24.0	100.1
=	-7.8	0.0	24.0	100.1
=	-7.3	0.0	24.0	100.1
=	-6.8	0.0	24.0	100.1
=	-6.1	0.0	24.0	100.2
=	-5.7	0.0	24.0	100.2
=	-5.0	0.0	24.0	100.1
=	-4.3	0.0	24.0	100.1
=	-3.7	0.0	24.0	100.1
=	-3.0	0.0	24.0	100.1
=	-2.4	0.0	24.0	100.1
=	-1.6	0.0	24.0	100.0
=	-1.0	0.0	24.0	100.0
=	-0.5	0.0	24.0	100.0
=	0.0	0.0	24.0	100.0
=	0.3	0.0	24.0	100.0
=	0.9	0.0	24.0	100.0
=	1.5	0.0	24.0	100.0
=	2.2	0.0	24.0	100.1
=	2.9	0.0	24.0	100.1
=	3.6	0.0	24.0	100.1
=	4.1	0.0	24.0	100.1
=	4.8	0.0	24.0	100.1
=	5.5	0.0	24.0	100.2
=	6.0	0.0	24.0	100.2
=	6.6	0.0	24.0	100.1
=	7.1	0.0	24.0	100.1
=	7.7	0.0	24.0	100.1
=	8.2	0.0	24.0	100.1
=	8.9	0.0	24.0	100.2
=	9.4	0.0	24.0	100.2
=	9.9	0.0	24.0	100.2
=	10.5	0.0	24.0	100.2
=	11.1	0.0	24.0	100.2
=	11.7	0.0	24.0	100.2
=	12.2	0.0	24.0	100.3
=	12.8	0.0	24.0	100.3
=	13.4	0.0	24.0	100.3
=	14.0	0.0	24.0	100.3
=	14.8	0.0	24.0	100.4
=	15.4	0.0	24.0	100.4
=	15.9	0.0	24.0	100.5
=	16.5	0.0	24.0	100.5
=	17.1	0.0	24.0	100.5
=	17.8	0.0	24.0	100.6
=	18.3	0.0	24.0	100.6
=	18.8	0.0	24.0	100.6
=	19.3	0.0	24.0	100.7
=	19.9	0.0	24.0	100.7
=	20.7	0.0	24.0	100.7
=	21.3	0.0	24.0	100.7
=	21.9	0.0	24.0	100.7
=	22.4	0.0	24.0	100.7
=	23.0	0.0	24.0	100.7
=	23.5	0.0	24.0	100.7
=	24.1	0.0	24.0	100.8
=	24.7	0.0	24.0	100.8
=	25.2	0.0	24.0	100.8
=	25.8	0.0	24.0	100.8
=	26.4	0.0	24.0	100.8
=	27.2	0.0	24.0	100.9
=	28.0	0.0	24.0	100.9
=	28.6	0.0	24.0	100.9
=	29.1	0.0	24.0	100.9
=	29.7	0.0	24.0	100.9
=	30.2	0.0	24.0	100.9
=	30.9	0.0	24.0	101.0
=	31.4	0.0	24.0	101.0
=	32.0	0.0	24.0	101.0
=	32.6	0.0	24.0	101.0
=	33.1	0.0	24.0	101.0
=	33.7	0.0	24.0	101.0
=	34.3	0.0	24.0	101.0
=	34.9	0.0	24.0	101.0
=	35.4	0.0	24.0	101.0
=	36.0	0.0	24.0	101.1
=	36.6	0.0	24.0	101.1
=	37.1	0.0	24.0	101.1
=	37.6	0.0	24.0	101.2
=	38.3	0.0	24.0	101.2
=	38.9	0.0	24.0	101.2
=	39.5	0.0	24.0	101.3
=	40.0	0.0	24.0	101.3
=	40.6	0.0	24.0	101.3
=	41.0	0.0	24.0	101.3
=	41.6	0.0	24.0	101.3
=	42.2	0.0	24.0	101.4
=	42.8	0.0	24.0	101.4
=	43.5	0.0	24.0	101.4
=	44.1	0.0	24.0	101.4
=	44.8	0.0	24.0	101.4
=	45.5	0.0	24.0	101.5
=	46.2	0.0	24.0	101.4
=	46.7	0.0	24.0	101.4
=	47.4	0.0	24.0	101.4
=	48.1	0.0	24.0	101.5
=	48.8	0.0	24.0	101.5
=	49.3	0.0	24.0	101.5
=	49.8	0.0	24.0	101.5
=	50.3	0.0	24.0	101.6
=	51.0	0.0	24.0	101.6
=	51.7	0.0	24.0	101.6
=	52.4	0.0	24.0	101.6
=	53.0	0.0	24.0	101.6
=	53.6	0.0	24.0	101.6
=	54.3	0.0	24.0	101.5
=	54.9	0.0	24.0	101.5
=	55.4	0.0	24.0	101.5
=	56.1	0.0	24.0	101.5
=	56.8	0.0	24.0	101.5
=	57.3	0.0	24.0	101.5
=	57.9	0.0	24.0	101.5
=	58.6	0.0	24.0	101.5
=	59.3	0.0	24.0	101.5
=	59.8	0.0	24.0	101.5
=	60.3	0.0	24.0	101.5
=	60.9	0.0	24.0	101.5
=	61.6	0.0	24.0	101.5
=	62.1	0.0	24.0	101.5
=	62.7	0.0	24.0	101.5
=	63.3	0.0	24.0	101.5
=	63.8	0.0	24.0	101.5
=	64.3	0.0	24.0	101.5
=	65.0	0.0	24.0	101.5
=	65.6	0.0	24.0	101.5
=	66.2	0.0	24.0	101.5
=	66.9	0.0	24.0	101.5
=	67.6	0.0	24.0	101.5
=	68.3	0.0	24.0	101.5
=	68.8	0.0	24.0	101.5
=	69.4	0.0	24.0	101.5
=	70.0	0.0	24.0	101.5
=	70.7	0.0	24.0	101.5
=	71.4	0.0	24.0	101.5
=	71.9	0.0	24.0	101.5
=	72.4	0.0	24.0	101.5
=	73.0	0.0	24.0	101.5
=	73.6	0.0	24.0	101.4
=	74.2	0.0	24.0	101.4
=	74.9	0.0	24.0	101.4
=	75.6	0.0	24.0	101.4
=	76.2	0.0	24.0	101.4
=	76.7	0.0	24.0	101.4
=	77.3	0.0	24.0	101.4
=	78.1	0.0	24.0	101.4
=	78.8	0.0	24.0	101.4
=	79.4	0.0	24.0	101.3
=	80.1	0.0	24.0	101.3
=	80.9	0.0	24.0	101.3
=	81.4	0.0	24.0	101.3
=	82.2	0.0	24.0	101.3
=	82.7	0.0	24.0	101.3
=	83.4	0.0	24.0	101.2
=	84.0	0.0	24.0	101.1
=	84.6	0.0	24.0	101.1
=	85.2	0.0	24.0	101.0
=	85.7	0.0	24.0	101.0
=	86.2	0.0	24.0	101.0
=	86.8	0.0	24.0	101.0
=	87.6	0.0	24.0	101.0
=	88.3	0.0	24.0	101.0
=	88.9	0.0	24.0	100.9
=	89.5	0.0	24.0	100.9
=	90.1	0.0	24.0	100.9
=	90.7	0.0	24.0	100.9
=	91.2	0.0	24.0	100.8
=	91.8	0.0	24.0	100.8
=	92.5	0.0	24.0	100.8
=	93.3	0.0	24.0	100.8
=	93.9	0.0	24.0	100.8
=	94.5	0.0	24.0	100.8
=	95.1	0.0	24.0	100.8
=	95.7	0.0	24.0	100.8
=	96.3	0.0	24.0	100.8
=	96.9	0.0	24.0	100.8
=	97.4	0.0	24.0	100.7
=	98.0	0.0	24.0	100.7
=	98.6	0.0	24.0	100.6
=	99.3	0.0	24.0	100.6
=	99.9	0.0	24.0	100.6
=	100.5	0.0	24.0	100.6
=	101.1	0.0	24.0	100.6
=	101.8	0.0	24.0	100.4
=	102.4	0.0	24.0	100.4
=	103.0	0.0	24.0	100.4
=	103.6	0.0	24.0	100.4
=	104.1	0.0	24.0	100.4
=	104.9	0.0	24.0	100.3
=	105.5	0.0	24.0	100.3
=	106.0	0.0	24.0	100.3
=	106.6	0.0	24.0	100.3
=	107.1	0.0	24.0	100.3
=	107.7	0.0	24.0	100.2
=	108.5	0.0	24.0	100.2
=	109.2	0.0	24.0	100.1
=	109.8	0.0	24.0	100.1
=	110.3	0.0	24.0	100.1
=	110.8	0.0	24.0	100.0
=	111.5	0.0	24.0	100.0
=	112.2	0.0	24.0	100.0
=	112.8	0.0	24.0	100.0
=	113.5	0.0	24.0	100.0
=	114.0	0.0	24.0	99.9
=	114.6	0.0	24.0	99.9
=	115.2	0.0	24.0	99.9
=	115.7	0.0	24.0	99.9
=	116.4	0.0	24.0	99.9
=	117.1	0.0	24.0	99.8
=	117.8	0.0	24.0	99.7
=	118.4	0.0	24.0	99.7
=	119.0	0.0	24.0	99.6
=	119.7	0.0	24.0	99.6
=	120.3	0.0	24.0	99.6
=	121.0	0.0	24.0	99.6
=	121.6	0.0	24.0	99.6
=	122.2	0.0	24.0	99.5
=	122.8	0.0	24.0	99.5
=	123.4	0.0	24.0	99.5
=	124.0	0.0	24.0	99.4
=	124.6	0.0	24.0	99.4
=	125.2	0.0	24.0	99.3
=	125.8	0.0	24.0	99.3
=	126.5	0.0	24.0	99.3
=	127.1	0.0	24.0	99.2
=	127.9	0.0	24.0	99.2
=	128.6	0.0	24.0	99.1
=	129.3	0.0	24.0	99.0
=	130.0	0.0	24.0	99.0
=	130.6	0.0	24.0	98.9
=	131.1	0.0	24.0	98.9
=	131.6	0.0	24.0	98.9
=	132.2	0.0	24.0	98.8
=	132.6	0.0	24.0	98.8
=	133.2	0.0	24.0	98.8
=	133.8	0.0	24.0	98.7
=	134.5	0.0	24.0	98.7
=	135.1	0.0	24.0	98.7
=	135.6	0.0	24.0	98.6
=	136.4	0.0	24.0	98.6
=	137.1	0.0	24.0	98.5
=	137.6	0.0	24.0	98.5
=	138.2	0.0	24.0	98.4
=	138.9	0.0	24.0	98.4
=	139.5	0.0	24.0	98.3
=	140.1	0.0	24.0	98.3
=	140.6	0.0	24.0	98.3
=	141.1	0.0	24.0	98.2
=	141.7	0.0	24.0	98.2
=	142.4	0.0	24.0	98.2
=	143.0	0.0	24.0	98.1
=	143.5	0.0	24.0	98.1
=	144.1	0.0	24.0	98.1
=	144.7	0.0	24.0	98.1
=	145.2	0.0	24.0	98.1
=	145.9	0.0	24.0	98.0
=	146.5	0.0	24.0	98.0
=	147.3	0.0	24.0	97.9
=	147.9	0.0	24.0	97.8
=	148.6	0.0	24.0	97.8
=	149.2	0.0	24.0	97.7
=	149.8	0.0	24.0	97.7
=	150.5	0.0	24.0	97.7
=	151.1	0.0	24.0	97.6
=	151.7	0.0	24.0	97.6
=	152.3	0.0	24.0	97.5
=	153.0	0.0	24.0	97.5
=	153.6	0.0	24.0	97.5
=	154.2	0.0	24.0	97.5
=	154.7	0.0	24.0	97.4
=	155.3	0.0	24.0	97.4
=	155.9	0.0	24.0	97.4
=	156.5	0.0	24.0	97.3
=	157.3	0.0	24.0	97.3
=	157.9	0.0	24.0	97.2
=	158.5	0.0	24.0	97.2
=	159.1	0.0	24.0	97.1
=	159.7	0.0	24.0	97.1
=	160.3	0.0	24.0	97.0
=	161.0	0.0	24.0	97.0
=	161.7	0.0	24.0	97.0
=	162.2	0.0	24.0	96.9
=	162.7	0.0	24.0	96.9
=	163.2	0.0	24.0	96.9
=	163.7	0.0	24.0	96.9
=	164.4	0.0	24.0	96.9
=	164.9	0.0	24.0	96.8
=	165.4	0.0	24.0	96.8
=	166.2	0.0	24.0	96.8
=	166.9	0.0	24.0	96.7
=	167.5	0.0	24.0	96.7
=	168.1	0.0	24.0	96.7
=	168.8	0.0	24.0	96.6
=	169.4	0.0	24.0	96.6
=	170.0	0.0	24.0	96.5
=	170.6	0.0	24.0	96.5
=	171.2	0.0	24.0	96.4
=	171.8	0.0	24.0	96.4
=	172.5	0.0	24.0	96.3
=	173.1	0.0	24.0	96.3
=	173.8	0.0	24.0	96.3
=	174.3	0.0	24.0	96.2
=	174.9	0.0	24.0	96.1
=	175.6	0.0	24.0	96.1
=	176.2	0.0	24.0	96.0
=	176.9	0.0	24.0	95.9
=	177.5	0.0	24.0	95.8
=	178.0	0.0	24.0	95.8
=	178.7	0.0	24.0	95.7
=	179.3	0.0	24.0	95.6
=	179.8	0.0	24.0	95.6
=	180.5	0.0	24.0	95.5
=	181.1	0.0	24.0	95.4
=	181.7	0.0	24.0	95.3
=	182.4	0.0	24.0	95.2
=	182.9	0.0	24.0	95.1
=	183.6	0.0	24.0	95.1
=	184.3	0.0	24.0	95.0
=	184.9	0.0	24.0	94.9
=	185.5	0.0	24.0	94.8
=	186.1	0.0	24.0	94.7
=	186.7	0.0	24.0	94.6
=	187.5	0.0	24.0	94.5
=	188.1	0.0	24.0	94.3
=	188.7	0.0	24.0	94.2
=	189.2	0.0	24.0	94.1
=	189.8	0.0	24.0	94.0
=	190.4	0.0	24.0	93.7
=	191.0	0.0	24.0	93.5
=	191.7	0.0	24.0	93.3
=	192.3	0.0	24.0	93.1
=	192.8	0.0	24.0	92.9
=	193.4	0.0	24.0	92.6
=	194.0	0.0	24.0	92.2
=	194.6	0.0	24.0	91.9
=	195.2	0.0	24.0	91.4
=	195.9	0.0	24.0	90.8
=	196.6	0.0	24.0	90.1
=	197.2	0.0	24.0	89.3
=	197.9	0.0	24.0	88.3
=	198.6	0.0	24.0	86.6
=	199.2	0.0	24.0	85.2
=	199.8	0.0	24.0	83.1
=	200.3	0.0	24.0	80.8
=	200.8	0.0	24.0	78.2
=	201.5	0.0	24.0	73.9
=	202.2	0.0	24.0	69.6
=	202.7	0.0	24.0	65.6
=	203.4	0.0	24.0	60.0
=	204.1	0.0	24.0	54.4
=	204.8	0.0	24.0	48.8
=	205.5	0.0	24.0	42.5
=	206.1	0.0	24.0	38.2
=	206.8	0.0	24.0	33.4
=	207.4	0.0	24.0	29.5
=	208.0	0.0	24.0	26.0
=	208.7	0.0	24.0	23.0
=	209.3	0.0	24.0	20.5
=	209.9	0.0	24.0	18.9
=	210.4	0.0	24.0	17.5
=	211.0	0.0	24.0	16.3
=	211.7	0.0	24.0	15.1
=	212.4	0.0	24.0	14.2
=	212.9	0.0	24.0	13.6
=	213.5	0.0	24.0	13.1
=	214.2	0.0	24.0	12.6
=	214.8	0.0	24.0	12.2
=	215.4	0.0	24.0	11.9
=	216.0	0.0	24.0	11.7
=	216.7	0.0	24.0	11.4
=	217.5	0.0	24.0	11.1
=	218.2	0.0	24.0	10.9
=	218.8	0.0	24.0	10.8
=	219.3	0.0	24.0	10.7
=	219.9	0.0	24.0	10.5
=	220.5	0.0	24.0	10.4
=	221.2	0.0	24.0	10.2
=	221.8	0.0	24.0	10.2
=	222.3	0.0	24.0	10.1
=	222.9	0.0	24.0	10.0
=	223.6	0.0	24.0	9.8
=	224.2	0.0	24.0	9.8
=	224.8	0.0	24.0	9.7
=	225.5	0.0	24.0	9.6
=	226.2	0.0	24.0	9.5
=	226.9	0.0	24.0	9.4
=	227.6	0.0	24.0	9.3
=	228.2	0.0	24.0	9.2
=	228.7	0.0	24.0	9.1
=	229.4	0.0	24.0	9.0
=	229.9	0.0	24.0	9.0
=	230.5	0.0	24.0	8.9
=	231.2	0.0	24.0	8.8
=	231.9	0.0	24.0	8.7
=	232.6	0.0	24.0	8.7
=	233.3	0.0	24.0	8.6
=	233.9	0.0	24.0	8.6
=	234.4	0.0	24.0	8.5
=	235.0	0.0	24.0	8.5
=	235.6	0.0	24.0	8.4
=	236.2	0.0	24.0	8.4
=	236.9	0.0	24.0	8.4
=	237.6	0.0	24.0	8.3
=	238.2	0.0	24.0	8.3
=	238.8	0.0	24.0	8.3
=	239.5	0.0	24.0	8.3
=	240.1	0.0	24.0	8.2
=	240.7	0.0	24.0	8.2
=	241.3	0.0	24.0	8.2
=	241.9	0.0	24.0	8.2
=	242.4	0.0	24.0	8.2
=	243.0	0.0	24.0	8.1
=	243.5	0.0	24.0	8.1
=	244.0	0.0	24.0	8.1
=	244.6	0.0	24.0	8.1
=	245.2	0.0	24.0	8.0
=	245.9	0.0	24.0	8.0
=	246.5	0.0	24.0	8.0
=	247.2	0.0	24.0	7.9
=	247.8	0.0	24.0	7.9
=	248.6	0.0	24.0	7.8
=	249.3	0.0	24.0	7.8
=	249.9	0.0	24.0	7.8
=	250.4	0.0	24.0	7.8
=	251.1	0.0	24.0	7.7
=	251.8	0.0	24.0	7.7
=	252.3	0.0	24.0	7.7
=	253.0	0.0	24.0	7.6
=	253.8	0.0	24.0	7.6
=	254.4	0.0	24.0	7.6
:EOM # End of Measurement
#
# RFA300 ASCII Measurement Dump ( BDS format )
#
# Measurement number 	2
#
%VNR 1.0
%MOD 	RAT
%TYP 	SCN
%SCN 	PRO
%FLD 	ION
%DAT 	10-14-2011
%TIM 	12:00:00
%FSZ 	400	150
%BMT 	PHO	   10.0
%SSD 	1000
%BUP 	0
%BRD 	1000
%FSH 	1
%ASC 	0
%WEG 	60
%GPO 	0
%CPO 	0
%MEA 	6
%PRD 	50,0
%PTS 	826
%STS 	    -259.8	  0.0	   50.0 # Start Scan values in mm ( X , Y , Z )
%EDS 	    259.5	   0.0	   50.0 # End Scan values in mm ( X , Y , Z )
#
#	  X      Y      Z     Dose
#
=	-259.8	0.0	50.0	7.5
=	-259.2	0.0	50.0	7.6
=	-258.6	0.0	50.0	7.6
=	-258.0	0.0	50.0	7.6
=	-257.4	0.0	50.0	7.6
=	-256.8	0.0	50.0	7.7
=	-256.2	0.0	50.0	7.7
=	-255.4	0.0	50.0	7.8
=	-254.7	0.0	50.0	7.8
=	-254.1	0.0	50.0	7.8
=	-253.5	0.0	50.0	7.8
=	-252.7	0.0	50.0	7.9
=	-252.2	0.0	50.0	7.9
=	-251.5	0.0	50.0	7.9
=	-250.7	0.0	50.0	8.0
=	-249.9	0.0	50.0	8.0
=	-249.4	0.0	50.0	8.0
=	-248.7	0.0	50.0	8.1
=	-248.1	0.0	50.0	8.1
=	-247.3	0.0	50.0	8.1
=	-246.6	0.0	50.0	8.2
=	-245.8	0.0	50.0	8.2
=	-245.1	0.0	50.0	8.3
=	-244.4	0.0	50.0	8.3
=	-243.7	0.0	50.0	8.4
=	-243.1	0.0	50.0	8.4
=	-242.5	0.0	50.0	8.5
=	-242.0	0.0	50.0	8.5
=	-241.4	0.0	50.0	8.5
=	-240.9	0.0	50.0	8.6
=	-240.2	0.0	50.0	8.6
=	-239.4	0.0	50.0	8.7
=	-238.7	0.0	50.0	8.8
=	-238.0	0.0	50.0	8.9
=	-237.2	0.0	50.0	9.0
=	-236.6	0.0	50.0	9.0
=	-236.0	0.0	50.0	9.1
=	-235.4	0.0	50.0	9.2
=	-234.9	0.0	50.0	9.2
=	-234.3	0.0	50.0	9.4
=	-233.7	0.0	50.0	9.5
=	-233.1	0.0	50.0	9.5
=	-232.5	0.0	50.0	9.6
=	-231.9	0.0	50.0	9.7
=	-231.3	0.0	50.0	9.8
=	-230.6	0.0	50.0	9.9
=	-229.8	0.0	50.0	10.1
=	-229.2	0.0	50.0	10.2
=	-228.6	0.0	50.0	10.3
=	-227.8	0.0	50.0	10.4
=	-227.2	0.0	50.0	10.6
=	-226.6	0.0	50.0	10.7
=	-226.0	0.0	50.0	10.8
=	-225.4	0.0	50.0	10.9
=	-224.9	0.0	50.0	11.1
=	-224.2	0.0	50.0	11.2
=	-223.6	0.0	50.0	11.4
=	-223.0	0.0	50.0	11.6
=	-222.4	0.0	50.0	11.8
=	-221.7	0.0	50.0	12.1
=	-221.0	0.0	50.0	12.4
=	-220.3	0.0	50.0	12.8
=	-219.5	0.0	50.0	13.3
=	-218.9	0.0	50.0	13.7
=	-218.3	0.0	50.0	14.2
=	-217.8	0.0	50.0	14.7
=	-217.3	0.0	50.0	15.3
=	-216.7	0.0	50.0	16.2
=	-216.2	0.0	50.0	17.1
=	-215.4	0.0	50.0	18.7
=	-214.8	0.0	50.0	20.5
=	-214.2	0.0	50.0	22.6
=	-213.5	0.0	50.0	25.4
=	-212.8	0.0	50.0	28.7
=	-212.2	0.0	50.0	31.8
=	-211.7	0.0	50.0	35.4
=	-211.1	0.0	50.0	39.5
=	-210.4	0.0	50.0	44.3
=	-209.7	0.0	50.0	49.0
=	-209.0	0.0	50.0	54.7
=	-208.5	0.0	50.0	58.9
=	-207.9	0.0	50.0	63.4
=	-207.1	0.0	50.0	69.0
=	-206.5	0.0	50.0	73.0
=	-205.8	0.0	50.0	76.3
=	-205.0	0.0	50.0	79.7
=	-204.4	0.0	50.0	82.0
=	-203.6	0.0	50.0	84.1
=	-202.9	0.0	50.0	85.7
=	-202.2	0.0	50.0	86.9
=	-201.6	0.0	50.0	87.6
=	-200.9	0.0	50.0	88.4
=	-200.2	0.0	50.0	89.0
=	-199.6	0.0	50.0	89.5
=	-199.0	0.0	50.0	90.0
=	-198.4	0.0	50.0	90.3
=	-197.8	0.0	50.0	90.6
=	-197.1	0.0	50.0	91.0
=	-196.4	0.0	50.0	91.3
=	-195.8	0.0	50.0	91.5
=	-195.1	0.0	50.0	91.8
=	-194.3	0.0	50.0	92.0
=	-193.6	0.0	50.0	92.2
=	-193.0	0.0	50.0	92.4
=	-192.5	0.0	50.0	92.6
=	-192.0	0.0	50.0	92.6
=	-191.2	0.0	50.0	92.8
=	-190.4	0.0	50.0	92.9
=	-189.8	0.0	50.0	93.1
=	-189.1	0.0	50.0	93.2
=	-188.5	0.0	50.0	93.4
=	-187.8	0.0	50.0	93.6
=	-187.2	0.0	50.0	93.7
=	-186.5	0.0	50.0	93.8
=	-185.8	0.0	50.0	93.9
=	-185.1	0.0	50.0	94.0
=	-184.4	0.0	50.0	94.0
=	-183.8	0.0	50.0	94.1
=	-183.3	0.0	50.0	94.2
=	-182.6	0.0	50.0	94.3
=	-181.9	0.0	50.0	94.4
=	-181.3	0.0	50.0	94.4
=	-180.6	0.0	50.0	94.5
=	-179.9	0.0	50.0	94.6
=	-179.1	0.0	50.0	94.6
=	-178.5	0.0	50.0	94.7
=	-177.8	0.0	50.0	94.7
=	-177.3	0.0	50.0	94.8
=	-176.7	0.0	50.0	94.9
=	-175.9	0.0	50.0	95.0
=	-175.3	0.0	50.0	95.0
=	-174.8	0.0	50.0	95.1
=	-174.1	0.0	50.0	95.1
=	-173.3	0.0	50.0	95.2
=	-172.7	0.0	50.0	95.3
=	-172.0	0.0	50.0	95.3
=	-171.2	0.0	50.0	95.4
=	-170.6	0.0	50.0	95.5
=	-169.9	0.0	50.0	95.5
=	-169.4	0.0	50.0	95.5
=	-168.7	0.0	50.0	95.5
=	-168.0	0.0	50.0	95.6
=	-167.4	0.0	50.0	95.7
=	-166.8	0.0	50.0	95.7
=	-166.3	0.0	50.0	95.8
=	-165.6	0.0	50.0	95.8
=	-165.1	0.0	50.0	95.9
=	-164.4	0.0	50.0	95.9
=	-163.8	0.0	50.0	95.9
=	-163.2	0.0	50.0	96.0
=	-162.5	0.0	50.0	96.0
=	-161.9	0.0	50.0	96.0
=	-161.2	0.0	50.0	96.0
=	-160.5	0.0	50.0	96.1
=	-160.0	0.0	50.0	96.1
=	-159.5	0.0	50.0	96.1
=	-158.8	0.0	50.0	96.2
=	-158.2	0.0	50.0	96.2
=	-157.7	0.0	50.0	96.3
=	-157.0	0.0	50.0	96.4
=	-156.4	0.0	50.0	96.5
=	-155.8	0.0	50.0	96.5
=	-155.1	0.0	50.0	96.6
=	-154.6	0.0	50.0	96.6
=	-154.0	0.0	50.0	96.7
=	-153.5	0.0	50.0	96.7
=	-152.9	0.0	50.0	96.7
=	-152.3	0.0	50.0	96.8
=	-151.8	0.0	50.0	96.8
=	-151.2	0.0	50.0	96.9
=	-150.6	0.0	50.0	96.9
=	-149.9	0.0	50.0	97.0
=	-149.3	0.0	50.0	97.0
=	-148.6	0.0	50.0	97.0
=	-147.9	0.0	50.0	97.1
=	-147.4	0.0	50.0	97.1
=	-146.6	0.0	50.0	97.1
=	-145.8	0.0	50.0	97.2
=	-145.2	0.0	50.0	97.2
=	-144.6	0.0	50.0	97.2
=	-144.0	0.0	50.0	97.3
=	-143.4	0.0	50.0	97.3
=	-142.9	0.0	50.0	97.3
=	-142.3	0.0	50.0	97.3
=	-141.7	0.0	50.0	97.4
=	-141.2	0.0	50.0	97.5
=	-140.5	0.0	50.0	97.5
=	-139.8	0.0	50.0	97.6
=	-139.1	0.0	50.0	97.6
=	-138.6	0.0	50.0	97.7
=	-138.1	0.0	50.0	97.7
=	-137.5	0.0	50.0	97.7
=	-136.9	0.0	50.0	97.7
=	-136.2	0.0	50.0	97.8
=	-135.6	0.0	50.0	97.8
=	-135.2	0.0	50.0	97.8
=	-134.6	0.0	50.0	97.8
=	-134.0	0.0	50.0	97.8
=	-133.4	0.0	50.0	97.9
=	-132.8	0.0	50.0	98.0
=	-132.2	0.0	50.0	98.0
=	-131.4	0.0	50.0	98.1
=	-130.7	0.0	50.0	98.2
=	-130.1	0.0	50.0	98.3
=	-129.5	0.0	50.0	98.3
=	-128.7	0.0	50.0	98.4
=	-127.9	0.0	50.0	98.4
=	-127.2	0.0	50.0	98.4
=	-126.5	0.0	50.0	98.4
=	-125.9	0.0	50.0	98.5
=	-125.4	0.0	50.0	98.6
=	-124.9	0.0	50.0	98.6
=	-124.2	0.0	50.0	98.6
=	-123.5	0.0	50.0	98.7
=	-122.7	0.0	50.0	98.8
=	-122.1	0.0	50.0	98.8
=	-121.5	0.0	50.0	98.8
=	-120.8	0.0	50.0	98.9
=	-120.0	0.0	50.0	98.9
=	-119.2	0.0	50.0	99.0
=	-118.5	0.0	50.0	99.0
=	-117.9	0.0	50.0	99.1
=	-117.2	0.0	50.0	99.1
=	-116.4	0.0	50.0	99.1
=	-115.8	0.0	50.0	99.1
=	-115.2	0.0	50.0	99.2
=	-114.6	0.0	50.0	99.2
=	-113.9	0.0	50.0	99.2
=	-113.2	0.0	50.0	99.3
=	-112.6	0.0	50.0	99.3
=	-111.9	0.0	50.0	99.4
=	-111.3	0.0	50.0	99.4
=	-110.6	0.0	50.0	99.4
=	-110.0	0.0	50.0	99.4
=	-109.3	0.0	50.0	99.4
=	-108.7	0.0	50.0	99.5
=	-108.2	0.0	50.0	99.5
=	-107.5	0.0	50.0	99.5
=	-106.9	0.0	50.0	99.6
=	-106.4	0.0	50.0	99.6
=	-105.9	0.0	50.0	99.7
=	-105.3	0.0	50.0	99.7
=	-104.8	0.0	50.0	99.7
=	-104.1	0.0	50.0	99.8
=	-103.4	0.0	50.0	99.9
=	-102.8	0.0	50.0	99.9
=	-102.2	0.0	50.0	99.9
=	-101.6	0.0	50.0	99.9
=	-100.9	0.0	50.0	99.9
=	-100.3	0.0	50.0	100.0
=	-99.7	0.0	50.0	100.0
=	-99.2	0.0	50.0	100.0
=	-98.6	0.0	50.0	100.1
=	-98.0	0.0	50.0	100.0
=	-97.4	0.0	50.0	100.1
=	-96.7	0.0	50.0	100.1
=	-96.1	0.0	50.0	100.1
=	-95.5	0.0	50.0	100.1
=	-95.0	0.0	50.0	100.1
=	-94.4	0.0	50.0	100.1
=	-93.8	0.0	50.0	100.2
=	-93.1	0.0	50.0	100.2
=	-92.5	0.0	50.0	100.3
=	-91.8	0.0	50.0	100.3
=	-91.1	0.0	50.0	100.4
=	-90.6	0.0	50.0	100.4
=	-89.9	0.0	50.0	100.4
=	-89.3	0.0	50.0	100.4
=	-88.7	0.0	50.0	100.4
=	-88.2	0.0	50.0	100.4
=	-87.7	0.0	50.0	100.4
=	-86.9	0.0	50.0	100.5
=	-86.1	0.0	50.0	100.5
=	-85.4	0.0	50.0	100.5
=	-84.8	0.0	50.0	100.5
=	-84.3	0.0	50.0	100.6
=	-83.6	0.0	50.0	100.6
=	-82.9	0.0	50.0	100.6
=	-82.3	0.0	50.0	100.7
=	-81.7	0.0	50.0	100.7
=	-81.0	0.0	50.0	100.7
=	-80.5	0.0	50.0	100.7
=	-79.9	0.0	50.0	100.8
=	-79.1	0.0	50.0	100.8
=	-78.4	0.0	50.0	100.8
=	-77.8	0.0	50.0	100.8
=	-77.0	0.0	50.0	100.8
=	-76.4	0.0	50.0	100.8
=	-75.7	0.0	50.0	100.9
=	-75.0	0.0	50.0	100.9
=	-74.2	0.0	50.0	101.0
=	-73.7	0.0	50.0	101.0
=	-73.2	0.0	50.0	101.0
=	-72.6	0.0	50.0	101.0
=	-72.1	0.0	50.0	101.0
=	-71.6	0.0	50.0	101.0
=	-71.0	0.0	50.0	101.0
=	-70.5	0.0	50.0	101.0
=	-69.8	0.0	50.0	101.1
=	-69.3	0.0	50.0	101.1
=	-68.7	0.0	50.0	101.0
=	-68.1	0.0	50.0	101.0
=	-67.6	0.0	50.0	101.0
=	-67.1	0.0	50.0	101.0
=	-66.6	0.0	50.0	101.1
=	-66.0	0.0	50.0	101.1
=	-65.4	0.0	50.0	101.1
=	-64.8	0.0	50.0	101.1
=	-64.3	0.0	50.0	101.1
=	-63.8	0.0	50.0	101.2
=	-63.2	0.0	50.0	101.2
=	-62.7	0.0	50.0	101.2
=	-62.1	0.0	50.0	101.2
=	-61.5	0.0	50.0	101.2
=	-60.8	0.0	50.0	101.2
=	-60.2	0.0	50.0	101.2
=	-59.5	0.0	50.0	101.2
=	-58.9	0.0	50.0	101.2
=	-58.3	0.0	50.0	101.2
=	-57.6	0.0	50.0	101.2
=	-57.1	0.0	50.0	101.2
=	-56.6	0.0	50.0	101.2
=	-55.9	0.0	50.0	101.2
=	-55.1	0.0	50.0	101.2
=	-54.5	0.0	50.0	101.2
=	-54.0	0.0	50.0	101.3
=	-53.4	0.0	50.0	101.3
=	-52.8	0.0	50.0	101.3
=	-52.3	0.0	50.0	101.3
=	-51.6	0.0	50.0	101.3
=	-50.8	0.0	50.0	101.2
=	-50.1	0.0	50.0	101.2
=	-49.4	0.0	50.0	101.2
=	-48.6	0.0	50.0	101.2
=	-48.0	0.0	50.0	101.2
=	-47.4	0.0	50.0	101.2
=	-47.0	0.0	50.0	101.2
=	-46.3	0.0	50.0	101.2
=	-45.6	0.0	50.0	101.2
=	-45.0	0.0	50.0	101.2
=	-44.4	0.0	50.0	101.2
=	-43.8	0.0	50.0	101.1
=	-43.3	0.0	50.0	101.0
=	-42.7	0.0	50.0	101.0
=	-42.2	0.0	50.0	101.0
=	-41.6	0.0	50.0	101.0
=	-41.1	0.0	50.0	101.0
=	-40.5	0.0	50.0	101.0
=	-39.7	0.0	50.0	101.0
=	-39.1	0.0	50.0	101.0
=	-38.5	0.0	50.0	101.0
=	-37.9	0.0	50.0	101.0
=	-37.3	0.0	50.0	101.0
=	-36.7	0.0	50.0	101.0
=	-36.1	0.0	50.0	101.0
=	-35.4	0.0	50.0	101.0
=	-34.7	0.0	50.0	101.0
=	-34.2	0.0	50.0	100.9
=	-33.6	0.0	50.0	100.9
=	-33.0	0.0	50.0	100.9
=	-32.4	0.0	50.0	100.9
=	-31.8	0.0	50.0	100.9
=	-31.2	0.0	50.0	100.9
=	-30.5	0.0	50.0	100.9
=	-29.9	0.0	50.0	100.8
=	-29.3	0.0	50.0	100.8
=	-28.7	0.0	50.0	100.8
=	-28.0	0.0	50.0	100.8
=	-27.4	0.0	50.0	100.7
=	-26.8	0.0	50.0	100.7
=	-26.1	0.0	50.0	100.7
=	-25.6	0.0	50.0	100.7
=	-24.9	0.0	50.0	100.6
=	-24.3	0.0	50.0	100.6
=	-23.8	0.0	50.0	100.6
=	-23.2	0.0	50.0	100.6
=	-22.5	0.0	50.0	100.6
=	-21.9	0.0	50.0	100.6
=	-21.3	0.0	50.0	100.6
=	-20.6	0.0	50.0	100.6
=	-20.0	0.0	50.0	100.5
=	-19.4	0.0	50.0	100.5
=	-18.8	0.0	50.0	100.5
=	-18.2	0.0	50.0	100.4
=	-17.6	0.0	50.0	100.4
=	-17.0	0.0	50.0	100.4
=	-16.3	0.0	50.0	100.4
=	-15.7	0.0	50.0	100.4
=	-15.1	0.0	50.0	100.3
=	-14.5	0.0	50.0	100.3
=	-14.0	0.0	50.0	100.3
=	-13.5	0.0	50.0	100.3
=	-12.7	0.0	50.0	100.3
=	-12.0	0.0	50.0	100.3
=	-11.4	0.0	50.0	100.2
=	-10.7	0.0	50.0	100.2
=	-10.2	0.0	50.0	100.2
=	-9.5	0.0	50.0	100.2
=	-8.8	0.0	50.0	100.2
=	-8.2	0.0	50.0	100.2
=	-7.6	0.0	50.0	100.1
=	-7.1	0.0	50.0	100.1
=	-6.5	0.0	50.0	100.1
=	-5.9	0.0	50.0	100.1
=	-5.2	0.0	50.0	100.0
=	-4.4	0.0	50.0	100.0
=	-3.9	0.0	50.0	100.0
=	-3.3	0.0	50.0	100.0
=	-2.5	0.0	50.0	100.0
=	-1.9	0.0	50.0	100.0
=	-1.2	0.0	50.0	100.0
=	-0.6	0.0	50.0	100.0
=	-0.1	0.0	50.0	100.0
=	0.0	0.0	50.0	100.0
=	0.4	0.0	50.0	100.0
=	0.9	0.0	50.0	100.0
=	1.5	0.0	50.0	100.0
=	2.2	0.0	50.0	100.0
=	2.9	0.0	50.0	100.0
=	3.6	0.0	50.0	100.0
=	4.1	0.0	50.0	100.0
=	4.7	0.0	50.0	100.0
=	5.6	0.0	50.0	100.0
=	6.2	0.0	50.0	100.1
=	6.8	0.0	50.0	100.1
=	7.4	0.0	50.0	100.1
=	7.9	0.0	50.0	100.1
=	8.5	0.0	50.0	100.2
=	9.2	0.0	50.0	100.2
=	9.9	0.0	50.0	100.2
=	10.4	0.0	50.0	100.2
=	11.1	0.0	50.0	100.2
=	11.7	0.0	50.0	100.2
=	12.3	0.0	50.0	100.3
=	13.1	0.0	50.0	100.3
=	13.7	0.0	50.0	100.3
=	14.2	0.0	50.0	100.3
=	14.8	0.0	50.0	100.3
=	15.4	0.0	50.0	100.3
=	16.0	0.0	50.0	100.4
=	16.7	0.0	50.0	100.4
=	17.3	0.0	50.0	100.4
=	17.9	0.0	50.0	100.4
=	18.5	0.0	50.0	100.5
=	19.2	0.0	50.0	100.5
=	19.7	0.0	50.0	100.5
=	20.3	0.0	50.0	100.5
=	20.9	0.0	50.0	100.6
=	21.6	0.0	50.0	100.6
=	22.2	0.0	50.0	100.6
=	22.8	0.0	50.0	100.6
=	23.5	0.0	50.0	100.6
=	24.1	0.0	50.0	100.6
=	24.6	0.0	50.0	100.6
=	25.3	0.0	50.0	100.6
=	25.9	0.0	50.0	100.7
=	26.5	0.0	50.0	100.7
