:MSR 	4	 # No. of measurement in file
:SYS BDS 0   # Beam Data Scanner System
#
# RFA300 ASCII Measurement Dump ( BDS format )
#
# Measurement number 	1
#
%VNR 1.0
%MOD 	RAT
%TYP 	SCN
%SCN 	DPT
%FLD 	ION
%DAT 	09-27-2011
%TIM 	12:00:00
%FSZ 	040	040
%BMT 	PHO	   10.0
%SSD 	1000
%BUP 	0
%BRD 	1000
%FSH 	1
%ASC 	0
%WEG 	60
%GPO 	0
%CPO 	0
%MEA 	5
%PRD 	0,0
%PTS 	989
%STS 	    0.0	  0.0	   0.0 # Start Scan values in mm ( X , Y , Z )
%EDS 	    0.0	   0.0	   347.8 # End Scan values in mm ( X , Y , Z )
#
#	  X      Y      Z     Dose
#
=	0.0	0.0	0.0	27.2
=	0.0	0.0	0.1	27.8
=	0.0	0.0	0.5	29.4
=	0.0	0.0	1.0	31.3
=	0.0	0.0	1.4	33.6
=	0.0	0.0	1.8	36.8
=	0.0	0.0	2.2	40.2
=	0.0	0.0	2.6	44.3
=	0.0	0.0	3.0	48.3
=	0.0	0.0	3.4	51.7
=	0.0	0.0	3.8	54.7
=	0.0	0.0	4.2	57.9
=	0.0	0.0	4.6	61.1
=	0.0	0.0	5.0	64.0
=	0.0	0.0	5.4	66.5
=	0.0	0.0	5.8	68.4
=	0.0	0.0	6.0	69.6
=	0.0	0.0	6.4	71.8
=	0.0	0.0	6.8	73.9
=	0.0	0.0	7.1	75.5
=	0.0	0.0	7.5	77.1
=	0.0	0.0	7.9	78.5
=	0.0	0.0	8.2	80.1
=	0.0	0.0	8.5	81.0
=	0.0	0.0	8.9	82.4
=	0.0	0.0	9.3	83.7
=	0.0	0.0	9.6	84.6
=	0.0	0.0	9.9	85.6
=	0.0	0.0	10.1	86.3
=	0.0	0.0	10.4	86.9
=	0.0	0.0	10.7	87.9
=	0.0	0.0	11.1	89.1
=	0.0	0.0	11.6	90.0
=	0.0	0.0	12.0	90.7
=	0.0	0.0	12.3	91.2
=	0.0	0.0	12.6	91.8
=	0.0	0.0	13.0	92.9
=	0.0	0.0	13.4	93.5
=	0.0	0.0	13.8	94.1
=	0.0	0.0	14.2	94.6
=	0.0	0.0	14.4	94.9
=	0.0	0.0	14.7	95.3
=	0.0	0.0	15.0	95.7
=	0.0	0.0	15.4	96.2
=	0.0	0.0	15.8	96.6
=	0.0	0.0	16.2	97.0
=	0.0	0.0	16.6	97.3
=	0.0	0.0	16.9	97.4
=	0.0	0.0	17.2	97.7
=	0.0	0.0	17.6	98.1
=	0.0	0.0	18.0	98.3
=	0.0	0.0	18.4	98.4
=	0.0	0.0	18.7	98.6
=	0.0	0.0	19.0	98.8
=	0.0	0.0	19.4	99.0
=	0.0	0.0	19.8	99.1
=	0.0	0.0	20.2	99.2
=	0.0	0.0	20.7	99.4
=	0.0	0.0	21.1	99.5
=	0.0	0.0	21.5	99.7
=	0.0	0.0	21.9	99.7
=	0.0	0.0	22.3	99.8
=	0.0	0.0	22.7	99.9
=	0.0	0.0	23.1	100.0
=	0.0	0.0	23.4	100.0
=	0.0	0.0	23.7	100.0
=	0.0	0.0	24.1	100.0
=	0.0	0.0	24.5	100.0
=	0.0	0.0	24.8	100.0
=	0.0	0.0	25.0	100.0
=	0.0	0.0	25.4	99.9
=	0.0	0.0	25.8	99.9
=	0.0	0.0	26.2	99.9
=	0.0	0.0	26.6	99.8
=	0.0	0.0	27.0	99.7
=	0.0	0.0	27.4	99.6
=	0.0	0.0	27.8	99.5
=	0.0	0.0	28.2	99.5
=	0.0	0.0	28.6	99.4
=	0.0	0.0	29.0	99.3
=	0.0	0.0	29.4	99.2
=	0.0	0.0	29.8	99.1
=	0.0	0.0	30.1	99.0
=	0.0	0.0	30.4	98.9
=	0.0	0.0	30.8	98.8
=	0.0	0.0	31.2	98.7
=	0.0	0.0	31.7	98.6
=	0.0	0.0	32.1	98.4
=	0.0	0.0	32.5	98.2
=	0.0	0.0	32.9	98.1
=	0.0	0.0	33.3	97.9
=	0.0	0.0	33.7	97.9
=	0.0	0.0	34.1	97.7
=	0.0	0.0	34.5	97.5
=	0.0	0.0	34.9	97.4
=	0.0	0.0	35.3	97.3
=	0.0	0.0	35.7	97.2
=	0.0	0.0	36.1	96.8
=	0.0	0.0	36.5	96.7
=	0.0	0.0	36.9	96.5
=	0.0	0.0	37.2	96.4
=	0.0	0.0	37.6	96.3
=	0.0	0.0	37.9	96.1
=	0.0	0.0	38.1	96.0
=	0.0	0.0	38.4	95.9
=	0.0	0.0	38.7	95.8
=	0.0	0.0	39.0	95.7
=	0.0	0.0	39.4	95.6
=	0.0	0.0	39.8	95.3
=	0.0	0.0	40.2	95.1
=	0.0	0.0	40.6	95.0
=	0.0	0.0	41.0	94.8
=	0.0	0.0	41.4	94.6
=	0.0	0.0	41.8	94.5
=	0.0	0.0	42.1	94.4
=	0.0	0.0	42.5	94.3
=	0.0	0.0	42.9	94.2
=	0.0	0.0	43.3	94.1
=	0.0	0.0	43.7	93.8
=	0.0	0.0	44.1	93.6
=	0.0	0.0	44.5	93.4
=	0.0	0.0	44.7	93.3
=	0.0	0.0	45.0	93.1
=	0.0	0.0	45.2	92.9
=	0.0	0.0	45.7	92.8
=	0.0	0.0	46.0	92.7
=	0.0	0.0	46.2	92.6
=	0.0	0.0	46.5	92.5
=	0.0	0.0	46.8	92.4
=	0.0	0.0	47.0	92.3
=	0.0	0.0	47.3	92.1
=	0.0	0.0	47.6	92.0
=	0.0	0.0	48.0	91.8
=	0.0	0.0	48.4	91.6
=	0.0	0.0	48.9	91.5
=	0.0	0.0	49.2	91.4
=	0.0	0.0	49.7	91.3
=	0.0	0.0	50.1	91.2
=	0.0	0.0	50.5	91.0
=	0.0	0.0	50.9	90.9
=	0.0	0.0	51.3	90.7
=	0.0	0.0	51.7	90.4
=	0.0	0.0	52.2	90.2
=	0.0	0.0	52.6	90.0
=	0.0	0.0	53.0	89.8
=	0.0	0.0	53.4	89.6
=	0.0	0.0	53.8	89.4
=	0.0	0.0	54.2	89.2
=	0.0	0.0	54.5	89.1
=	0.0	0.0	54.8	89.0
=	0.0	0.0	55.1	88.9
=	0.0	0.0	55.4	88.8
=	0.0	0.0	55.8	88.6
=	0.0	0.0	56.1	88.4
=	0.0	0.0	56.4	88.3
=	0.0	0.0	56.8	88.2
=	0.0	0.0	57.1	88.0
=	0.0	0.0	57.4	87.9
=	0.0	0.0	57.7	87.7
=	0.0	0.0	57.9	87.6
=	0.0	0.0	58.2	87.5
=	0.0	0.0	58.5	87.4
=	0.0	0.0	58.9	87.3
=	0.0	0.0	59.3	87.2
=	0.0	0.0	59.7	87.0
=	0.0	0.0	60.1	86.7
=	0.0	0.0	60.5	86.5
=	0.0	0.0	60.8	86.4
=	0.0	0.0	61.1	86.2
=	0.0	0.0	61.4	86.1
=	0.0	0.0	61.7	86.1
=	0.0	0.0	62.0	86.0
=	0.0	0.0	62.3	85.9
=	0.0	0.0	62.7	85.8
=	0.0	0.0	63.1	85.6
=	0.0	0.0	63.5	85.4
=	0.0	0.0	64.0	85.2
=	0.0	0.0	64.2	85.1
=	0.0	0.0	64.6	85.0
=	0.0	0.0	65.0	84.7
=	0.0	0.0	65.4	84.5
=	0.0	0.0	65.8	84.3
=	0.0	0.0	66.3	84.1
=	0.0	0.0	66.7	84.0
=	0.0	0.0	67.1	83.8
=	0.0	0.0	67.5	83.6
=	0.0	0.0	67.9	83.5
=	0.0	0.0	68.3	83.3
=	0.0	0.0	68.6	83.2
=	0.0	0.0	68.9	83.1
=	0.0	0.0	69.2	83.0
=	0.0	0.0	69.5	82.9
=	0.0	0.0	69.9	82.8
=	0.0	0.0	70.3	82.6
=	0.0	0.0	70.7	82.5
=	0.0	0.0	71.1	82.4
=	0.0	0.0	71.6	82.2
=	0.0	0.0	72.0	82.0
=	0.0	0.0	72.4	81.8
=	0.0	0.0	72.7	81.7
=	0.0	0.0	72.9	81.5
=	0.0	0.0	73.2	81.3
=	0.0	0.0	73.5	81.2
=	0.0	0.0	73.8	81.1
=	0.0	0.0	74.2	80.9
=	0.0	0.0	74.6	80.8
=	0.0	0.0	75.0	80.7
=	0.0	0.0	75.3	80.6
=	0.0	0.0	75.6	80.6
=	0.0	0.0	75.9	80.4
=	0.0	0.0	76.3	80.3
=	0.0	0.0	76.7	80.1
=	0.0	0.0	77.1	80.0
=	0.0	0.0	77.4	79.9
=	0.0	0.0	77.7	79.7
=	0.0	0.0	78.1	79.5
=	0.0	0.0	78.5	79.4
=	0.0	0.0	78.9	79.2
=	0.0	0.0	79.4	79.0
=	0.0	0.0	79.8	78.9
=	0.0	0.0	80.2	78.7
=	0.0	0.0	80.6	78.6
=	0.0	0.0	81.0	78.5
=	0.0	0.0	81.2	78.4
=	0.0	0.0	81.5	78.3
=	0.0	0.0	81.8	78.0
=	0.0	0.0	82.2	77.8
=	0.0	0.0	82.5	77.6
=	0.0	0.0	82.7	77.5
=	0.0	0.0	83.1	77.5
=	0.0	0.0	83.3	77.5
=	0.0	0.0	83.5	77.4
=	0.0	0.0	83.7	77.4
=	0.0	0.0	84.0	77.3
=	0.0	0.0	84.2	77.2
=	0.0	0.0	84.5	77.1
=	0.0	0.0	84.8	77.0
=	0.0	0.0	85.2	76.9
=	0.0	0.0	85.6	76.7
=	0.0	0.0	86.0	76.5
=	0.0	0.0	86.4	76.4
=	0.0	0.0	86.8	76.2
=	0.0	0.0	87.3	76.0
=	0.0	0.0	87.7	75.8
=	0.0	0.0	88.1	75.7
=	0.0	0.0	88.3	75.7
=	0.0	0.0	88.7	75.4
=	0.0	0.0	88.9	75.3
=	0.0	0.0	89.3	75.1
=	0.0	0.0	89.7	74.9
=	0.0	0.0	90.1	74.8
=	0.0	0.0	90.6	74.7
=	0.0	0.0	91.0	74.6
=	0.0	0.0	91.4	74.5
=	0.0	0.0	91.8	74.3
=	0.0	0.0	92.2	74.2
=	0.0	0.0	92.4	74.1
=	0.0	0.0	92.7	74.0
=	0.0	0.0	93.1	73.9
=	0.0	0.0	93.6	73.7
=	0.0	0.0	94.0	73.5
=	0.0	0.0	94.4	73.3
=	0.0	0.0	94.8	73.2
=	0.0	0.0	95.1	73.1
=	0.0	0.0	95.4	73.0
=	0.0	0.0	95.7	73.0
=	0.0	0.0	96.0	72.9
=	0.0	0.0	96.2	72.8
=	0.0	0.0	96.6	72.5
=	0.0	0.0	97.0	72.3
=	0.0	0.0	97.3	72.2
=	0.0	0.0	97.6	72.1
=	0.0	0.0	97.9	72.0
=	0.0	0.0	98.2	71.9
=	0.0	0.0	98.5	71.9
=	0.0	0.0	98.7	71.8
=	0.0	0.0	99.1	71.7
=	0.0	0.0	99.4	71.6
=	0.0	0.0	99.6	71.5
=	0.0	0.0	99.9	71.4
=	0.0	0.0	100.1	71.3
=	0.0	0.0	100.5	71.2
=	0.0	0.0	100.8	71.1
=	0.0	0.0	101.1	71.0
=	0.0	0.0	101.5	70.8
=	0.0	0.0	101.9	70.7
=	0.0	0.0	102.2	70.6
=	0.0	0.0	102.5	70.5
=	0.0	0.0	102.8	70.4
=	0.0	0.0	103.0	70.3
=	0.0	0.0	103.3	70.2
=	0.0	0.0	103.5	70.2
=	0.0	0.0	103.8	70.1
=	0.0	0.0	104.2	70.0
=	0.0	0.0	104.7	69.8
=	0.0	0.0	105.1	69.6
=	0.0	0.0	105.5	69.5
=	0.0	0.0	105.9	69.5
=	0.0	0.0	106.3	69.4
=	0.0	0.0	106.6	69.3
=	0.0	0.0	106.9	69.1
=	0.0	0.0	107.3	69.0
=	0.0	0.0	107.7	68.9
=	0.0	0.0	108.1	68.6
=	0.0	0.0	108.5	68.4
=	0.0	0.0	108.9	68.4
=	0.0	0.0	109.3	68.2
=	0.0	0.0	109.7	68.1
=	0.0	0.0	109.9	68.0
=	0.0	0.0	110.1	68.0
=	0.0	0.0	110.4	67.9
=	0.0	0.0	110.6	67.8
=	0.0	0.0	111.0	67.6
=	0.0	0.0	111.4	67.5
=	0.0	0.0	111.8	67.4
=	0.0	0.0	112.1	67.3
=	0.0	0.0	112.3	67.2
=	0.0	0.0	112.6	67.1
=	0.0	0.0	113.0	67.0
=	0.0	0.0	113.5	66.9
=	0.0	0.0	113.9	66.8
=	0.0	0.0	114.3	66.6
=	0.0	0.0	114.6	66.5
=	0.0	0.0	114.9	66.4
=	0.0	0.0	115.1	66.3
=	0.0	0.0	115.5	66.2
=	0.0	0.0	115.9	66.1
=	0.0	0.0	116.2	66.0
=	0.0	0.0	116.5	65.9
=	0.0	0.0	116.9	65.7
=	0.0	0.0	117.4	65.6
=	0.0	0.0	117.8	65.4
=	0.0	0.0	118.2	65.3
=	0.0	0.0	118.6	65.1
=	0.0	0.0	118.9	64.9
=	0.0	0.0	119.2	64.8
=	0.0	0.0	119.5	64.8
=	0.0	0.0	119.7	64.7
=	0.0	0.0	120.0	64.7
=	0.0	0.0	120.3	64.6
=	0.0	0.0	120.5	64.6
=	0.0	0.0	120.8	64.4
=	0.0	0.0	121.2	64.3
=	0.0	0.0	121.5	64.2
=	0.0	0.0	121.8	64.1
=	0.0	0.0	122.0	64.0
=	0.0	0.0	122.3	63.8
=	0.0	0.0	122.5	63.7
=	0.0	0.0	122.8	63.7
=	0.0	0.0	123.1	63.7
=	0.0	0.0	123.5	63.6
=	0.0	0.0	123.9	63.5
=	0.0	0.0	124.2	63.4
=	0.0	0.0	124.6	63.3
=	0.0	0.0	125.0	63.1
=	0.0	0.0	125.4	62.9
=	0.0	0.0	125.7	62.9
=	0.0	0.0	126.1	62.8
=	0.0	0.0	126.4	62.7
=	0.0	0.0	126.7	62.6
=	0.0	0.0	126.9	62.5
=	0.0	0.0	127.1	62.5
=	0.0	0.0	127.3	62.4
=	0.0	0.0	127.6	62.3
=	0.0	0.0	128.0	62.3
=	0.0	0.0	128.3	62.2
=	0.0	0.0	128.6	62.1
=	0.0	0.0	129.1	61.9
=	0.0	0.0	129.5	61.7
=	0.0	0.0	129.9	61.6
=	0.0	0.0	130.4	61.5
=	0.0	0.0	130.8	61.4
=	0.0	0.0	131.0	61.3
=	0.0	0.0	131.4	61.1
=	0.0	0.0	131.7	61.0
=	0.0	0.0	131.9	60.9
=	0.0	0.0	132.2	60.8
=	0.0	0.0	132.5	60.8
=	0.0	0.0	132.8	60.7
=	0.0	0.0	133.0	60.6
=	0.0	0.0	133.3	60.6
=	0.0	0.0	133.6	60.5
=	0.0	0.0	133.9	60.4
=	0.0	0.0	134.2	60.3
=	0.0	0.0	134.5	60.2
=	0.0	0.0	134.9	60.2
=	0.0	0.0	135.2	60.1
=	0.0	0.0	135.7	60.0
=	0.0	0.0	136.1	59.9
=	0.0	0.0	136.5	59.7
=	0.0	0.0	136.8	59.6
=	0.0	0.0	137.1	59.5
=	0.0	0.0	137.4	59.4
=	0.0	0.0	137.8	59.3
=	0.0	0.0	138.2	59.3
=	0.0	0.0	138.6	59.1
=	0.0	0.0	138.8	59.0
=	0.0	0.0	139.2	59.0
=	0.0	0.0	139.6	58.8
=	0.0	0.0	140.0	58.6
=	0.0	0.0	140.4	58.5
=	0.0	0.0	140.8	58.3
=	0.0	0.0	141.2	58.2
=	0.0	0.0	141.6	58.1
=	0.0	0.0	142.0	58.0
=	0.0	0.0	142.5	57.8
=	0.0	0.0	142.9	57.7
=	0.0	0.0	143.3	57.6
=	0.0	0.0	143.7	57.4
=	0.0	0.0	144.1	57.3
=	0.0	0.0	144.4	57.3
=	0.0	0.0	144.7	57.2
=	0.0	0.0	145.1	57.1
=	0.0	0.0	145.3	57.0
=	0.0	0.0	145.8	57.0
=	0.0	0.0	146.2	56.9
=	0.0	0.0	146.6	56.8
=	0.0	0.0	147.0	56.7
=	0.0	0.0	147.4	56.6
=	0.0	0.0	147.6	56.5
=	0.0	0.0	147.9	56.4
=	0.0	0.0	148.2	56.3
=	0.0	0.0	148.6	56.2
=	0.0	0.0	149.0	56.1
=	0.0	0.0	149.4	56.0
=	0.0	0.0	149.8	55.9
=	0.0	0.0	150.2	55.7
=	0.0	0.0	150.6	55.6
=	0.0	0.0	151.0	55.5
=	0.0	0.0	151.5	55.4
=	0.0	0.0	151.9	55.2
=	0.0	0.0	152.3	55.1
=	0.0	0.0	152.6	55.0
=	0.0	0.0	153.0	55.0
=	0.0	0.0	153.4	54.9
=	0.0	0.0	153.7	54.9
=	0.0	0.0	154.0	54.8
=	0.0	0.0	154.4	54.7
=	0.0	0.0	154.6	54.6
=	0.0	0.0	155.0	54.5
=	0.0	0.0	155.4	54.4
=	0.0	0.0	155.6	54.3
=	0.0	0.0	156.0	54.2
=	0.0	0.0	156.3	54.0
=	0.0	0.0	156.6	54.0
=	0.0	0.0	156.9	53.9
=	0.0	0.0	157.3	53.8
=	0.0	0.0	157.7	53.7
=	0.0	0.0	158.1	53.5
=	0.0	0.0	158.5	53.4
=	0.0	0.0	158.9	53.4
=	0.0	0.0	159.3	53.3
=	0.0	0.0	159.7	53.2
=	0.0	0.0	160.1	53.1
=	0.0	0.0	160.6	52.9
=	0.0	0.0	161.0	52.8
=	0.0	0.0	161.4	52.8
=	0.0	0.0	161.8	52.7
=	0.0	0.0	162.2	52.6
=	0.0	0.0	162.6	52.5
=	0.0	0.0	163.0	52.4
=	0.0	0.0	163.4	52.3
=	0.0	0.0	163.8	52.2
=	0.0	0.0	164.1	52.1
=	0.0	0.0	164.4	52.0
=	0.0	0.0	164.6	52.0
=	0.0	0.0	164.9	51.9
=	0.0	0.0	165.3	51.8
=	0.0	0.0	165.6	51.7
=	0.0	0.0	166.0	51.6
=	0.0	0.0	166.3	51.5
=	0.0	0.0	166.6	51.5
=	0.0	0.0	166.9	51.4
=	0.0	0.0	167.3	51.3
=	0.0	0.0	167.7	51.2
=	0.0	0.0	168.1	51.0
=	0.0	0.0	168.5	51.0
=	0.0	0.0	168.9	50.9
=	0.0	0.0	169.4	50.8
=	0.0	0.0	169.8	50.7
=	0.0	0.0	170.2	50.6
=	0.0	0.0	170.5	50.5
=	0.0	0.0	170.9	50.4
=	0.0	0.0	171.2	50.3
=	0.0	0.0	171.5	50.3
=	0.0	0.0	171.8	50.3
=	0.0	0.0	172.0	50.2
=	0.0	0.0	172.2	50.2
=	0.0	0.0	172.6	50.0
=	0.0	0.0	172.9	49.9
=	0.0	0.0	173.3	49.8
=	0.0	0.0	173.7	49.7
=	0.0	0.0	174.0	49.6
=	0.0	0.0	174.3	49.4
=	0.0	0.0	174.5	49.4
=	0.0	0.0	174.8	49.3
=	0.0	0.0	175.1	49.3
=	0.0	0.0	175.4	49.2
=	0.0	0.0	175.7	49.2
=	0.0	0.0	176.2	49.0
=	0.0	0.0	176.6	48.9
=	0.0	0.0	177.0	48.8
=	0.0	0.0	177.4	48.7
=	0.0	0.0	177.8	48.7
=	0.0	0.0	178.2	48.6
=	0.0	0.0	178.6	48.5
=	0.0	0.0	179.0	48.4
=	0.0	0.0	179.4	48.3
=	0.0	0.0	179.8	48.2
=	0.0	0.0	180.2	48.1
=	0.0	0.0	180.6	48.0
=	0.0	0.0	181.0	47.9
=	0.0	0.0	181.3	47.9
=	0.0	0.0	181.6	47.8
=	0.0	0.0	181.8	47.7
=	0.0	0.0	182.1	47.7
=	0.0	0.0	182.4	47.6
=	0.0	0.0	182.8	47.6
=	0.0	0.0	183.1	47.4
=	0.0	0.0	183.4	47.4
=	0.0	0.0	183.7	47.3
=	0.0	0.0	184.1	47.2
=	0.0	0.0	184.5	47.1
=	0.0	0.0	184.9	47.0
=	0.0	0.0	185.2	47.0
=	0.0	0.0	185.5	47.0
=	0.0	0.0	185.8	46.9
=	0.0	0.0	186.0	46.8
=	0.0	0.0	186.4	46.7
=	0.0	0.0	186.6	46.6
=	0.0	0.0	187.0	46.6
=	0.0	0.0	187.4	46.5
=	0.0	0.0	187.7	46.4
=	0.0	0.0	188.1	46.3
=	0.0	0.0	188.3	46.2
=	0.0	0.0	188.6	46.1
=	0.0	0.0	189.0	46.0
=	0.0	0.0	189.5	45.9
=	0.0	0.0	189.9	45.7
=	0.0	0.0	190.3	45.6
=	0.0	0.0	190.5	45.6
=	0.0	0.0	190.9	45.6
=	0.0	0.0	191.3	45.5
=	0.0	0.0	191.7	45.4
=	0.0	0.0	192.1	45.3
=	0.0	0.0	192.5	45.3
=	0.0	0.0	192.9	45.2
=	0.0	0.0	193.4	45.1
=	0.0	0.0	193.8	45.0
=	0.0	0.0	194.2	44.9
=	0.0	0.0	194.6	44.8
=	0.0	0.0	195.0	44.7
=	0.0	0.0	195.4	44.6
=	0.0	0.0	195.7	44.6
=	0.0	0.0	196.0	44.5
=	0.0	0.0	196.4	44.4
=	0.0	0.0	196.8	44.4
=	0.0	0.0	197.2	44.2
=	0.0	0.0	197.6	44.2
=	0.0	0.0	198.0	44.1
=	0.0	0.0	198.3	44.0
=	0.0	0.0	198.6	43.9
=	0.0	0.0	199.0	43.9
=	0.0	0.0	199.2	43.8
=	0.0	0.0	199.5	43.7
=	0.0	0.0	199.9	43.7
=	0.0	0.0	200.3	43.5
=	0.0	0.0	200.7	43.4
=	0.0	0.0	201.0	43.4
=	0.0	0.0	201.3	43.3
=	0.0	0.0	201.7	43.2
=	0.0	0.0	202.1	43.2
=	0.0	0.0	202.4	43.1
=	0.0	0.0	202.8	43.0
=	0.0	0.0	203.2	43.0
=	0.0	0.0	203.6	42.9
=	0.0	0.0	204.0	42.9
=	0.0	0.0	204.4	42.8
=	0.0	0.0	204.7	42.7
=	0.0	0.0	205.1	42.6
=	0.0	0.0	205.4	42.6
=	0.0	0.0	205.8	42.5
=	0.0	0.0	206.1	42.4
=	0.0	0.0	206.4	42.4
=	0.0	0.0	206.8	42.3
=	0.0	0.0	207.1	42.2
=	0.0	0.0	207.4	42.2
=	0.0	0.0	207.7	42.1
=	0.0	0.0	208.0	42.1
=	0.0	0.0	208.2	42.0
=	0.0	0.0	208.5	41.9
=	0.0	0.0	208.8	41.9
=	0.0	0.0	209.0	41.8
=	0.0	0.0	209.3	41.8
=	0.0	0.0	209.6	41.7
=	0.0	0.0	210.0	41.6
=	0.0	0.0	210.3	41.6
=	0.0	0.0	210.8	41.5
=	0.0	0.0	211.2	41.5
=	0.0	0.0	211.6	41.4
=	0.0	0.0	212.0	41.3
=	0.0	0.0	212.2	41.2
=	0.0	0.0	212.5	41.2
=	0.0	0.0	212.7	41.1
=	0.0	0.0	213.0	41.0
=	0.0	0.0	213.3	40.9
=	0.0	0.0	213.8	40.8
=	0.0	0.0	214.2	40.8
=	0.0	0.0	214.6	40.7
=	0.0	0.0	215.0	40.6
=	0.0	0.0	215.4	40.5
=	0.0	0.0	215.8	40.5
=	0.0	0.0	216.1	40.4
=	0.0	0.0	216.4	40.4
=	0.0	0.0	216.9	40.2
=	0.0	0.0	217.3	40.2
=	0.0	0.0	217.7	40.1
=	0.0	0.0	218.0	40.0
=	0.0	0.0	218.2	40.0
=	0.0	0.0	218.6	39.9
=	0.0	0.0	219.1	39.8
=	0.0	0.0	219.5	39.7
=	0.0	0.0	219.9	39.7
=	0.0	0.0	220.3	39.6
=	0.0	0.0	220.7	39.6
=	0.0	0.0	220.9	39.6
=	0.0	0.0	221.2	39.5
=	0.0	0.0	221.5	39.4
=	0.0	0.0	221.7	39.4
=	0.0	0.0	221.9	39.3
=	0.0	0.0	222.3	39.2
=	0.0	0.0	222.7	39.1
=	0.0	0.0	222.9	39.1
=	0.0	0.0	223.2	39.0
=	0.0	0.0	223.5	38.9
=	0.0	0.0	223.8	38.9
=	0.0	0.0	224.1	38.8
=	0.0	0.0	224.6	38.8
=	0.0	0.0	225.0	38.7
=	0.0	0.0	225.4	38.6
=	0.0	0.0	225.8	38.5
=	0.0	0.0	226.2	38.5
=	0.0	0.0	226.6	38.4
=	0.0	0.0	226.9	38.4
=	0.0	0.0	227.3	38.3
=	0.0	0.0	227.7	38.2
=	0.0	0.0	228.1	38.1
=	0.0	0.0	228.5	38.0
=	0.0	0.0	228.9	37.9
=	0.0	0.0	229.3	37.9
=	0.0	0.0	229.7	37.8
=	0.0	0.0	230.2	37.8
=	0.0	0.0	230.6	37.8
=	0.0	0.0	231.0	37.7
=	0.0	0.0	231.3	37.6
=	0.0	0.0	231.6	37.5
=	0.0	0.0	232.0	37.4
=	0.0	0.0	232.4	37.3
=	0.0	0.0	232.8	37.3
=	0.0	0.0	233.3	37.2
=	0.0	0.0	233.7	37.2
=	0.0	0.0	234.1	37.1
=	0.0	0.0	234.5	37.0
=	0.0	0.0	234.9	36.9
=	0.0	0.0	235.2	36.8
=	0.0	0.0	235.5	36.8
=	0.0	0.0	235.8	36.8
=	0.0	0.0	236.2	36.7
=	0.0	0.0	236.5	36.7
=	0.0	0.0	236.8	36.6
=	0.0	0.0	237.1	36.6
=	0.0	0.0	237.3	36.5
=	0.0	0.0	237.7	36.4
=	0.0	0.0	238.0	36.4
=	0.0	0.0	238.3	36.3
=	0.0	0.0	238.5	36.3
=	0.0	0.0	238.8	36.3
=	0.0	0.0	239.1	36.3
=	0.0	0.0	239.4	36.2
=	0.0	0.0	239.6	36.1
=	0.0	0.0	240.0	36.0
=	0.0	0.0	240.3	36.0
=	0.0	0.0	240.6	35.9
=	0.0	0.0	241.0	35.8
=	0.0	0.0	241.4	35.7
=	0.0	0.0	241.8	35.6
=	0.0	0.0	242.2	35.6
=	0.0	0.0	242.7	35.5
=	0.0	0.0	242.9	35.5
=	0.0	0.0	243.2	35.4
=	0.0	0.0	243.5	35.4
=	0.0	0.0	243.8	35.3
=	0.0	0.0	244.2	35.3
=	0.0	0.0	244.6	35.2
=	0.0	0.0	245.0	35.1
=	0.0	0.0	245.4	35.0
=	0.0	0.0	245.8	34.9
=	0.0	0.0	246.1	34.8
=	0.0	0.0	246.5	34.8
=	0.0	0.0	246.8	34.8
=	0.0	0.0	247.1	34.7
=	0.0	0.0	247.4	34.7
=	0.0	0.0	247.6	34.6
=	0.0	0.0	248.0	34.6
=	0.0	0.0	248.4	34.5
=	0.0	0.0	248.9	34.5
=	0.0	0.0	249.3	34.4
=	0.0	0.0	249.7	34.3
=	0.0	0.0	250.1	34.3
=	0.0	0.0	250.5	34.2
=	0.0	0.0	250.8	34.2
=	0.0	0.0	251.1	34.1
=	0.0	0.0	251.3	34.1
=	0.0	0.0	251.7	34.0
=	0.0	0.0	252.2	34.0
=	0.0	0.0	252.5	34.0
=	0.0	0.0	252.8	33.9
=	0.0	0.0	253.0	33.8
=	0.0	0.0	253.3	33.8
=	0.0	0.0	253.6	33.7
=	0.0	0.0	254.0	33.7
=	0.0	0.0	254.3	33.7
=	0.0	0.0	254.6	33.6
=	0.0	0.0	254.9	33.5
=	0.0	0.0	255.2	33.5
=	0.0	0.0	255.5	33.4
=	0.0	0.0	255.7	33.4
=	0.0	0.0	256.0	33.3
=	0.0	0.0	256.3	33.3
=	0.0	0.0	256.6	33.3
=	0.0	0.0	256.8	33.3
=	0.0	0.0	257.2	33.2
=	0.0	0.0	257.5	33.1
=	0.0	0.0	257.8	33.1
=	0.0	0.0	258.1	33.0
=	0.0	0.0	258.4	33.0
=	0.0	0.0	258.9	32.9
=	0.0	0.0	259.1	32.9
=	0.0	0.0	259.5	32.9
=	0.0	0.0	259.9	32.8
=	0.0	0.0	260.3	32.7
=	0.0	0.0	260.8	32.6
=	0.0	0.0	261.2	32.6
=	0.0	0.0	261.6	32.5
=	0.0	0.0	262.0	32.5
=	0.0	0.0	262.4	32.4
=	0.0	0.0	262.7	32.3
=	0.0	0.0	263.0	32.3
=	0.0	0.0	263.2	32.2
=	0.0	0.0	263.5	32.2
=	0.0	0.0	263.7	32.2
=	0.0	0.0	264.0	32.1
=	0.0	0.0	264.3	32.1
=	0.0	0.0	264.6	32.0
=	0.0	0.0	264.9	32.0
=	0.0	0.0	265.3	32.0
=	0.0	0.0	265.6	31.9
=	0.0	0.0	265.8	31.9
=	0.0	0.0	266.2	31.9
=	0.0	0.0	266.6	31.7
=	0.0	0.0	267.0	31.7
=	0.0	0.0	267.4	31.6
=	0.0	0.0	267.7	31.6
=	0.0	0.0	268.0	31.5
=	0.0	0.0	268.3	31.4
=	0.0	0.0	268.6	31.4
=	0.0	0.0	269.0	31.3
=	0.0	0.0	269.2	31.3
=	0.0	0.0	269.6	31.3
=	0.0	0.0	269.9	31.2
=	0.0	0.0	270.2	31.2
=	0.0	0.0	270.6	31.2
=	0.0	0.0	270.9	31.1
=	0.0	0.0	271.2	31.1
=	0.0	0.0	271.4	31.0
=	0.0	0.0	271.7	31.0
=	0.0	0.0	271.9	30.9
=	0.0	0.0	272.3	30.9
=	0.0	0.0	272.7	30.9
=	0.0	0.0	273.1	30.8
=	0.0	0.0	273.5	30.7
=	0.0	0.0	273.9	30.7
=	0.0	0.0	274.3	30.6
=	0.0	0.0	274.7	30.5
=	0.0	0.0	275.2	30.4
=	0.0	0.0	275.6	30.4
=	0.0	0.0	275.9	30.3
=	0.0	0.0	276.2	30.3
=	0.0	0.0	276.4	30.3
=	0.0	0.0	276.7	30.3
=	0.0	0.0	277.0	30.2
=	0.0	0.0	277.3	30.1
=	0.0	0.0	277.6	30.1
=	0.0	0.0	277.9	30.1
=	0.0	0.0	278.1	30.0
=	0.0	0.0	278.4	30.0
=	0.0	0.0	278.8	29.9
=	0.0	0.0	279.3	29.9
=	0.0	0.0	279.7	29.8
=	0.0	0.0	280.1	29.7
=	0.0	0.0	280.5	29.7
=	0.0	0.0	280.9	29.6
=	0.0	0.0	281.3	29.6
=	0.0	0.0	281.7	29.5
=	0.0	0.0	282.1	29.5
=	0.0	0.0	282.4	29.4
=	0.0	0.0	282.7	29.4
=	0.0	0.0	283.0	29.3
=	0.0	0.0	283.2	29.3
=	0.0	0.0	283.5	29.3
=	0.0	0.0	283.8	29.3
=	0.0	0.0	284.0	29.2
=	0.0	0.0	284.3	29.2
=	0.0	0.0	284.6	29.1
=	0.0	0.0	284.9	29.1
=	0.0	0.0	285.1	29.1
=	0.0	0.0	285.5	29.0
=	0.0	0.0	285.9	29.0
=	0.0	0.0	286.3	28.9
=	0.0	0.0	286.5	28.9
=	0.0	0.0	286.9	28.8
=	0.0	0.0	287.2	28.8
=	0.0	0.0	287.5	28.7
=	0.0	0.0	287.9	28.7
=	0.0	0.0	288.3	28.6
=	0.0	0.0	288.7	28.5
=	0.0	0.0	289.1	28.5
=	0.0	0.0	289.5	28.5
=	0.0	0.0	289.9	28.4
=	0.0	0.0	290.3	28.3
=	0.0	0.0	290.8	28.3
=	0.0	0.0	291.2	28.2
=	0.0	0.0	291.6	28.1
=	0.0	0.0	292.0	28.1
=	0.0	0.0	292.4	28.1
=	0.0	0.0	292.7	28.0
=	0.0	0.0	293.0	28.0
=	0.0	0.0	293.3	27.9
=	0.0	0.0	293.5	27.9
=	0.0	0.0	293.8	27.9
=	0.0	0.0	294.2	27.8
=	0.0	0.0	294.6	27.8
=	0.0	0.0	295.0	27.7
=	0.0	0.0	295.4	27.7
=	0.0	0.0	295.8	27.6
=	0.0	0.0	296.3	27.5
=	0.0	0.0	296.7	27.5
=	0.0	0.0	297.1	27.5
=	0.0	0.0	297.5	27.4
=	0.0	0.0	297.9	27.4
=	0.0	0.0	298.3	27.3
=	0.0	0.0	298.7	27.2
=	0.0	0.0	299.0	27.2
=	0.0	0.0	299.3	27.2
=	0.0	0.0	299.5	27.2
=	0.0	0.0	299.8	27.2
=	0.0	0.0	300.1	27.1
=	0.0	0.0	300.4	27.1
=	0.0	0.0	300.6	27.1
=	0.0	0.0	300.9	27.0
=	0.0	0.0	301.2	27.0
=	0.0	0.0	301.6	26.9
=	0.0	0.0	302.0	26.8
=	0.0	0.0	302.5	26.8
=	0.0	0.0	302.9	26.7
=	0.0	0.0	303.2	26.7
=	0.0	0.0	303.5	26.7
=	0.0	0.0	303.9	26.6
=	0.0	0.0	304.3	26.6
=	0.0	0.0	304.7	26.6
=	0.0	0.0	305.1	26.5
=	0.0	0.0	305.5	26.5
=	0.0	0.0	305.9	26.4
=	0.0	0.0	306.4	26.4
=	0.0	0.0	306.8	26.3
=	0.0	0.0	307.0	26.3
=	0.0	0.0	307.3	26.3
=	0.0	0.0	307.6	26.2
=	0.0	0.0	307.8	26.1
=	0.0	0.0	308.1	26.1
=	0.0	0.0	308.4	26.1
=	0.0	0.0	308.7	26.0
=	0.0	0.0	309.0	26.0
=	0.0	0.0	309.2	25.9
=	0.0	0.0	309.6	25.9
=	0.0	0.0	310.0	25.8
=	0.0	0.0	310.5	25.8
=	0.0	0.0	310.9	25.8
=	0.0	0.0	311.2	25.7
=	0.0	0.0	311.5	25.7
=	0.0	0.0	311.8	25.7
=	0.0	0.0	312.0	25.6
=	0.0	0.0	312.5	25.6
=	0.0	0.0	312.9	25.5
=	0.0	0.0	313.3	25.4
=	0.0	0.0	313.7	25.4
=	0.0	0.0	314.2	25.4
=	0.0	0.0	314.4	25.3
=	0.0	0.0	314.7	25.3
=	0.0	0.0	314.9	25.3
=	0.0	0.0	315.2	25.3
=	0.0	0.0	315.5	25.2
=	0.0	0.0	315.8	25.2
=	0.0	0.0	316.2	25.1
=	0.0	0.0	316.5	25.1
=	0.0	0.0	316.8	25.0
=	0.0	0.0	317.3	25.0
=	0.0	0.0	317.7	25.0
=	0.0	0.0	318.1	24.9
=	0.0	0.0	318.3	24.9
=	0.0	0.0	318.6	24.9
=	0.0	0.0	318.9	24.8
=	0.0	0.0	319.2	24.8
=	0.0	0.0	319.7	24.7
=	0.0	0.0	320.1	24.7
=	0.0	0.0	320.5	24.6
=	0.0	0.0	320.9	24.6
=	0.0	0.0	321.3	24.5
=	0.0	0.0	321.7	24.4
=	0.0	0.0	322.1	24.4
=	0.0	0.0	322.5	24.3
=	0.0	0.0	322.9	24.3
=	0.0	0.0	323.3	24.3
=	0.0	0.0	323.8	24.2
=	0.0	0.0	324.2	24.2
=	0.0	0.0	324.6	24.1
=	0.0	0.0	325.0	24.1
=	0.0	0.0	325.3	24.1
=	0.0	0.0	325.6	24.0
=	0.0	0.0	326.0	24.0
=	0.0	0.0	326.3	24.0
=	0.0	0.0	326.5	23.9
=	0.0	0.0	326.9	23.9
=	0.0	0.0	327.3	23.8
=	0.0	0.0	327.7	23.8
=	0.0	0.0	328.1	23.8
=	0.0	0.0	328.5	23.7
=	0.0	0.0	328.8	23.7
=	0.0	0.0	329.0	23.7
=	0.0	0.0	329.5	23.6
=	0.0	0.0	329.9	23.6
=	0.0	0.0	330.2	23.5
=	0.0	0.0	330.5	23.5
=	0.0	0.0	330.9	23.5
=	0.0	0.0	331.4	23.4
=	0.0	0.0	331.8	23.4
=	0.0	0.0	332.2	23.4
=	0.0	0.0	332.6	23.3
=	0.0	0.0	333.0	23.3
=	0.0	0.0	333.4	23.2
=	0.0	0.0	333.8	23.2
=	0.0	0.0	334.3	23.1
=	0.0	0.0	334.7	23.1
=	0.0	0.0	335.1	23.0
=	0.0	0.0	335.4	23.0
=	0.0	0.0	335.9	22.9
=	0.0	0.0	336.3	22.8
=	0.0	0.0	336.7	22.8
=	0.0	0.0	337.1	22.7
=	0.0	0.0	337.5	22.7
=	0.0	0.0	337.9	22.7
=	0.0	0.0	338.3	22.6
=	0.0	0.0	338.6	22.6
=	0.0	0.0	338.9	22.6
=	0.0	0.0	339.1	22.6
=	0.0	0.0	339.5	22.5
=	0.0	0.0	340.0	22.5
=	0.0	0.0	340.4	22.5
=	0.0	0.0	340.8	22.4
=	0.0	0.0	341.2	22.4
=	0.0	0.0	341.6	22.3
=	0.0	0.0	341.9	22.3
=	0.0	0.0	342.2	22.2
=	0.0	0.0	342.5	22.2
=	0.0	0.0	342.8	22.2
=	0.0	0.0	343.2	22.2
=	0.0	0.0	343.5	22.1
=	0.0	0.0	343.8	22.1
=	0.0	0.0	344.3	22.1
=	0.0	0.0	344.6	22.0
=	0.0	0.0	345.0	22.0
=	0.0	0.0	345.4	22.0
=	0.0	0.0	345.6	21.9
=	0.0	0.0	346.0	21.9
=	0.0	0.0	346.4	21.8
=	0.0	0.0	346.8	21.8
=	0.0	0.0	347.1	21.8
=	0.0	0.0	347.5	21.7
=	0.0	0.0	347.8	21.7
:EOM # End of Measurement
#
# RFA300 ASCII Measurement Dump ( BDS format )
#
# Measurement number 	2
#
%VNR 1.0
%MOD 	RAT
%TYP 	SCN
%SCN 	DPT
%FLD 	ION
%DAT 	09-27-2011
%TIM 	12:00:00
%FSZ 	100	100
%BMT 	PHO	   10.0
%SSD 	1000
%BUP 	0
%BRD 	1000
%FSH 	1
%ASC 	0
%WEG 	60
%GPO 	0
%CPO 	0
%MEA 	5
%PRD 	0,0
%PTS 	978
%STS 	    0.0	  0.0	   0.0 # Start Scan values in mm ( X , Y , Z )
%EDS 	    0.0	   0.0	   347.7 # End Scan values in mm ( X , Y , Z )
#
#	  X      Y      Z     Dose
#
=	0.0	0.0	0.0	33.8
=	0.0	0.0	0.3	34.9
=	0.0	0.0	0.6	36.2
=	0.0	0.0	0.9	37.6
=	0.0	0.0	1.2	39.2
=	0.0	0.0	1.5	40.7
=	0.0	0.0	1.7	42.7
=	0.0	0.0	2.0	44.7
=	0.0	0.0	2.3	47.1
=	0.0	0.0	2.7	50.9
=	0.0	0.0	3.1	54.5
=	0.0	0.0	3.5	57.6
=	0.0	0.0	3.9	60.5
=	0.0	0.0	4.1	62.5
=	0.0	0.0	4.4	64.6
=	0.0	0.0	4.7	66.5
=	0.0	0.0	5.0	68.2
=	0.0	0.0	5.3	69.9
=	0.0	0.0	5.7	71.7
=	0.0	0.0	5.9	73.1
=	0.0	0.0	6.2	74.5
=	0.0	0.0	6.5	75.9
=	0.0	0.0	6.7	77.1
=	0.0	0.0	7.0	78.6
=	0.0	0.0	7.3	79.9
=	0.0	0.0	7.7	81.2
=	0.0	0.0	8.1	82.5
=	0.0	0.0	8.3	83.4
=	0.0	0.0	8.6	84.4
=	0.0	0.0	8.9	85.2
=	0.0	0.0	9.2	86.0
=	0.0	0.0	9.4	86.7
=	0.0	0.0	9.8	87.5
=	0.0	0.0	10.1	88.4
=	0.0	0.0	10.4	89.2
=	0.0	0.0	10.8	90.2
=	0.0	0.0	11.1	90.7
=	0.0	0.0	11.4	91.1
=	0.0	0.0	11.6	91.8
=	0.0	0.0	11.9	92.4
=	0.0	0.0	12.2	92.8
=	0.0	0.0	12.4	93.3
=	0.0	0.0	12.8	93.9
=	0.0	0.0	13.2	94.4
=	0.0	0.0	13.4	94.7
=	0.0	0.0	13.8	95.1
=	0.0	0.0	14.1	95.5
=	0.0	0.0	14.4	95.9
=	0.0	0.0	14.8	96.5
=	0.0	0.0	15.3	96.9
=	0.0	0.0	15.7	97.2
=	0.0	0.0	16.1	97.4
=	0.0	0.0	16.5	97.8
=	0.0	0.0	16.9	98.2
=	0.0	0.0	17.3	98.5
=	0.0	0.0	17.7	98.7
=	0.0	0.0	18.1	98.8
=	0.0	0.0	18.5	99.0
=	0.0	0.0	18.9	99.2
=	0.0	0.0	19.3	99.4
=	0.0	0.0	19.7	99.6
=	0.0	0.0	20.1	99.7
=	0.0	0.0	20.4	99.8
=	0.0	0.0	20.8	99.8
=	0.0	0.0	21.2	99.9
=	0.0	0.0	21.6	99.9
=	0.0	0.0	22.0	100.0
=	0.0	0.0	22.4	100.0
=	0.0	0.0	22.8	100.0
=	0.0	0.0	23.2	100.0
=	0.0	0.0	23.6	100.0
=	0.0	0.0	24.0	100.0
=	0.0	0.0	24.3	100.0
=	0.0	0.0	24.6	99.9
=	0.0	0.0	25.0	99.9
=	0.0	0.0	25.5	99.8
=	0.0	0.0	25.9	99.8
=	0.0	0.0	26.2	99.7
=	0.0	0.0	26.5	99.7
=	0.0	0.0	26.9	99.6
=	0.0	0.0	27.3	99.5
=	0.0	0.0	27.6	99.4
=	0.0	0.0	27.9	99.4
=	0.0	0.0	28.2	99.3
=	0.0	0.0	28.5	99.3
=	0.0	0.0	28.9	99.2
=	0.0	0.0	29.3	99.1
=	0.0	0.0	29.7	99.1
=	0.0	0.0	30.1	99.0
=	0.0	0.0	30.5	98.8
=	0.0	0.0	30.9	98.7
=	0.0	0.0	31.4	98.6
=	0.0	0.0	31.8	98.5
=	0.0	0.0	32.2	98.4
=	0.0	0.0	32.6	98.3
=	0.0	0.0	33.0	98.2
=	0.0	0.0	33.4	98.0
=	0.0	0.0	33.8	97.8
=	0.0	0.0	34.2	97.7
=	0.0	0.0	34.5	97.7
=	0.0	0.0	34.8	97.5
=	0.0	0.0	35.2	97.4
=	0.0	0.0	35.6	97.2
=	0.0	0.0	36.0	97.1
=	0.0	0.0	36.4	96.9
=	0.0	0.0	36.8	96.8
=	0.0	0.0	37.2	96.6
=	0.0	0.0	37.6	96.5
=	0.0	0.0	38.1	96.4
=	0.0	0.0	38.5	96.3
=	0.0	0.0	38.9	96.2
=	0.0	0.0	39.3	96.0
=	0.0	0.0	39.6	95.8
=	0.0	0.0	39.9	95.6
=	0.0	0.0	40.1	95.6
=	0.0	0.0	40.3	95.5
=	0.0	0.0	40.7	95.3
=	0.0	0.0	41.1	95.2
=	0.0	0.0	41.5	95.1
=	0.0	0.0	41.7	95.0
=	0.0	0.0	42.1	94.8
=	0.0	0.0	42.4	94.7
=	0.0	0.0	42.7	94.5
=	0.0	0.0	43.0	94.4
=	0.0	0.0	43.3	94.4
=	0.0	0.0	43.6	94.2
=	0.0	0.0	44.0	94.1
=	0.0	0.0	44.3	94.0
=	0.0	0.0	44.7	93.9
=	0.0	0.0	45.1	93.7
=	0.0	0.0	45.5	93.5
=	0.0	0.0	45.9	93.3
=	0.0	0.0	46.2	93.2
=	0.0	0.0	46.6	93.1
=	0.0	0.0	47.0	92.9
=	0.0	0.0	47.3	92.8
=	0.0	0.0	47.6	92.7
=	0.0	0.0	48.0	92.5
=	0.0	0.0	48.4	92.3
=	0.0	0.0	48.8	92.3
=	0.0	0.0	49.2	92.1
=	0.0	0.0	49.6	91.9
=	0.0	0.0	50.1	91.7
=	0.0	0.0	50.5	91.6
=	0.0	0.0	50.9	91.4
=	0.0	0.0	51.3	91.3
=	0.0	0.0	51.7	91.2
=	0.0	0.0	52.1	91.0
=	0.0	0.0	52.5	90.9
=	0.0	0.0	52.9	90.8
=	0.0	0.0	53.4	90.7
=	0.0	0.0	53.8	90.6
=	0.0	0.0	54.2	90.4
=	0.0	0.0	54.6	90.2
=	0.0	0.0	55.0	90.0
=	0.0	0.0	55.3	89.9
=	0.0	0.0	55.5	89.9
=	0.0	0.0	55.8	89.8
=	0.0	0.0	56.1	89.6
=	0.0	0.0	56.4	89.4
=	0.0	0.0	56.8	89.3
=	0.0	0.0	57.2	89.1
=	0.0	0.0	57.6	89.0
=	0.0	0.0	58.1	88.8
=	0.0	0.0	58.5	88.7
=	0.0	0.0	58.9	88.5
=	0.0	0.0	59.3	88.3
=	0.0	0.0	59.7	88.2
=	0.0	0.0	60.1	88.1
=	0.0	0.0	60.6	87.9
=	0.0	0.0	61.0	87.8
=	0.0	0.0	61.4	87.7
=	0.0	0.0	61.7	87.5
=	0.0	0.0	62.0	87.4
=	0.0	0.0	62.3	87.4
=	0.0	0.0	62.6	87.3
=	0.0	0.0	62.9	87.2
=	0.0	0.0	63.2	87.0
=	0.0	0.0	63.4	87.0
=	0.0	0.0	63.8	86.8
=	0.0	0.0	64.0	86.7
=	0.0	0.0	64.3	86.6
=	0.0	0.0	64.7	86.4
=	0.0	0.0	65.0	86.3
=	0.0	0.0	65.4	86.2
=	0.0	0.0	65.9	86.0
=	0.0	0.0	66.3	85.9
=	0.0	0.0	66.6	85.8
=	0.0	0.0	66.9	85.6
=	0.0	0.0	67.3	85.5
=	0.0	0.0	67.7	85.3
=	0.0	0.0	68.0	85.2
=	0.0	0.0	68.2	85.1
=	0.0	0.0	68.6	85.0
=	0.0	0.0	69.0	84.9
=	0.0	0.0	69.3	84.8
=	0.0	0.0	69.6	84.7
=	0.0	0.0	69.9	84.6
=	0.0	0.0	70.2	84.5
=	0.0	0.0	70.5	84.4
=	0.0	0.0	70.9	84.2
=	0.0	0.0	71.2	84.1
=	0.0	0.0	71.5	83.9
=	0.0	0.0	71.7	83.8
=	0.0	0.0	72.2	83.7
=	0.0	0.0	72.6	83.5
=	0.0	0.0	73.0	83.4
=	0.0	0.0	73.4	83.3
=	0.0	0.0	73.8	83.2
=	0.0	0.0	74.1	83.1
=	0.0	0.0	74.4	83.0
=	0.0	0.0	74.6	83.0
=	0.0	0.0	74.9	82.9
=	0.0	0.0	75.2	82.8
=	0.0	0.0	75.4	82.6
=	0.0	0.0	75.8	82.5
=	0.0	0.0	76.1	82.4
=	0.0	0.0	76.4	82.3
=	0.0	0.0	76.7	82.3
=	0.0	0.0	77.0	82.2
=	0.0	0.0	77.3	82.1
=	0.0	0.0	77.5	81.9
=	0.0	0.0	77.9	81.8
=	0.0	0.0	78.3	81.6
=	0.0	0.0	78.7	81.4
=	0.0	0.0	79.1	81.2
=	0.0	0.0	79.5	81.1
=	0.0	0.0	79.9	81.0
=	0.0	0.0	80.4	80.9
=	0.0	0.0	80.8	80.7
=	0.0	0.0	81.0	80.6
=	0.0	0.0	81.4	80.5
=	0.0	0.0	81.8	80.4
=	0.0	0.0	82.2	80.2
=	0.0	0.0	82.6	80.1
=	0.0	0.0	83.0	80.0
=	0.0	0.0	83.4	79.8
=	0.0	0.0	83.9	79.7
=	0.0	0.0	84.3	79.6
=	0.0	0.0	84.7	79.4
=	0.0	0.0	85.0	79.3
=	0.0	0.0	85.3	79.1
=	0.0	0.0	85.7	79.0
=	0.0	0.0	86.2	78.9
=	0.0	0.0	86.6	78.8
=	0.0	0.0	87.0	78.6
=	0.0	0.0	87.4	78.4
=	0.0	0.0	87.8	78.2
=	0.0	0.0	88.1	78.1
=	0.0	0.0	88.4	78.1
=	0.0	0.0	88.8	78.0
=	0.0	0.0	89.1	77.9
=	0.0	0.0	89.3	77.7
=	0.0	0.0	89.7	77.6
=	0.0	0.0	90.1	77.5
=	0.0	0.0	90.5	77.4
=	0.0	0.0	90.9	77.2
=	0.0	0.0	91.4	77.0
=	0.0	0.0	91.8	76.8
=	0.0	0.0	92.2	76.7
=	0.0	0.0	92.6	76.6
=	0.0	0.0	93.0	76.5
=	0.0	0.0	93.4	76.3
=	0.0	0.0	93.8	76.2
=	0.0	0.0	94.2	76.1
=	0.0	0.0	94.4	76.0
=	0.0	0.0	94.8	75.9
=	0.0	0.0	95.2	75.7
=	0.0	0.0	95.5	75.6
=	0.0	0.0	95.9	75.5
=	0.0	0.0	96.2	75.4
=	0.0	0.0	96.5	75.3
=	0.0	0.0	96.7	75.2
=	0.0	0.0	97.0	75.1
=	0.0	0.0	97.3	75.0
=	0.0	0.0	97.5	74.9
=	0.0	0.0	97.8	74.8
=	0.0	0.0	98.1	74.7
=	0.0	0.0	98.3	74.6
=	0.0	0.0	98.7	74.6
=	0.0	0.0	98.9	74.5
=	0.0	0.0	99.4	74.3
=	0.0	0.0	99.8	74.2
=	0.0	0.0	100.2	74.2
=	0.0	0.0	100.6	74.1
=	0.0	0.0	101.0	74.0
=	0.0	0.0	101.4	73.8
=	0.0	0.0	101.8	73.7
=	0.0	0.0	102.2	73.6
=	0.0	0.0	102.6	73.3
=	0.0	0.0	102.9	73.2
=	0.0	0.0	103.1	73.2
=	0.0	0.0	103.5	73.1
=	0.0	0.0	103.9	72.8
=	0.0	0.0	104.3	72.7
=	0.0	0.0	104.5	72.6
=	0.0	0.0	104.8	72.6
=	0.0	0.0	105.1	72.5
=	0.0	0.0	105.5	72.4
=	0.0	0.0	105.9	72.4
=	0.0	0.0	106.3	72.3
=	0.0	0.0	106.7	72.1
=	0.0	0.0	107.1	72.0
=	0.0	0.0	107.4	72.0
=	0.0	0.0	107.8	71.8
=	0.0	0.0	108.2	71.6
=	0.0	0.0	108.6	71.5
=	0.0	0.0	109.0	71.4
=	0.0	0.0	109.4	71.2
=	0.0	0.0	109.8	71.1
=	0.0	0.0	110.2	70.9
=	0.0	0.0	110.6	70.8
=	0.0	0.0	111.0	70.7
=	0.0	0.0	111.4	70.5
=	0.0	0.0	111.8	70.5
=	0.0	0.0	112.1	70.4
=	0.0	0.0	112.5	70.3
=	0.0	0.0	112.7	70.2
=	0.0	0.0	113.0	70.0
=	0.0	0.0	113.4	69.9
=	0.0	0.0	113.8	69.8
=	0.0	0.0	114.3	69.7
=	0.0	0.0	114.7	69.6
=	0.0	0.0	115.1	69.4
=	0.0	0.0	115.5	69.3
=	0.0	0.0	115.9	69.2
=	0.0	0.0	116.3	69.0
=	0.0	0.0	116.7	68.9
=	0.0	0.0	117.2	68.7
=	0.0	0.0	117.6	68.7
=	0.0	0.0	118.0	68.6
=	0.0	0.0	118.4	68.5
=	0.0	0.0	118.8	68.4
=	0.0	0.0	119.2	68.2
=	0.0	0.0	119.6	68.1
=	0.0	0.0	119.8	68.1
=	0.0	0.0	120.0	68.0
=	0.0	0.0	120.4	68.0
=	0.0	0.0	120.8	67.9
=	0.0	0.0	121.2	67.7
=	0.0	0.0	121.6	67.6
=	0.0	0.0	122.0	67.4
=	0.0	0.0	122.5	67.2
=	0.0	0.0	122.9	67.1
=	0.0	0.0	123.3	67.0
=	0.0	0.0	123.7	66.9
=	0.0	0.0	124.1	66.8
=	0.0	0.0	124.5	66.5
=	0.0	0.0	124.9	66.5
=	0.0	0.0	125.4	66.3
=	0.0	0.0	125.7	66.2
=	0.0	0.0	126.0	66.2
=	0.0	0.0	126.2	66.1
=	0.0	0.0	126.6	66.0
=	0.0	0.0	126.9	65.9
=	0.0	0.0	127.2	65.8
=	0.0	0.0	127.6	65.7
=	0.0	0.0	127.9	65.6
=	0.0	0.0	128.1	65.6
=	0.0	0.0	128.4	65.5
=	0.0	0.0	128.7	65.4
=	0.0	0.0	128.9	65.3
=	0.0	0.0	129.2	65.3
=	0.0	0.0	129.4	65.2
=	0.0	0.0	129.7	65.2
=	0.0	0.0	130.0	65.1
=	0.0	0.0	130.3	64.9
=	0.0	0.0	130.6	64.8
=	0.0	0.0	130.8	64.7
=	0.0	0.0	131.1	64.6
=	0.0	0.0	131.4	64.5
=	0.0	0.0	131.7	64.5
=	0.0	0.0	131.9	64.4
=	0.0	0.0	132.3	64.3
=	0.0	0.0	132.6	64.2
=	0.0	0.0	133.0	64.1
=	0.0	0.0	133.4	64.1
=	0.0	0.0	133.8	64.0
=	0.0	0.0	134.2	63.9
=	0.0	0.0	134.6	63.7
=	0.0	0.0	135.0	63.6
=	0.0	0.0	135.4	63.5
=	0.0	0.0	135.8	63.3
=	0.0	0.0	136.3	63.2
=	0.0	0.0	136.5	63.1
=	0.0	0.0	136.8	63.0
=	0.0	0.0	137.2	62.9
=	0.0	0.0	137.6	62.8
=	0.0	0.0	137.9	62.7
=	0.0	0.0	138.3	62.6
=	0.0	0.0	138.7	62.5
=	0.0	0.0	139.1	62.4
=	0.0	0.0	139.5	62.3
=	0.0	0.0	139.9	62.1
=	0.0	0.0	140.3	62.0
=	0.0	0.0	140.7	61.9
=	0.0	0.0	141.1	61.8
=	0.0	0.0	141.6	61.6
=	0.0	0.0	141.9	61.6
=	0.0	0.0	142.1	61.5
=	0.0	0.0	142.4	61.5
=	0.0	0.0	142.8	61.4
=	0.0	0.0	143.2	61.3
=	0.0	0.0	143.4	61.3
=	0.0	0.0	143.7	61.1
=	0.0	0.0	144.0	61.0
=	0.0	0.0	144.3	60.9
=	0.0	0.0	144.6	60.8
=	0.0	0.0	145.0	60.8
=	0.0	0.0	145.4	60.7
=	0.0	0.0	145.9	60.6
=	0.0	0.0	146.2	60.5
=	0.0	0.0	146.5	60.4
=	0.0	0.0	146.7	60.3
=	0.0	0.0	147.0	60.2
=	0.0	0.0	147.3	60.1
=	0.0	0.0	147.7	60.0
=	0.0	0.0	148.1	59.9
=	0.0	0.0	148.5	59.7
=	0.0	0.0	149.0	59.6
