:MSR 	5	 # No. of measurement in file
:SYS BDS 0   # Beam Data Scanner System
#
# RFA300 ASCII Measurement Dump ( BDS format )
#
# Measurement number 	1
#
%VNR 1.0
%MOD 	RAT
%TYP 	SCN
%SCN 	PRO
%FLD 	ION
%DAT 	10-14-2011
%TIM 	12:00:00
%FSZ 	400	150
%BMT 	PHO	   10.0
%SSD 	1000
%BUP 	0
%BRD 	1000
%FSH 	1
%ASC 	0
%WEG 	60
%GPO 	0
%CPO 	0
%MEA 	6
%PRD 	24,0
%PTS 	829
%STS 	    0.0	  -254.6	   24.0 # Start Scan values in mm ( X , Y , Z )
%EDS 	    0.0	   254.4	   24.0 # End Scan values in mm ( X , Y , Z )
#
#	  X      Y      Z     Dose
#
=	0.0	-254.6	24.0	7.6
=	0.0	-254.0	24.0	7.6
=	0.0	-253.2	24.0	7.6
=	0.0	-252.5	24.0	7.7
=	0.0	-252.0	24.0	7.7
=	0.0	-251.3	24.0	7.7
=	0.0	-250.5	24.0	7.8
=	0.0	-250.0	24.0	7.8
=	0.0	-249.5	24.0	7.8
=	0.0	-248.7	24.0	7.8
=	0.0	-248.0	24.0	7.9
=	0.0	-247.4	24.0	7.9
=	0.0	-246.7	24.0	8.0
=	0.0	-246.1	24.0	8.0
=	0.0	-245.4	24.0	8.0
=	0.0	-244.8	24.0	8.0
=	0.0	-244.2	24.0	8.1
=	0.0	-243.6	24.0	8.1
=	0.0	-243.1	24.0	8.1
=	0.0	-242.5	24.0	8.1
=	0.0	-242.0	24.0	8.2
=	0.0	-241.5	24.0	8.2
=	0.0	-240.8	24.0	8.2
=	0.0	-240.2	24.0	8.2
=	0.0	-239.6	24.0	8.3
=	0.0	-239.0	24.0	8.3
=	0.0	-238.4	24.0	8.3
=	0.0	-237.8	24.0	8.3
=	0.0	-237.1	24.0	8.3
=	0.0	-236.4	24.0	8.4
=	0.0	-235.8	24.0	8.4
=	0.0	-235.1	24.0	8.5
=	0.0	-234.6	24.0	8.5
=	0.0	-234.1	24.0	8.6
=	0.0	-233.4	24.0	8.6
=	0.0	-232.7	24.0	8.7
=	0.0	-232.1	24.0	8.7
=	0.0	-231.3	24.0	8.8
=	0.0	-230.7	24.0	8.9
=	0.0	-230.1	24.0	9.0
=	0.0	-229.5	24.0	9.0
=	0.0	-228.9	24.0	9.1
=	0.0	-228.3	24.0	9.2
=	0.0	-227.8	24.0	9.2
=	0.0	-227.1	24.0	9.3
=	0.0	-226.4	24.0	9.4
=	0.0	-225.7	24.0	9.6
=	0.0	-224.9	24.0	9.7
=	0.0	-224.3	24.0	9.8
=	0.0	-223.7	24.0	9.8
=	0.0	-223.1	24.0	9.9
=	0.0	-222.4	24.0	10.0
=	0.0	-221.9	24.0	10.1
=	0.0	-221.4	24.0	10.2
=	0.0	-220.6	24.0	10.3
=	0.0	-220.0	24.0	10.5
=	0.0	-219.4	24.0	10.6
=	0.0	-218.9	24.0	10.8
=	0.0	-218.3	24.0	10.9
=	0.0	-217.7	24.0	11.0
=	0.0	-216.9	24.0	11.3
=	0.0	-216.2	24.0	11.6
=	0.0	-215.6	24.0	11.9
=	0.0	-215.0	24.0	12.1
=	0.0	-214.4	24.0	12.5
=	0.0	-213.7	24.0	13.0
=	0.0	-213.1	24.0	13.5
=	0.0	-212.5	24.0	14.1
=	0.0	-211.9	24.0	14.8
=	0.0	-211.2	24.0	16.0
=	0.0	-210.5	24.0	17.2
=	0.0	-210.0	24.0	18.5
=	0.0	-209.5	24.0	20.1
=	0.0	-208.9	24.0	22.3
=	0.0	-208.2	24.0	25.1
=	0.0	-207.6	24.0	28.7
=	0.0	-207.0	24.0	32.3
=	0.0	-206.3	24.0	37.1
=	0.0	-205.7	24.0	41.3
=	0.0	-205.0	24.0	47.2
=	0.0	-204.2	24.0	53.1
=	0.0	-203.6	24.0	58.6
=	0.0	-202.9	24.0	64.2
=	0.0	-202.3	24.0	68.7
=	0.0	-201.7	24.0	72.7
=	0.0	-201.0	24.0	77.3
=	0.0	-200.4	24.0	80.2
=	0.0	-199.9	24.0	82.5
=	0.0	-199.3	24.0	84.8
=	0.0	-198.8	24.0	86.2
=	0.0	-198.1	24.0	87.9
=	0.0	-197.4	24.0	89.1
=	0.0	-196.7	24.0	89.9
=	0.0	-196.1	24.0	90.6
=	0.0	-195.4	24.0	91.2
=	0.0	-194.7	24.0	91.8
=	0.0	-194.2	24.0	92.1
=	0.0	-193.5	24.0	92.5
=	0.0	-192.9	24.0	92.8
=	0.0	-192.4	24.0	93.1
=	0.0	-191.8	24.0	93.2
=	0.0	-191.2	24.0	93.5
=	0.0	-190.6	24.0	93.7
=	0.0	-190.0	24.0	93.9
=	0.0	-189.3	24.0	94.1
=	0.0	-188.8	24.0	94.2
=	0.0	-188.2	24.0	94.3
=	0.0	-187.6	24.0	94.4
=	0.0	-186.9	24.0	94.6
=	0.0	-186.2	24.0	94.7
=	0.0	-185.7	24.0	94.8
=	0.0	-185.0	24.0	94.9
=	0.0	-184.4	24.0	95.0
=	0.0	-183.8	24.0	95.1
=	0.0	-183.1	24.0	95.1
=	0.0	-182.5	24.0	95.2
=	0.0	-181.9	24.0	95.3
=	0.0	-181.2	24.0	95.3
=	0.0	-180.6	24.0	95.5
=	0.0	-180.0	24.0	95.5
=	0.0	-179.4	24.0	95.6
=	0.0	-178.9	24.0	95.7
=	0.0	-178.2	24.0	95.7
=	0.0	-177.6	24.0	95.8
=	0.0	-177.0	24.0	95.9
=	0.0	-176.4	24.0	96.0
=	0.0	-175.8	24.0	96.0
=	0.0	-175.1	24.0	96.1
=	0.0	-174.5	24.0	96.2
=	0.0	-173.9	24.0	96.2
=	0.0	-173.3	24.0	96.3
=	0.0	-172.6	24.0	96.3
=	0.0	-172.0	24.0	96.4
=	0.0	-171.3	24.0	96.4
=	0.0	-170.7	24.0	96.5
=	0.0	-170.1	24.0	96.5
=	0.0	-169.6	24.0	96.6
=	0.0	-168.9	24.0	96.6
=	0.0	-168.3	24.0	96.7
=	0.0	-167.6	24.0	96.7
=	0.0	-167.0	24.0	96.7
=	0.0	-166.4	24.0	96.8
=	0.0	-165.6	24.0	96.8
=	0.0	-165.0	24.0	96.8
=	0.0	-164.5	24.0	96.9
=	0.0	-163.9	24.0	96.9
=	0.0	-163.3	24.0	96.9
=	0.0	-162.8	24.0	96.9
=	0.0	-162.3	24.0	96.9
=	0.0	-161.8	24.0	97.0
=	0.0	-161.1	24.0	97.0
=	0.0	-160.4	24.0	97.0
=	0.0	-159.9	24.0	97.0
=	0.0	-159.2	24.0	97.1
=	0.0	-158.7	24.0	97.2
=	0.0	-158.1	24.0	97.2
=	0.0	-157.5	24.0	97.3
=	0.0	-156.7	24.0	97.3
=	0.0	-156.1	24.0	97.4
=	0.0	-155.4	24.0	97.4
=	0.0	-154.9	24.0	97.4
=	0.0	-154.3	24.0	97.5
=	0.0	-153.7	24.0	97.5
=	0.0	-153.1	24.0	97.5
=	0.0	-152.5	24.0	97.5
=	0.0	-151.8	24.0	97.6
=	0.0	-151.3	24.0	97.6
=	0.0	-150.7	24.0	97.6
=	0.0	-150.0	24.0	97.7
=	0.0	-149.3	24.0	97.7
=	0.0	-148.8	24.0	97.8
=	0.0	-148.1	24.0	97.8
=	0.0	-147.5	24.0	97.9
=	0.0	-146.7	24.0	98.0
=	0.0	-146.1	24.0	98.0
=	0.0	-145.4	24.0	98.0
=	0.0	-144.8	24.0	98.1
=	0.0	-144.2	24.0	98.1
=	0.0	-143.7	24.0	98.1
=	0.0	-143.1	24.0	98.1
=	0.0	-142.6	24.0	98.2
=	0.0	-141.9	24.0	98.2
=	0.0	-141.3	24.0	98.2
=	0.0	-140.7	24.0	98.3
=	0.0	-140.2	24.0	98.3
=	0.0	-139.6	24.0	98.3
=	0.0	-139.1	24.0	98.4
=	0.0	-138.3	24.0	98.4
=	0.0	-137.8	24.0	98.4
=	0.0	-137.2	24.0	98.5
=	0.0	-136.6	24.0	98.6
=	0.0	-135.8	24.0	98.6
=	0.0	-135.2	24.0	98.6
=	0.0	-134.6	24.0	98.7
=	0.0	-134.0	24.0	98.7
=	0.0	-133.4	24.0	98.8
=	0.0	-132.8	24.0	98.8
=	0.0	-132.3	24.0	98.8
=	0.0	-131.7	24.0	98.8
=	0.0	-131.2	24.0	98.9
=	0.0	-130.7	24.0	98.9
=	0.0	-130.1	24.0	99.0
=	0.0	-129.5	24.0	99.0
=	0.0	-128.7	24.0	99.1
=	0.0	-128.1	24.0	99.1
=	0.0	-127.3	24.0	99.2
=	0.0	-126.7	24.0	99.3
=	0.0	-126.0	24.0	99.3
=	0.0	-125.4	24.0	99.3
=	0.0	-124.8	24.0	99.3
=	0.0	-124.1	24.0	99.4
=	0.0	-123.6	24.0	99.5
=	0.0	-123.0	24.0	99.5
=	0.0	-122.4	24.0	99.5
=	0.0	-121.8	24.0	99.6
=	0.0	-121.2	24.0	99.6
=	0.0	-120.4	24.0	99.6
=	0.0	-119.9	24.0	99.6
=	0.0	-119.2	24.0	99.6
=	0.0	-118.5	24.0	99.7
=	0.0	-117.9	24.0	99.7
=	0.0	-117.3	24.0	99.8
=	0.0	-116.6	24.0	99.9
=	0.0	-115.9	24.0	99.9
=	0.0	-115.3	24.0	99.9
=	0.0	-114.7	24.0	99.9
=	0.0	-114.2	24.0	99.9
=	0.0	-113.6	24.0	100.0
=	0.0	-113.0	24.0	100.0
=	0.0	-112.4	24.0	100.0
=	0.0	-111.7	24.0	100.0
=	0.0	-111.0	24.0	100.0
=	0.0	-110.4	24.0	100.1
=	0.0	-109.9	24.0	100.1
=	0.0	-109.4	24.0	100.1
=	0.0	-108.7	24.0	100.2
=	0.0	-107.9	24.0	100.2
=	0.0	-107.3	24.0	100.3
=	0.0	-106.7	24.0	100.3
=	0.0	-106.1	24.0	100.3
=	0.0	-105.6	24.0	100.3
=	0.0	-105.0	24.0	100.3
=	0.0	-104.3	24.0	100.3
=	0.0	-103.7	24.0	100.4
=	0.0	-103.2	24.0	100.4
=	0.0	-102.5	24.0	100.4
=	0.0	-102.0	24.0	100.4
=	0.0	-101.3	24.0	100.5
=	0.0	-100.6	24.0	100.6
=	0.0	-100.0	24.0	100.6
=	0.0	-99.4	24.0	100.6
=	0.0	-98.8	24.0	100.6
=	0.0	-98.2	24.0	100.7
=	0.0	-97.6	24.0	100.7
=	0.0	-97.0	24.0	100.8
=	0.0	-96.4	24.0	100.8
=	0.0	-95.9	24.0	100.8
=	0.0	-95.3	24.0	100.8
=	0.0	-94.7	24.0	100.8
=	0.0	-94.1	24.0	100.8
=	0.0	-93.5	24.0	100.8
=	0.0	-92.7	24.0	100.8
=	0.0	-91.9	24.0	100.8
=	0.0	-91.3	24.0	100.8
=	0.0	-90.8	24.0	100.9
=	0.0	-90.2	24.0	100.9
=	0.0	-89.6	24.0	100.9
=	0.0	-89.1	24.0	100.9
=	0.0	-88.4	24.0	101.0
=	0.0	-87.8	24.0	101.0
=	0.0	-87.0	24.0	101.0
=	0.0	-86.4	24.0	101.0
=	0.0	-85.8	24.0	101.0
=	0.0	-85.3	24.0	101.0
=	0.0	-84.8	24.0	101.1
=	0.0	-84.1	24.0	101.1
=	0.0	-83.5	24.0	101.2
=	0.0	-82.8	24.0	101.3
=	0.0	-82.3	24.0	101.3
=	0.0	-81.6	24.0	101.3
=	0.0	-81.0	24.0	101.3
=	0.0	-80.3	24.0	101.3
=	0.0	-79.6	24.0	101.3
=	0.0	-79.0	24.0	101.4
=	0.0	-78.3	24.0	101.4
=	0.0	-77.5	24.0	101.4
=	0.0	-76.9	24.0	101.4
=	0.0	-76.4	24.0	101.4
=	0.0	-75.8	24.0	101.4
=	0.0	-75.0	24.0	101.4
=	0.0	-74.4	24.0	101.4
=	0.0	-73.8	24.0	101.4
=	0.0	-73.1	24.0	101.5
=	0.0	-72.5	24.0	101.5
=	0.0	-72.0	24.0	101.5
=	0.0	-71.5	24.0	101.5
=	0.0	-70.9	24.0	101.5
=	0.0	-70.2	24.0	101.5
=	0.0	-69.5	24.0	101.5
=	0.0	-69.0	24.0	101.5
=	0.0	-68.4	24.0	101.5
=	0.0	-67.8	24.0	101.5
=	0.0	-67.1	24.0	101.5
=	0.0	-66.3	24.0	101.5
=	0.0	-65.7	24.0	101.5
=	0.0	-65.2	24.0	101.5
=	0.0	-64.5	24.0	101.5
=	0.0	-63.9	24.0	101.5
=	0.0	-63.4	24.0	101.5
=	0.0	-62.9	24.0	101.5
=	0.0	-62.2	24.0	101.5
=	0.0	-61.7	24.0	101.5
=	0.0	-61.1	24.0	101.5
=	0.0	-60.4	24.0	101.5
=	0.0	-60.0	24.0	101.5
=	0.0	-59.4	24.0	101.5
=	0.0	-58.7	24.0	101.5
=	0.0	-58.1	24.0	101.5
=	0.0	-57.5	24.0	101.5
=	0.0	-56.9	24.0	101.5
=	0.0	-56.3	24.0	101.5
=	0.0	-55.6	24.0	101.5
=	0.0	-55.0	24.0	101.5
=	0.0	-54.4	24.0	101.5
=	0.0	-53.8	24.0	101.6
=	0.0	-53.1	24.0	101.6
=	0.0	-52.6	24.0	101.6
=	0.0	-51.9	24.0	101.6
=	0.0	-51.2	24.0	101.6
=	0.0	-50.5	24.0	101.6
=	0.0	-49.9	24.0	101.5
=	0.0	-49.4	24.0	101.5
=	0.0	-48.9	24.0	101.5
=	0.0	-48.3	24.0	101.5
=	0.0	-47.6	24.0	101.4
=	0.0	-46.9	24.0	101.4
=	0.0	-46.3	24.0	101.4
=	0.0	-45.6	24.0	101.5
=	0.0	-44.9	24.0	101.4
=	0.0	-44.3	24.0	101.4
=	0.0	-43.7	24.0	101.4
=	0.0	-43.0	24.0	101.4
=	0.0	-42.3	24.0	101.4
=	0.0	-41.7	24.0	101.3
=	0.0	-41.2	24.0	101.3
=	0.0	-40.7	24.0	101.3
=	0.0	-40.2	24.0	101.3
=	0.0	-39.6	24.0	101.3
=	0.0	-39.1	24.0	101.2
=	0.0	-38.5	24.0	101.2
=	0.0	-37.7	24.0	101.2
=	0.0	-37.2	24.0	101.1
=	0.0	-36.7	24.0	101.1
=	0.0	-36.1	24.0	101.1
=	0.0	-35.5	24.0	101.1
=	0.0	-35.0	24.0	101.0
=	0.0	-34.5	24.0	101.0
=	0.0	-33.9	24.0	101.0
=	0.0	-33.2	24.0	101.0
=	0.0	-32.7	24.0	101.0
=	0.0	-32.2	24.0	101.0
=	0.0	-31.6	24.0	101.0
=	0.0	-31.0	24.0	101.0
=	0.0	-30.4	24.0	100.9
=	0.0	-29.8	24.0	100.9
=	0.0	-29.2	24.0	100.9
=	0.0	-28.7	24.0	100.9
=	0.0	-28.1	24.0	100.9
=	0.0	-27.4	24.0	100.9
=	0.0	-26.6	24.0	100.8
=	0.0	-25.9	24.0	100.8
=	0.0	-25.4	24.0	100.8
=	0.0	-24.8	24.0	100.8
=	0.0	-24.3	24.0	100.8
=	0.0	-23.6	24.0	100.7
=	0.0	-23.1	24.0	100.7
=	0.0	-22.5	24.0	100.7
=	0.0	-22.0	24.0	100.7
=	0.0	-21.4	24.0	100.7
=	0.0	-20.8	24.0	100.7
=	0.0	-20.1	24.0	100.7
=	0.0	-19.5	24.0	100.7
=	0.0	-19.0	24.0	100.7
=	0.0	-18.4	24.0	100.6
=	0.0	-17.9	24.0	100.6
=	0.0	-17.3	24.0	100.5
=	0.0	-16.7	24.0	100.5
=	0.0	-16.1	24.0	100.5
=	0.0	-15.5	24.0	100.4
=	0.0	-14.9	24.0	100.4
=	0.0	-14.2	24.0	100.4
=	0.0	-13.6	24.0	100.3
=	0.0	-12.9	24.0	100.3
=	0.0	-12.3	24.0	100.3
=	0.0	-11.8	24.0	100.2
=	0.0	-11.3	24.0	100.2
=	0.0	-10.7	24.0	100.2
=	0.0	-10.1	24.0	100.2
=	0.0	-9.6	24.0	100.2
=	0.0	-9.1	24.0	100.2
=	0.0	-8.4	24.0	100.1
=	0.0	-7.8	24.0	100.1
=	0.0	-7.3	24.0	100.1
=	0.0	-6.8	24.0	100.1
=	0.0	-6.1	24.0	100.2
=	0.0	-5.7	24.0	100.2
=	0.0	-5.0	24.0	100.1
=	0.0	-4.3	24.0	100.1
=	0.0	-3.7	24.0	100.1
=	0.0	-3.0	24.0	100.1
=	0.0	-2.4	24.0	100.1
=	0.0	-1.6	24.0	100.0
=	0.0	-1.0	24.0	100.0
=	0.0	-0.5	24.0	100.0
=	0.0	0.0	24.0	100.0
=	0.0	0.3	24.0	100.0
=	0.0	0.9	24.0	100.0
=	0.0	1.5	24.0	100.0
=	0.0	2.2	24.0	100.1
=	0.0	2.9	24.0	100.1
=	0.0	3.6	24.0	100.1
=	0.0	4.1	24.0	100.1
=	0.0	4.8	24.0	100.1
=	0.0	5.5	24.0	100.2
=	0.0	6.0	24.0	100.2
=	0.0	6.6	24.0	100.1
=	0.0	7.1	24.0	100.1
=	0.0	7.7	24.0	100.1
=	0.0	8.2	24.0	100.1
=	0.0	8.9	24.0	100.2
=	0.0	9.4	24.0	100.2
=	0.0	9.9	24.0	100.2
=	0.0	10.5	24.0	100.2
=	0.0	11.1	24.0	100.2
=	0.0	11.7	24.0	100.2
=	0.0	12.2	24.0	100.3
=	0.0	12.8	24.0	100.3
=	0.0	13.4	24.0	100.3
=	0.0	14.0	24.0	100.3
=	0.0	14.8	24.0	100.4
=	0.0	15.4	24.0	100.4
=	0.0	15.9	24.0	100.5
=	0.0	16.5	24.0	100.5
=	0.0	17.1	24.0	100.5
=	0.0	17.8	24.0	100.6
=	0.0	18.3	24.0	100.6
=	0.0	18.8	24.0	100.6
=	0.0	19.3	24.0	100.7
=	0.0	19.9	24.0	100.7
=	0.0	20.7	24.0	100.7
=	0.0	21.3	24.0	100.7
=	0.0	21.9	24.0	100.7
=	0.0	22.4	24.0	100.7
=	0.0	23.0	24.0	100.7
=	0.0	23.5	24.0	100.7
=	0.0	24.1	24.0	100.8
=	0.0	24.7	24.0	100.8
=	0.0	25.2	24.0	100.8
=	0.0	25.8	24.0	100.8
=	0.0	26.4	24.0	100.8
=	0.0	27.2	24.0	100.9
=	0.0	28.0	24.0	100.9
=	0.0	28.6	24.0	100.9
=	0.0	29.1	24.0	100.9
=	0.0	29.7	24.0	100.9
=	0.0	30.2	24.0	100.9
=	0.0	30.9	24.0	101.0
=	0.0	31.4	24.0	101.0
=	0.0	32.0	24.0	101.0
=	0.0	32.6	24.0	101.0
=	0.0	33.1	24.0	101.0
=	0.0	33.7	24.0	101.0
=	0.0	34.3	24.0	101.0
=	0.0	34.9	24.0	101.0
=	0.0	35.4	24.0	101.0
=	0.0	36.0	24.0	101.1
=	0.0	36.6	24.0	101.1
=	0.0	37.1	24.0	101.1
=	0.0	37.6	24.0	101.2
=	0.0	38.3	24.0	101.2
=	0.0	38.9	24.0	101.2
=	0.0	39.5	24.0	101.3
=	0.0	40.0	24.0	101.3
=	0.0	40.6	24.0	101.3
=	0.0	41.0	24.0	101.3
=	0.0	41.6	24.0	101.3
=	0.0	42.2	24.0	101.4
=	0.0	42.8	24.0	101.4
=	0.0	43.5	24.0	101.4
=	0.0	44.1	24.0	101.4
=	0.0	44.8	24.0	101.4
=	0.0	45.5	24.0	101.5
=	0.0	46.2	24.0	101.4
=	0.0	46.7	24.0	101.4
=	0.0	47.4	24.0	101.4
=	0.0	48.1	24.0	101.5
=	0.0	48.8	24.0	101.5
=	0.0	49.3	24.0	101.5
=	0.0	49.8	24.0	101.5
=	0.0	50.3	24.0	101.6
=	0.0	51.0	24.0	101.6
=	0.0	51.7	24.0	101.6
=	0.0	52.4	24.0	101.6
=	0.0	53.0	24.0	101.6
=	0.0	53.6	24.0	101.6
=	0.0	54.3	24.0	101.5
=	0.0	54.9	24.0	101.5
=	0.0	55.4	24.0	101.5
=	0.0	56.1	24.0	101.5
=	0.0	56.8	24.0	101.5
=	0.0	57.3	24.0	101.5
=	0.0	57.9	24.0	101.5
=	0.0	58.6	24.0	101.5
=	0.0	59.3	24.0	101.5
=	0.0	59.8	24.0	101.5
=	0.0	60.3	24.0	101.5
=	0.0	60.9	24.0	101.5
=	0.0	61.6	24.0	101.5
=	0.0	62.1	24.0	101.5
=	0.0	62.7	24.0	101.5
=	0.0	63.3	24.0	101.5
=	0.0	63.8	24.0	101.5
=	0.0	64.3	24.0	101.5
=	0.0	65.0	24.0	101.5
=	0.0	65.6	24.0	101.5
=	0.0	66.2	24.0	101.5
=	0.0	66.9	24.0	101.5
=	0.0	67.6	24.0	101.5
=	0.0	68.3	24.0	101.5
=	0.0	68.8	24.0	101.5
=	0.0	69.4	24.0	101.5
=	0.0	70.0	24.0	101.5
=	0.0	70.7	24.0	101.5
=	0.0	71.4	24.0	101.5
=	0.0	71.9	24.0	101.5
=	0.0	72.4	24.0	101.5
=	0.0	73.0	24.0	101.5
=	0.0	73.6	24.0	101.4
=	0.0	74.2	24.0	101.4
=	0.0	74.9	24.0	101.4
=	0.0	75.6	24.0	101.4
=	0.0	76.2	24.0	101.4
=	0.0	76.7	24.0	101.4
=	0.0	77.3	24.0	101.4
=	0.0	78.1	24.0	101.4
=	0.0	78.8	24.0	101.4
=	0.0	79.4	24.0	101.3
=	0.0	80.1	24.0	101.3
=	0.0	80.9	24.0	101.3
=	0.0	81.4	24.0	101.3
=	0.0	82.2	24.0	101.3
=	0.0	82.7	24.0	101.3
=	0.0	83.4	24.0	101.2
=	0.0	84.0	24.0	101.1
=	0.0	84.6	24.0	101.1
=	0.0	85.2	24.0	101.0
=	0.0	85.7	24.0	101.0
=	0.0	86.2	24.0	101.0
=	0.0	86.8	24.0	101.0
=	0.0	87.6	24.0	101.0
=	0.0	88.3	24.0	101.0
=	0.0	88.9	24.0	100.9
=	0.0	89.5	24.0	100.9
=	0.0	90.1	24.0	100.9
=	0.0	90.7	24.0	100.9
=	0.0	91.2	24.0	100.8
=	0.0	91.8	24.0	100.8
=	0.0	92.5	24.0	100.8
=	0.0	93.3	24.0	100.8
=	0.0	93.9	24.0	100.8
=	0.0	94.5	24.0	100.8
=	0.0	95.1	24.0	100.8
=	0.0	95.7	24.0	100.8
=	0.0	96.3	24.0	100.8
=	0.0	96.9	24.0	100.8
=	0.0	97.4	24.0	100.7
=	0.0	98.0	24.0	100.7
=	0.0	98.6	24.0	100.6
=	0.0	99.3	24.0	100.6
=	0.0	99.9	24.0	100.6
=	0.0	100.5	24.0	100.6
=	0.0	101.1	24.0	100.6
=	0.0	101.8	24.0	100.4
=	0.0	102.4	24.0	100.4
=	0.0	103.0	24.0	100.4
=	0.0	103.6	24.0	100.4
=	0.0	104.1	24.0	100.4
=	0.0	104.9	24.0	100.3
=	0.0	105.5	24.0	100.3
=	0.0	106.0	24.0	100.3
=	0.0	106.6	24.0	100.3
=	0.0	107.1	24.0	100.3
=	0.0	107.7	24.0	100.2
=	0.0	108.5	24.0	100.2
=	0.0	109.2	24.0	100.1
=	0.0	109.8	24.0	100.1
=	0.0	110.3	24.0	100.1
=	0.0	110.8	24.0	100.0
=	0.0	111.5	24.0	100.0
=	0.0	112.2	24.0	100.0
=	0.0	112.8	24.0	100.0
=	0.0	113.5	24.0	100.0
=	0.0	114.0	24.0	99.9
=	0.0	114.6	24.0	99.9
=	0.0	115.2	24.0	99.9
=	0.0	115.7	24.0	99.9
=	0.0	116.4	24.0	99.9
=	0.0	117.1	24.0	99.8
=	0.0	117.8	24.0	99.7
=	0.0	118.4	24.0	99.7
=	0.0	119.0	24.0	99.6
=	0.0	119.7	24.0	99.6
=	0.0	120.3	24.0	99.6
=	0.0	121.0	24.0	99.6
=	0.0	121.6	24.0	99.6
=	0.0	122.2	24.0	99.5
=	0.0	122.8	24.0	99.5
=	0.0	123.4	24.0	99.5
=	0.0	124.0	24.0	99.4
=	0.0	124.6	24.0	99.4
=	0.0	125.2	24.0	99.3
=	0.0	125.8	24.0	99.3
=	0.0	126.5	24.0	99.3
=	0.0	127.1	24.0	99.2
=	0.0	127.9	24.0	99.2
=	0.0	128.6	24.0	99.1
=	0.0	129.3	24.0	99.0
=	0.0	130.0	24.0	99.0
=	0.0	130.6	24.0	98.9
=	0.0	131.1	24.0	98.9
=	0.0	131.6	24.0	98.9
=	0.0	132.2	24.0	98.8
=	0.0	132.6	24.0	98.8
=	0.0	133.2	24.0	98.8
=	0.0	133.8	24.0	98.7
=	0.0	134.5	24.0	98.7
=	0.0	135.1	24.0	98.7
=	0.0	135.6	24.0	98.6
=	0.0	136.4	24.0	98.6
=	0.0	137.1	24.0	98.5
=	0.0	137.6	24.0	98.5
=	0.0	138.2	24.0	98.4
=	0.0	138.9	24.0	98.4
=	0.0	139.5	24.0	98.3
=	0.0	140.1	24.0	98.3
=	0.0	140.6	24.0	98.3
=	0.0	141.1	24.0	98.2
=	0.0	141.7	24.0	98.2
=	0.0	142.4	24.0	98.2
=	0.0	143.0	24.0	98.1
=	0.0	143.5	24.0	98.1
=	0.0	144.1	24.0	98.1
=	0.0	144.7	24.0	98.1
=	0.0	145.2	24.0	98.1
=	0.0	145.9	24.0	98.0
=	0.0	146.5	24.0	98.0
=	0.0	147.3	24.0	97.9
=	0.0	147.9	24.0	97.8
=	0.0	148.6	24.0	97.8
=	0.0	149.2	24.0	97.7
=	0.0	149.8	24.0	97.7
=	0.0	150.5	24.0	97.7
=	0.0	151.1	24.0	97.6
=	0.0	151.7	24.0	97.6
=	0.0	152.3	24.0	97.5
=	0.0	153.0	24.0	97.5
=	0.0	153.6	24.0	97.5
=	0.0	154.2	24.0	97.5
=	0.0	154.7	24.0	97.4
=	0.0	155.3	24.0	97.4
=	0.0	155.9	24.0	97.4
=	0.0	156.5	24.0	97.3
=	0.0	157.3	24.0	97.3
=	0.0	157.9	24.0	97.2
=	0.0	158.5	24.0	97.2
=	0.0	159.1	24.0	97.1
=	0.0	159.7	24.0	97.1
=	0.0	160.3	24.0	97.0
=	0.0	161.0	24.0	97.0
=	0.0	161.7	24.0	97.0
=	0.0	162.2	24.0	96.9
=	0.0	162.7	24.0	96.9
=	0.0	163.2	24.0	96.9
=	0.0	163.7	24.0	96.9
=	0.0	164.4	24.0	96.9
=	0.0	164.9	24.0	96.8
=	0.0	165.4	24.0	96.8
=	0.0	166.2	24.0	96.8
=	0.0	166.9	24.0	96.7
=	0.0	167.5	24.0	96.7
=	0.0	168.1	24.0	96.7
=	0.0	168.8	24.0	96.6
=	0.0	169.4	24.0	96.6
=	0.0	170.0	24.0	96.5
=	0.0	170.6	24.0	96.5
=	0.0	171.2	24.0	96.4
=	0.0	171.8	24.0	96.4
=	0.0	172.5	24.0	96.3
=	0.0	173.1	24.0	96.3
=	0.0	173.8	24.0	96.3
=	0.0	174.3	24.0	96.2
=	0.0	174.9	24.0	96.1
=	0.0	175.6	24.0	96.1
=	0.0	176.2	24.0	96.0
=	0.0	176.9	24.0	95.9
=	0.0	177.5	24.0	95.8
=	0.0	178.0	24.0	95.8
=	0.0	178.7	24.0	95.7
=	0.0	179.3	24.0	95.6
=	0.0	179.8	24.0	95.6
=	0.0	180.5	24.0	95.5
=	0.0	181.1	24.0	95.4
=	0.0	181.7	24.0	95.3
=	0.0	182.4	24.0	95.2
=	0.0	182.9	24.0	95.1
=	0.0	183.6	24.0	95.1
=	0.0	184.3	24.0	95.0
=	0.0	184.9	24.0	94.9
=	0.0	185.5	24.0	94.8
=	0.0	186.1	24.0	94.7
=	0.0	186.7	24.0	94.6
=	0.0	187.5	24.0	94.5
=	0.0	188.1	24.0	94.3
=	0.0	188.7	24.0	94.2
=	0.0	189.2	24.0	94.1
=	0.0	189.8	24.0	94.0
=	0.0	190.4	24.0	93.7
=	0.0	191.0	24.0	93.5
=	0.0	191.7	24.0	93.3
=	0.0	192.3	24.0	93.1
=	0.0	192.8	24.0	92.9
=	0.0	193.4	24.0	92.6
=	0.0	194.0	24.0	92.2
=	0.0	194.6	24.0	91.9
=	0.0	195.2	24.0	91.4
=	0.0	195.9	24.0	90.8
=	0.0	196.6	24.0	90.1
=	0.0	197.2	24.0	89.3
=	0.0	197.9	24.0	88.3
=	0.0	198.6	24.0	86.6
=	0.0	199.2	24.0	85.2
=	0.0	199.8	24.0	83.1
=	0.0	200.3	24.0	80.8
=	0.0	200.8	24.0	78.2
=	0.0	201.5	24.0	73.9
=	0.0	202.2	24.0	69.6
=	0.0	202.7	24.0	65.6
=	0.0	203.4	24.0	60.0
=	0.0	204.1	24.0	54.4
=	0.0	204.8	24.0	48.8
=	0.0	205.5	24.0	42.5
=	0.0	206.1	24.0	38.2
=	0.0	206.8	24.0	33.4
=	0.0	207.4	24.0	29.5
=	0.0	208.0	24.0	26.0
=	0.0	208.7	24.0	23.0
=	0.0	209.3	24.0	20.5
=	0.0	209.9	24.0	18.9
=	0.0	210.4	24.0	17.5
=	0.0	211.0	24.0	16.3
=	0.0	211.7	24.0	15.1
=	0.0	212.4	24.0	14.2
=	0.0	212.9	24.0	13.6
=	0.0	213.5	24.0	13.1
=	0.0	214.2	24.0	12.6
=	0.0	214.8	24.0	12.2
=	0.0	215.4	24.0	11.9
=	0.0	216.0	24.0	11.7
=	0.0	216.7	24.0	11.4
=	0.0	217.5	24.0	11.1
=	0.0	218.2	24.0	10.9
=	0.0	218.8	24.0	10.8
=	0.0	219.3	24.0	10.7
=	0.0	219.9	24.0	10.5
=	0.0	220.5	24.0	10.4
=	0.0	221.2	24.0	10.2
=	0.0	221.8	24.0	10.2
=	0.0	222.3	24.0	10.1
=	0.0	222.9	24.0	10.0
=	0.0	223.6	24.0	9.8
=	0.0	224.2	24.0	9.8
=	0.0	224.8	24.0	9.7
=	0.0	225.5	24.0	9.6
=	0.0	226.2	24.0	9.5
=	0.0	226.9	24.0	9.4
=	0.0	227.6	24.0	9.3
=	0.0	228.2	24.0	9.2
=	0.0	228.7	24.0	9.1
=	0.0	229.4	24.0	9.0
=	0.0	229.9	24.0	9.0
=	0.0	230.5	24.0	8.9
=	0.0	231.2	24.0	8.8
=	0.0	231.9	24.0	8.7
=	0.0	232.6	24.0	8.7
=	0.0	233.3	24.0	8.6
=	0.0	233.9	24.0	8.6
=	0.0	234.4	24.0	8.5
=	0.0	235.0	24.0	8.5
=	0.0	235.6	24.0	8.4
=	0.0	236.2	24.0	8.4
=	0.0	236.9	24.0	8.4
=	0.0	237.6	24.0	8.3
=	0.0	238.2	24.0	8.3
=	0.0	238.8	24.0	8.3
=	0.0	239.5	24.0	8.3
=	0.0	240.1	24.0	8.2
=	0.0	240.7	24.0	8.2
=	0.0	241.3	24.0	8.2
=	0.0	241.9	24.0	8.2
=	0.0	242.4	24.0	8.2
=	0.0	243.0	24.0	8.1
=	0.0	243.5	24.0	8.1
=	0.0	244.0	24.0	8.1
=	0.0	244.6	24.0	8.1
=	0.0	245.2	24.0	8.0
=	0.0	245.9	24.0	8.0
=	0.0	246.5	24.0	8.0
=	0.0	247.2	24.0	7.9
=	0.0	247.8	24.0	7.9
=	0.0	248.6	24.0	7.8
=	0.0	249.3	24.0	7.8
=	0.0	249.9	24.0	7.8
=	0.0	250.4	24.0	7.8
=	0.0	251.1	24.0	7.7
=	0.0	251.8	24.0	7.7
=	0.0	252.3	24.0	7.7
=	0.0	253.0	24.0	7.6
=	0.0	253.8	24.0	7.6
=	0.0	254.4	24.0	7.6
:EOM # End of Measurement
#
# RFA300 ASCII Measurement Dump ( BDS format )
#
# Measurement number 	2
#
%VNR 1.0
%MOD 	RAT
%TYP 	SCN
%SCN 	PRO
%FLD 	ION
%DAT 	10-14-2011
%TIM 	12:00:00
%FSZ 	400	150
%BMT 	PHO	   10.0
%SSD 	1000
%BUP 	0
%BRD 	1000
%FSH 	1
%ASC 	0
%WEG 	60
%GPO 	0
%CPO 	0
%MEA 	6
%PRD 	50,0
%PTS 	826
%STS 	    0.0	  -259.8	   50.0 # Start Scan values in mm ( X , Y , Z )
%EDS 	    0.0	   259.5	   50.0 # End Scan values in mm ( X , Y , Z )
#
#	  X      Y      Z     Dose
#
=	0.0	-259.8	50.0	7.5
=	0.0	-259.2	50.0	7.6
=	0.0	-258.6	50.0	7.6
=	0.0	-258.0	50.0	7.6
=	0.0	-257.4	50.0	7.6
=	0.0	-256.8	50.0	7.7
=	0.0	-256.2	50.0	7.7
=	0.0	-255.4	50.0	7.8
=	0.0	-254.7	50.0	7.8
=	0.0	-254.1	50.0	7.8
=	0.0	-253.5	50.0	7.8
=	0.0	-252.7	50.0	7.9
=	0.0	-252.2	50.0	7.9
=	0.0	-251.5	50.0	7.9
=	0.0	-250.7	50.0	8.0
=	0.0	-249.9	50.0	8.0
=	0.0	-249.4	50.0	8.0
=	0.0	-248.7	50.0	8.1
=	0.0	-248.1	50.0	8.1
=	0.0	-247.3	50.0	8.1
=	0.0	-246.6	50.0	8.2
=	0.0	-245.8	50.0	8.2
=	0.0	-245.1	50.0	8.3
=	0.0	-244.4	50.0	8.3
=	0.0	-243.7	50.0	8.4
=	0.0	-243.1	50.0	8.4
=	0.0	-242.5	50.0	8.5
=	0.0	-242.0	50.0	8.5
=	0.0	-241.4	50.0	8.5
=	0.0	-240.9	50.0	8.6
=	0.0	-240.2	50.0	8.6
=	0.0	-239.4	50.0	8.7
=	0.0	-238.7	50.0	8.8
=	0.0	-238.0	50.0	8.9
=	0.0	-237.2	50.0	9.0
=	0.0	-236.6	50.0	9.0
=	0.0	-236.0	50.0	9.1
=	0.0	-235.4	50.0	9.2
=	0.0	-234.9	50.0	9.2
=	0.0	-234.3	50.0	9.4
=	0.0	-233.7	50.0	9.5
=	0.0	-233.1	50.0	9.5
=	0.0	-232.5	50.0	9.6
=	0.0	-231.9	50.0	9.7
=	0.0	-231.3	50.0	9.8
=	0.0	-230.6	50.0	9.9
=	0.0	-229.8	50.0	10.1
=	0.0	-229.2	50.0	10.2
=	0.0	-228.6	50.0	10.3
=	0.0	-227.8	50.0	10.4
=	0.0	-227.2	50.0	10.6
=	0.0	-226.6	50.0	10.7
=	0.0	-226.0	50.0	10.8
=	0.0	-225.4	50.0	10.9
=	0.0	-224.9	50.0	11.1
=	0.0	-224.2	50.0	11.2
=	0.0	-223.6	50.0	11.4
=	0.0	-223.0	50.0	11.6
=	0.0	-222.4	50.0	11.8
=	0.0	-221.7	50.0	12.1
=	0.0	-221.0	50.0	12.4
=	0.0	-220.3	50.0	12.8
=	0.0	-219.5	50.0	13.3
=	0.0	-218.9	50.0	13.7
=	0.0	-218.3	50.0	14.2
=	0.0	-217.8	50.0	14.7
=	0.0	-217.3	50.0	15.3
=	0.0	-216.7	50.0	16.2
=	0.0	-216.2	50.0	17.1
=	0.0	-215.4	50.0	18.7
=	0.0	-214.8	50.0	20.5
=	0.0	-214.2	50.0	22.6
=	0.0	-213.5	50.0	25.4
=	0.0	-212.8	50.0	28.7
=	0.0	-212.2	50.0	31.8
=	0.0	-211.7	50.0	35.4
=	0.0	-211.1	50.0	39.5
=	0.0	-210.4	50.0	44.3
=	0.0	-209.7	50.0	49.0
=	0.0	-209.0	50.0	54.7
=	0.0	-208.5	50.0	58.9
=	0.0	-207.9	50.0	63.4
=	0.0	-207.1	50.0	69.0
=	0.0	-206.5	50.0	73.0
=	0.0	-205.8	50.0	76.3
=	0.0	-205.0	50.0	79.7
=	0.0	-204.4	50.0	82.0
=	0.0	-203.6	50.0	84.1
=	0.0	-202.9	50.0	85.7
=	0.0	-202.2	50.0	86.9
=	0.0	-201.6	50.0	87.6
=	0.0	-200.9	50.0	88.4
=	0.0	-200.2	50.0	89.0
=	0.0	-199.6	50.0	89.5
=	0.0	-199.0	50.0	90.0
=	0.0	-198.4	50.0	90.3
=	0.0	-197.8	50.0	90.6
=	0.0	-197.1	50.0	91.0
=	0.0	-196.4	50.0	91.3
=	0.0	-195.8	50.0	91.5
=	0.0	-195.1	50.0	91.8
=	0.0	-194.3	50.0	92.0
=	0.0	-193.6	50.0	92.2
=	0.0	-193.0	50.0	92.4
=	0.0	-192.5	50.0	92.6
=	0.0	-192.0	50.0	92.6
=	0.0	-191.2	50.0	92.8
=	0.0	-190.4	50.0	92.9
=	0.0	-189.8	50.0	93.1
=	0.0	-189.1	50.0	93.2
=	0.0	-188.5	50.0	93.4
=	0.0	-187.8	50.0	93.6
=	0.0	-187.2	50.0	93.7
=	0.0	-186.5	50.0	93.8
=	0.0	-185.8	50.0	93.9
=	0.0	-185.1	50.0	94.0
=	0.0	-184.4	50.0	94.0
=	0.0	-183.8	50.0	94.1
=	0.0	-183.3	50.0	94.2
=	0.0	-182.6	50.0	94.3
=	0.0	-181.9	50.0	94.4
=	0.0	-181.3	50.0	94.4
=	0.0	-180.6	50.0	94.5
=	0.0	-179.9	50.0	94.6
=	0.0	-179.1	50.0	94.6
=	0.0	-178.5	50.0	94.7
=	0.0	-177.8	50.0	94.7
=	0.0	-177.3	50.0	94.8
=	0.0	-176.7	50.0	94.9
=	0.0	-175.9	50.0	95.0
=	0.0	-175.3	50.0	95.0
=	0.0	-174.8	50.0	95.1
=	0.0	-174.1	50.0	95.1
=	0.0	-173.3	50.0	95.2
=	0.0	-172.7	50.0	95.3
=	0.0	-172.0	50.0	95.3
=	0.0	-171.2	50.0	95.4
=	0.0	-170.6	50.0	95.5
=	0.0	-169.9	50.0	95.5
=	0.0	-169.4	50.0	95.5
=	0.0	-168.7	50.0	95.5
=	0.0	-168.0	50.0	95.6
=	0.0	-167.4	50.0	95.7
=	0.0	-166.8	50.0	95.7
=	0.0	-166.3	50.0	95.8
=	0.0	-165.6	50.0	95.8
=	0.0	-165.1	50.0	95.9
=	0.0	-164.4	50.0	95.9
=	0.0	-163.8	50.0	95.9
=	0.0	-163.2	50.0	96.0
=	0.0	-162.5	50.0	96.0
=	0.0	-161.9	50.0	96.0
=	0.0	-161.2	50.0	96.0
=	0.0	-160.5	50.0	96.1
=	0.0	-160.0	50.0	96.1
=	0.0	-159.5	50.0	96.1
=	0.0	-158.8	50.0	96.2
=	0.0	-158.2	50.0	96.2
=	0.0	-157.7	50.0	96.3
=	0.0	-157.0	50.0	96.4
=	0.0	-156.4	50.0	96.5
=	0.0	-155.8	50.0	96.5
=	0.0	-155.1	50.0	96.6
=	0.0	-154.6	50.0	96.6
=	0.0	-154.0	50.0	96.7
=	0.0	-153.5	50.0	96.7
=	0.0	-152.9	50.0	96.7
=	0.0	-152.3	50.0	96.8
=	0.0	-151.8	50.0	96.8
=	0.0	-151.2	50.0	96.9
=	0.0	-150.6	50.0	96.9
=	0.0	-149.9	50.0	97.0
=	0.0	-149.3	50.0	97.0
=	0.0	-148.6	50.0	97.0
=	0.0	-147.9	50.0	97.1
=	0.0	-147.4	50.0	97.1
=	0.0	-146.6	50.0	97.1
=	0.0	-145.8	50.0	97.2
=	0.0	-145.2	50.0	97.2
=	0.0	-144.6	50.0	97.2
=	0.0	-144.0	50.0	97.3
=	0.0	-143.4	50.0	97.3
=	0.0	-142.9	50.0	97.3
=	0.0	-142.3	50.0	97.3
=	0.0	-141.7	50.0	97.4
=	0.0	-141.2	50.0	97.5
=	0.0	-140.5	50.0	97.5
=	0.0	-139.8	50.0	97.6
=	0.0	-139.1	50.0	97.6
=	0.0	-138.6	50.0	97.7
=	0.0	-138.1	50.0	97.7
=	0.0	-137.5	50.0	97.7
=	0.0	-136.9	50.0	97.7
=	0.0	-136.2	50.0	97.8
=	0.0	-135.6	50.0	97.8
=	0.0	-135.2	50.0	97.8
=	0.0	-134.6	50.0	97.8
=	0.0	-134.0	50.0	97.8
=	0.0	-133.4	50.0	97.9
=	0.0	-132.8	50.0	98.0
=	0.0	-132.2	50.0	98.0
=	0.0	-131.4	50.0	98.1
=	0.0	-130.7	50.0	98.2
=	0.0	-130.1	50.0	98.3
=	0.0	-129.5	50.0	98.3
=	0.0	-128.7	50.0	98.4
=	0.0	-127.9	50.0	98.4
=	0.0	-127.2	50.0	98.4
=	0.0	-126.5	50.0	98.4
=	0.0	-125.9	50.0	98.5
=	0.0	-125.4	50.0	98.6
=	0.0	-124.9	50.0	98.6
=	0.0	-124.2	50.0	98.6
=	0.0	-123.5	50.0	98.7
=	0.0	-122.7	50.0	98.8
=	0.0	-122.1	50.0	98.8
=	0.0	-121.5	50.0	98.8
=	0.0	-120.8	50.0	98.9
=	0.0	-120.0	50.0	98.9
=	0.0	-119.2	50.0	99.0
=	0.0	-118.5	50.0	99.0
=	0.0	-117.9	50.0	99.1
=	0.0	-117.2	50.0	99.1
=	0.0	-116.4	50.0	99.1
=	0.0	-115.8	50.0	99.1
=	0.0	-115.2	50.0	99.2
=	0.0	-114.6	50.0	99.2
=	0.0	-113.9	50.0	99.2
=	0.0	-113.2	50.0	99.3
=	0.0	-112.6	50.0	99.3
=	0.0	-111.9	50.0	99.4
=	0.0	-111.3	50.0	99.4
=	0.0	-110.6	50.0	99.4
=	0.0	-110.0	50.0	99.4
=	0.0	-109.3	50.0	99.4
=	0.0	-108.7	50.0	99.5
=	0.0	-108.2	50.0	99.5
=	0.0	-107.5	50.0	99.5
=	0.0	-106.9	50.0	99.6
=	0.0	-106.4	50.0	99.6
=	0.0	-105.9	50.0	99.7
=	0.0	-105.3	50.0	99.7
=	0.0	-104.8	50.0	99.7
=	0.0	-104.1	50.0	99.8
=	0.0	-103.4	50.0	99.9
=	0.0	-102.8	50.0	99.9
=	0.0	-102.2	50.0	99.9
=	0.0	-101.6	50.0	99.9
=	0.0	-100.9	50.0	99.9
=	0.0	-100.3	50.0	100.0
=	0.0	-99.7	50.0	100.0
=	0.0	-99.2	50.0	100.0
=	0.0	-98.6	50.0	100.1
=	0.0	-98.0	50.0	100.0
=	0.0	-97.4	50.0	100.1
=	0.0	-96.7	50.0	100.1
=	0.0	-96.1	50.0	100.1
=	0.0	-95.5	50.0	100.1
=	0.0	-95.0	50.0	100.1
=	0.0	-94.4	50.0	100.1
=	0.0	-93.8	50.0	100.2
=	0.0	-93.1	50.0	100.2
=	0.0	-92.5	50.0	100.3
=	0.0	-91.8	50.0	100.3
=	0.0	-91.1	50.0	100.4
=	0.0	-90.6	50.0	100.4
=	0.0	-89.9	50.0	100.4
=	0.0	-89.3	50.0	100.4
=	0.0	-88.7	50.0	100.4
=	0.0	-88.2	50.0	100.4
=	0.0	-87.7	50.0	100.4
=	0.0	-86.9	50.0	100.5
=	0.0	-86.1	50.0	100.5
=	0.0	-85.4	50.0	100.5
=	0.0	-84.8	50.0	100.5
=	0.0	-84.3	50.0	100.6
=	0.0	-83.6	50.0	100.6
=	0.0	-82.9	50.0	100.6
=	0.0	-82.3	50.0	100.7
=	0.0	-81.7	50.0	100.7
=	0.0	-81.0	50.0	100.7
=	0.0	-80.5	50.0	100.7
=	0.0	-79.9	50.0	100.8
=	0.0	-79.1	50.0	100.8
=	0.0	-78.4	50.0	100.8
=	0.0	-77.8	50.0	100.8
=	0.0	-77.0	50.0	100.8
=	0.0	-76.4	50.0	100.8
=	0.0	-75.7	50.0	100.9
=	0.0	-75.0	50.0	100.9
=	0.0	-74.2	50.0	101.0
=	0.0	-73.7	50.0	101.0
=	0.0	-73.2	50.0	101.0
=	0.0	-72.6	50.0	101.0
=	0.0	-72.1	50.0	101.0
=	0.0	-71.6	50.0	101.0
=	0.0	-71.0	50.0	101.0
=	0.0	-70.5	50.0	101.0
=	0.0	-69.8	50.0	101.1
=	0.0	-69.3	50.0	101.1
=	0.0	-68.7	50.0	101.0
=	0.0	-68.1	50.0	101.0
=	0.0	-67.6	50.0	101.0
=	0.0	-67.1	50.0	101.0
=	0.0	-66.6	50.0	101.1
=	0.0	-66.0	50.0	101.1
=	0.0	-65.4	50.0	101.1
=	0.0	-64.8	50.0	101.1
=	0.0	-64.3	50.0	101.1
=	0.0	-63.8	50.0	101.2
=	0.0	-63.2	50.0	101.2
=	0.0	-62.7	50.0	101.2
=	0.0	-62.1	50.0	101.2
=	0.0	-61.5	50.0	101.2
=	0.0	-60.8	50.0	101.2
=	0.0	-60.2	50.0	101.2
=	0.0	-59.5	50.0	101.2
=	0.0	-58.9	50.0	101.2
=	0.0	-58.3	50.0	101.2
=	0.0	-57.6	50.0	101.2
=	0.0	-57.1	50.0	101.2
=	0.0	-56.6	50.0	101.2
=	0.0	-55.9	50.0	101.2
=	0.0	-55.1	50.0	101.2
=	0.0	-54.5	50.0	101.2
=	0.0	-54.0	50.0	101.3
=	0.0	-53.4	50.0	101.3
=	0.0	-52.8	50.0	101.3
=	0.0	-52.3	50.0	101.3
=	0.0	-51.6	50.0	101.3
=	0.0	-50.8	50.0	101.2
=	0.0	-50.1	50.0	101.2
=	0.0	-49.4	50.0	101.2
=	0.0	-48.6	50.0	101.2
=	0.0	-48.0	50.0	101.2
=	0.0	-47.4	50.0	101.2
=	0.0	-47.0	50.0	101.2
=	0.0	-46.3	50.0	101.2
=	0.0	-45.6	50.0	101.2
=	0.0	-45.0	50.0	101.2
=	0.0	-44.4	50.0	101.2
=	0.0	-43.8	50.0	101.1
=	0.0	-43.3	50.0	101.0
=	0.0	-42.7	50.0	101.0
=	0.0	-42.2	50.0	101.0
=	0.0	-41.6	50.0	101.0
=	0.0	-41.1	50.0	101.0
=	0.0	-40.5	50.0	101.0
=	0.0	-39.7	50.0	101.0
=	0.0	-39.1	50.0	101.0
=	0.0	-38.5	50.0	101.0
=	0.0	-37.9	50.0	101.0
=	0.0	-37.3	50.0	101.0
=	0.0	-36.7	50.0	101.0
=	0.0	-36.1	50.0	101.0
=	0.0	-35.4	50.0	101.0
=	0.0	-34.7	50.0	101.0
=	0.0	-34.2	50.0	100.9
=	0.0	-33.6	50.0	100.9
=	0.0	-33.0	50.0	100.9
=	0.0	-32.4	50.0	100.9
=	0.0	-31.8	50.0	100.9
=	0.0	-31.2	50.0	100.9
=	0.0	-30.5	50.0	100.9
=	0.0	-29.9	50.0	100.8
=	0.0	-29.3	50.0	100.8
=	0.0	-28.7	50.0	100.8
=	0.0	-28.0	50.0	100.8
=	0.0	-27.4	50.0	100.7
=	0.0	-26.8	50.0	100.7
=	0.0	-26.1	50.0	100.7
=	0.0	-25.6	50.0	100.7
=	0.0	-24.9	50.0	100.6
=	0.0	-24.3	50.0	100.6
=	0.0	-23.8	50.0	100.6
=	0.0	-23.2	50.0	100.6
=	0.0	-22.5	50.0	100.6
=	0.0	-21.9	50.0	100.6
=	0.0	-21.3	50.0	100.6
=	0.0	-20.6	50.0	100.6
=	0.0	-20.0	50.0	100.5
=	0.0	-19.4	50.0	100.5
=	0.0	-18.8	50.0	100.5
=	0.0	-18.2	50.0	100.4
=	0.0	-17.6	50.0	100.4
=	0.0	-17.0	50.0	100.4
=	0.0	-16.3	50.0	100.4
=	0.0	-15.7	50.0	100.4
=	0.0	-15.1	50.0	100.3
=	0.0	-14.5	50.0	100.3
=	0.0	-14.0	50.0	100.3
=	0.0	-13.5	50.0	100.3
=	0.0	-12.7	50.0	100.3
=	0.0	-12.0	50.0	100.3
=	0.0	-11.4	50.0	100.2
=	0.0	-10.7	50.0	100.2
=	0.0	-10.2	50.0	100.2
=	0.0	-9.5	50.0	100.2
=	0.0	-8.8	50.0	100.2
=	0.0	-8.2	50.0	100.2
=	0.0	-7.6	50.0	100.1
=	0.0	-7.1	50.0	100.1
=	0.0	-6.5	50.0	100.1
=	0.0	-5.9	50.0	100.1
=	0.0	-5.2	50.0	100.0
=	0.0	-4.4	50.0	100.0
=	0.0	-3.9	50.0	100.0
=	0.0	-3.3	50.0	100.0
=	0.0	-2.5	50.0	100.0
=	0.0	-1.9	50.0	100.0
=	0.0	-1.2	50.0	100.0
=	0.0	-0.6	50.0	100.0
=	0.0	-0.1	50.0	100.0
=	0.0	0.0	50.0	100.0
=	0.0	0.4	50.0	100.0
=	0.0	0.9	50.0	100.0
=	0.0	1.5	50.0	100.0
=	0.0	2.2	50.0	100.0
=	0.0	2.9	50.0	100.0
=	0.0	3.6	50.0	100.0
=	0.0	4.1	50.0	100.0
=	0.0	4.7	50.0	100.0
=	0.0	5.6	50.0	100.0
=	0.0	6.2	50.0	100.1
=	0.0	6.8	50.0	100.1
=	0.0	7.4	50.0	100.1
=	0.0	7.9	50.0	100.1
=	0.0	8.5	50.0	100.2
=	0.0	9.2	50.0	100.2
=	0.0	9.9	50.0	100.2
=	0.0	10.4	50.0	100.2
=	0.0	11.1	50.0	100.2
=	0.0	11.7	50.0	100.2
=	0.0	12.3	50.0	100.3
=	0.0	13.1	50.0	100.3
=	0.0	13.7	50.0	100.3
=	0.0	14.2	50.0	100.3
=	0.0	14.8	50.0	100.3
=	0.0	15.4	50.0	100.3
=	0.0	16.0	50.0	100.4
=	0.0	16.7	50.0	100.4
=	0.0	17.3	50.0	100.4
=	0.0	17.9	50.0	100.4
=	0.0	18.5	50.0	100.5
=	0.0	19.2	50.0	100.5
=	0.0	19.7	50.0	100.5
=	0.0	20.3	50.0	100.5
=	0.0	20.9	50.0	100.6
=	0.0	21.6	50.0	100.6
=	0.0	22.2	50.0	100.6
=	0.0	22.8	50.0	100.6
=	0.0	23.5	50.0	100.6
=	0.0	24.1	50.0	100.6
=	0.0	24.6	50.0	100.6
=	0.0	25.3	50.0	100.6
=	0.0	25.9	50.0	100.7
=	0.0	26.5	50.0	100.7
