:MSR 	5	 # No. of measurement in file
:SYS BDS 0   # Beam Data Scanner System
#
# RFA300 ASCII Measurement Dump ( BDS format )
#
# Measurement number 	1
#
%VNR 1.0
%MOD 	RAT
%TYP 	SCN
%SCN 	PRO
%FLD 	ION
%DAT 	02-03-2012
%TIM 	12:00:00
%FSZ 	400	150
%BMT 	PHO	   8.0
%SSD 	1000
%BUP 	0
%BRD 	1000
%FSH 	1
%ASC 	0
%WEG 	60
%GPO 	0
%CPO 	0
%MEA 	6
%PRD 	20,0
%PTS 	732
%STS 	    0.0	  -273.8	   20.0 # Start Scan values in mm ( X , Y , Z )
%EDS 	    0.0	   273.3	   20.0 # End Scan values in mm ( X , Y , Z )
#
#	  X      Y      Z     Dose
#
=	0.0	-273.8	20.0	6.1
=	0.0	-273.0	20.0	6.1
=	0.0	-271.9	20.0	6.2
=	0.0	-271.1	20.0	6.2
=	0.0	-269.8	20.0	6.3
=	0.0	-268.3	20.0	6.3
=	0.0	-266.8	20.0	6.4
=	0.0	-265.3	20.0	6.4
=	0.0	-263.9	20.0	6.5
=	0.0	-263.3	20.0	6.5
=	0.0	-262.5	20.0	6.6
=	0.0	-261.7	20.0	6.6
=	0.0	-261.0	20.0	6.6
=	0.0	-260.2	20.0	6.7
=	0.0	-259.5	20.0	6.7
=	0.0	-258.8	20.0	6.7
=	0.0	-258.2	20.0	6.7
=	0.0	-257.5	20.0	6.8
=	0.0	-256.7	20.0	6.8
=	0.0	-256.1	20.0	6.8
=	0.0	-255.6	20.0	6.9
=	0.0	-254.9	20.0	6.9
=	0.0	-254.2	20.0	6.9
=	0.0	-253.4	20.0	6.9
=	0.0	-252.7	20.0	7.0
=	0.0	-251.9	20.0	7.0
=	0.0	-251.2	20.0	7.1
=	0.0	-250.4	20.0	7.1
=	0.0	-249.7	20.0	7.1
=	0.0	-248.9	20.0	7.2
=	0.0	-248.2	20.0	7.2
=	0.0	-247.4	20.0	7.3
=	0.0	-246.7	20.0	7.3
=	0.0	-245.9	20.0	7.3
=	0.0	-245.4	20.0	7.3
=	0.0	-244.7	20.0	7.4
=	0.0	-243.9	20.0	7.4
=	0.0	-243.1	20.0	7.4
=	0.0	-242.4	20.0	7.5
=	0.0	-241.6	20.0	7.5
=	0.0	-240.9	20.0	7.5
=	0.0	-240.1	20.0	7.5
=	0.0	-239.4	20.0	7.6
=	0.0	-238.6	20.0	7.6
=	0.0	-237.9	20.0	7.6
=	0.0	-237.1	20.0	7.7
=	0.0	-236.4	20.0	7.7
=	0.0	-235.6	20.0	7.7
=	0.0	-234.9	20.0	7.8
=	0.0	-234.1	20.0	7.8
=	0.0	-233.4	20.0	7.9
=	0.0	-232.6	20.0	7.9
=	0.0	-231.8	20.0	8.0
=	0.0	-231.1	20.0	8.0
=	0.0	-230.3	20.0	8.1
=	0.0	-229.6	20.0	8.2
=	0.0	-228.9	20.0	8.3
=	0.0	-228.1	20.0	8.3
=	0.0	-227.3	20.0	8.4
=	0.0	-226.6	20.0	8.5
=	0.0	-225.8	20.0	8.6
=	0.0	-225.1	20.0	8.7
=	0.0	-224.3	20.0	8.8
=	0.0	-223.5	20.0	8.9
=	0.0	-222.8	20.0	9.0
=	0.0	-222.0	20.0	9.1
=	0.0	-221.3	20.0	9.2
=	0.0	-220.5	20.0	9.3
=	0.0	-219.8	20.0	9.4
=	0.0	-219.0	20.0	9.5
=	0.0	-218.3	20.0	9.6
=	0.0	-217.5	20.0	9.8
=	0.0	-216.7	20.0	10.0
=	0.0	-215.5	20.0	10.3
=	0.0	-214.5	20.0	10.6
=	0.0	-213.3	20.0	11.2
=	0.0	-212.5	20.0	11.8
=	0.0	-211.8	20.0	12.4
=	0.0	-211.0	20.0	13.3
=	0.0	-210.3	20.0	14.3
=	0.0	-209.5	20.0	16.0
=	0.0	-208.7	20.0	18.0
=	0.0	-207.8	20.0	21.4
=	0.0	-206.7	20.0	27.0
=	0.0	-205.6	20.0	33.7
=	0.0	-204.7	20.0	40.3
=	0.0	-203.9	20.0	46.9
=	0.0	-203.2	20.0	53.0
=	0.0	-202.4	20.0	59.6
=	0.0	-201.7	20.0	65.2
=	0.0	-200.9	20.0	70.8
=	0.0	-200.2	20.0	75.5
=	0.0	-199.4	20.0	79.4
=	0.0	-198.7	20.0	82.2
=	0.0	-197.9	20.0	84.5
=	0.0	-196.9	20.0	86.6
=	0.0	-196.2	20.0	87.7
=	0.0	-195.4	20.0	88.6
=	0.0	-194.7	20.0	89.2
=	0.0	-193.7	20.0	89.8
=	0.0	-192.9	20.0	90.2
=	0.0	-192.1	20.0	90.6
=	0.0	-190.6	20.0	91.0
=	0.0	-189.5	20.0	91.3
=	0.0	-188.2	20.0	91.6
=	0.0	-187.1	20.0	91.9
=	0.0	-185.5	20.0	92.1
=	0.0	-184.2	20.0	92.4
=	0.0	-183.0	20.0	92.6
=	0.0	-182.1	20.0	92.7
=	0.0	-181.3	20.0	92.8
=	0.0	-180.6	20.0	92.9
=	0.0	-179.8	20.0	93.0
=	0.0	-179.1	20.0	93.0
=	0.0	-178.3	20.0	93.1
=	0.0	-177.6	20.0	93.3
=	0.0	-176.8	20.0	93.3
=	0.0	-176.1	20.0	93.4
=	0.0	-175.3	20.0	93.5
=	0.0	-174.5	20.0	93.6
=	0.0	-173.8	20.0	93.8
=	0.0	-173.0	20.0	93.8
=	0.0	-172.2	20.0	93.9
=	0.0	-171.5	20.0	93.9
=	0.0	-170.7	20.0	94.0
=	0.0	-170.0	20.0	94.0
=	0.0	-169.2	20.0	94.1
=	0.0	-168.5	20.0	94.2
=	0.0	-167.7	20.0	94.3
=	0.0	-167.0	20.0	94.3
=	0.0	-166.2	20.0	94.4
=	0.0	-165.4	20.0	94.4
=	0.0	-164.7	20.0	94.4
=	0.0	-164.0	20.0	94.5
=	0.0	-163.4	20.0	94.6
=	0.0	-162.8	20.0	94.7
=	0.0	-162.3	20.0	94.7
=	0.0	-161.8	20.0	94.8
=	0.0	-161.3	20.0	94.8
=	0.0	-160.7	20.0	94.8
=	0.0	-160.2	20.0	94.8
=	0.0	-159.7	20.0	94.9
=	0.0	-159.2	20.0	95.0
=	0.0	-158.7	20.0	95.1
=	0.0	-158.2	20.0	95.1
=	0.0	-157.7	20.0	95.1
=	0.0	-157.2	20.0	95.1
=	0.0	-156.7	20.0	95.2
=	0.0	-156.2	20.0	95.2
=	0.0	-155.5	20.0	95.3
=	0.0	-154.9	20.0	95.3
=	0.0	-154.4	20.0	95.3
=	0.0	-153.7	20.0	95.4
=	0.0	-152.9	20.0	95.5
=	0.0	-152.2	20.0	95.6
=	0.0	-151.4	20.0	95.7
=	0.0	-150.7	20.0	95.7
=	0.0	-149.9	20.0	95.8
=	0.0	-149.2	20.0	95.8
=	0.0	-148.4	20.0	95.9
=	0.0	-147.6	20.0	95.9
=	0.0	-146.8	20.0	96.0
=	0.0	-146.1	20.0	96.0
=	0.0	-145.3	20.0	96.0
=	0.0	-144.6	20.0	96.1
=	0.0	-143.8	20.0	96.2
=	0.0	-143.1	20.0	96.2
=	0.0	-142.3	20.0	96.3
=	0.0	-141.6	20.0	96.3
=	0.0	-140.9	20.0	96.4
=	0.0	-140.1	20.0	96.4
=	0.0	-139.3	20.0	96.4
=	0.0	-138.6	20.0	96.5
=	0.0	-137.8	20.0	96.5
=	0.0	-137.0	20.0	96.6
=	0.0	-136.3	20.0	96.6
=	0.0	-135.6	20.0	96.7
=	0.0	-134.8	20.0	96.7
=	0.0	-134.0	20.0	96.8
=	0.0	-133.3	20.0	96.8
=	0.0	-132.5	20.0	96.9
=	0.0	-131.7	20.0	96.9
=	0.0	-131.0	20.0	96.9
=	0.0	-130.2	20.0	97.0
=	0.0	-129.5	20.0	97.0
=	0.0	-128.7	20.0	97.1
=	0.0	-128.0	20.0	97.1
=	0.0	-127.2	20.0	97.2
=	0.0	-126.5	20.0	97.2
=	0.0	-125.7	20.0	97.3
=	0.0	-125.0	20.0	97.4
=	0.0	-124.0	20.0	97.4
=	0.0	-123.1	20.0	97.4
=	0.0	-122.4	20.0	97.5
=	0.0	-121.6	20.0	97.5
=	0.0	-120.9	20.0	97.5
=	0.0	-120.1	20.0	97.6
=	0.0	-118.7	20.0	97.7
=	0.0	-117.2	20.0	97.8
=	0.0	-116.2	20.0	97.8
=	0.0	-114.7	20.0	97.8
=	0.0	-113.5	20.0	97.9
=	0.0	-112.7	20.0	98.0
=	0.0	-111.5	20.0	98.1
=	0.0	-110.8	20.0	98.1
=	0.0	-110.0	20.0	98.1
=	0.0	-109.3	20.0	98.1
=	0.0	-108.5	20.0	98.2
=	0.0	-107.8	20.0	98.3
=	0.0	-107.0	20.0	98.3
=	0.0	-106.6	20.0	98.3
=	0.0	-105.9	20.0	98.4
=	0.0	-105.4	20.0	98.4
=	0.0	-104.9	20.0	98.4
=	0.0	-104.2	20.0	98.4
=	0.0	-103.7	20.0	98.4
=	0.0	-103.2	20.0	98.4
=	0.0	-102.4	20.0	98.4
=	0.0	-101.7	20.0	98.5
=	0.0	-100.9	20.0	98.5
=	0.0	-100.2	20.0	98.6
=	0.0	-99.4	20.0	98.6
=	0.0	-98.7	20.0	98.6
=	0.0	-97.9	20.0	98.7
=	0.0	-97.2	20.0	98.7
=	0.0	-96.4	20.0	98.7
=	0.0	-95.7	20.0	98.7
=	0.0	-94.9	20.0	98.8
=	0.0	-94.4	20.0	98.8
=	0.0	-94.0	20.0	98.8
=	0.0	-93.4	20.0	98.8
=	0.0	-92.6	20.0	98.8
=	0.0	-92.1	20.0	98.9
=	0.0	-91.6	20.0	98.9
=	0.0	-91.1	20.0	98.9
=	0.0	-90.6	20.0	98.9
=	0.0	-89.8	20.0	98.9
=	0.0	-89.2	20.0	99.0
=	0.0	-88.7	20.0	99.0
=	0.0	-88.2	20.0	99.0
=	0.0	-87.7	20.0	99.1
=	0.0	-87.2	20.0	99.1
=	0.0	-86.7	20.0	99.1
=	0.0	-86.2	20.0	99.1
=	0.0	-85.7	20.0	99.1
=	0.0	-85.2	20.0	99.1
=	0.0	-84.7	20.0	99.1
=	0.0	-84.2	20.0	99.1
=	0.0	-83.7	20.0	99.2
=	0.0	-83.1	20.0	99.2
=	0.0	-82.5	20.0	99.2
=	0.0	-82.0	20.0	99.2
=	0.0	-81.5	20.0	99.2
=	0.0	-81.0	20.0	99.2
=	0.0	-80.5	20.0	99.2
=	0.0	-80.0	20.0	99.2
=	0.0	-79.5	20.0	99.2
=	0.0	-79.0	20.0	99.3
=	0.0	-78.3	20.0	99.3
=	0.0	-77.7	20.0	99.3
=	0.0	-77.1	20.0	99.3
=	0.0	-76.6	20.0	99.3
=	0.0	-76.1	20.0	99.3
=	0.0	-75.6	20.0	99.4
=	0.0	-75.1	20.0	99.4
=	0.0	-74.5	20.0	99.4
=	0.0	-73.7	20.0	99.5
=	0.0	-73.1	20.0	99.5
=	0.0	-72.5	20.0	99.5
=	0.0	-71.8	20.0	99.5
=	0.0	-71.2	20.0	99.5
=	0.0	-70.5	20.0	99.5
=	0.0	-69.7	20.0	99.5
=	0.0	-69.0	20.0	99.6
=	0.0	-68.3	20.0	99.6
=	0.0	-67.7	20.0	99.6
=	0.0	-67.0	20.0	99.6
=	0.0	-66.2	20.0	99.7
=	0.0	-65.4	20.0	99.7
=	0.0	-64.7	20.0	99.7
=	0.0	-63.9	20.0	99.7
=	0.0	-63.2	20.0	99.7
=	0.0	-62.4	20.0	99.7
=	0.0	-61.6	20.0	99.7
=	0.0	-60.8	20.0	99.8
=	0.0	-60.1	20.0	99.8
=	0.0	-59.3	20.0	99.8
=	0.0	-58.6	20.0	99.8
=	0.0	-57.8	20.0	99.8
=	0.0	-57.1	20.0	99.9
=	0.0	-56.3	20.0	99.9
=	0.0	-55.6	20.0	99.9
=	0.0	-55.0	20.0	99.9
=	0.0	-54.5	20.0	99.9
=	0.0	-54.0	20.0	99.9
=	0.0	-53.3	20.0	99.9
=	0.0	-52.7	20.0	99.9
=	0.0	-52.2	20.0	99.9
=	0.0	-51.5	20.0	99.9
=	0.0	-51.0	20.0	100.0
=	0.0	-50.5	20.0	100.0
=	0.0	-50.0	20.0	100.0
=	0.0	-49.5	20.0	100.0
=	0.0	-48.8	20.0	100.0
=	0.0	-48.3	20.0	100.0
=	0.0	-47.8	20.0	100.0
=	0.0	-47.3	20.0	100.0
=	0.0	-46.8	20.0	100.1
=	0.0	-46.3	20.0	100.0
=	0.0	-45.8	20.0	100.1
=	0.0	-45.3	20.0	100.1
=	0.0	-44.8	20.0	100.1
=	0.0	-44.3	20.0	100.1
=	0.0	-43.8	20.0	100.1
=	0.0	-43.2	20.0	100.1
=	0.0	-42.8	20.0	100.1
=	0.0	-42.3	20.0	100.1
=	0.0	-41.8	20.0	100.1
=	0.0	-41.3	20.0	100.1
=	0.0	-40.7	20.0	100.1
=	0.0	-40.2	20.0	100.1
=	0.0	-39.7	20.0	100.0
=	0.0	-39.2	20.0	100.0
=	0.0	-38.7	20.0	100.0
=	0.0	-38.0	20.0	100.0
=	0.0	-37.2	20.0	100.0
=	0.0	-36.5	20.0	100.0
=	0.0	-35.7	20.0	100.0
=	0.0	-35.0	20.0	100.1
=	0.0	-34.2	20.0	100.1
=	0.0	-33.4	20.0	100.1
=	0.0	-32.6	20.0	100.1
=	0.0	-31.9	20.0	100.1
=	0.0	-31.1	20.0	100.1
=	0.0	-30.4	20.0	100.1
=	0.0	-29.6	20.0	100.1
=	0.0	-28.9	20.0	100.1
=	0.0	-28.1	20.0	100.1
=	0.0	-27.4	20.0	100.1
=	0.0	-26.6	20.0	100.1
=	0.0	-25.9	20.0	100.1
=	0.0	-24.8	20.0	100.1
=	0.0	-23.8	20.0	100.1
=	0.0	-23.0	20.0	100.1
=	0.0	-22.3	20.0	100.1
=	0.0	-21.3	20.0	100.1
=	0.0	-20.5	20.0	100.1
=	0.0	-19.7	20.0	100.1
=	0.0	-19.0	20.0	100.1
=	0.0	-18.2	20.0	100.1
=	0.0	-17.4	20.0	100.1
=	0.0	-16.6	20.0	100.1
=	0.0	-15.9	20.0	100.1
=	0.0	-15.1	20.0	100.1
=	0.0	-14.4	20.0	100.1
=	0.0	-13.5	20.0	100.1
=	0.0	-12.8	20.0	100.1
=	0.0	-11.7	20.0	100.1
=	0.0	-10.2	20.0	100.0
=	0.0	-9.0	20.0	100.0
=	0.0	-8.1	20.0	100.0
=	0.0	-6.6	20.0	100.0
=	0.0	-5.1	20.0	100.0
=	0.0	-3.6	20.0	100.0
=	0.0	-2.1	20.0	100.0
=	0.0	-0.5	20.0	100.0
=	0.0	0.0	20.0	100.0
=	0.0	1.1	20.0	100.0
=	0.0	2.6	20.0	100.0
=	0.0	4.1	20.0	100.0
=	0.0	5.6	20.0	100.0
=	0.0	7.1	20.0	100.0
=	0.0	8.5	20.0	100.0
=	0.0	9.3	20.0	100.0
=	0.0	10.7	20.0	100.1
=	0.0	12.2	20.0	100.1
=	0.0	13.0	20.0	100.1
=	0.0	13.8	20.0	100.1
=	0.0	14.6	20.0	100.1
=	0.0	15.4	20.0	100.1
=	0.0	16.1	20.0	100.1
=	0.0	16.9	20.0	100.1
=	0.0	17.7	20.0	100.1
=	0.0	18.4	20.0	100.1
=	0.0	19.2	20.0	100.1
=	0.0	20.0	20.0	100.1
=	0.0	20.8	20.0	100.1
=	0.0	21.7	20.0	100.1
=	0.0	22.5	20.0	100.1
=	0.0	23.3	20.0	100.1
=	0.0	24.0	20.0	100.1
=	0.0	25.2	20.0	100.1
=	0.0	26.1	20.0	100.1
=	0.0	26.9	20.0	100.1
=	0.0	27.6	20.0	100.1
=	0.0	28.4	20.0	100.1
=	0.0	29.1	20.0	100.1
=	0.0	29.9	20.0	100.1
=	0.0	30.6	20.0	100.1
=	0.0	31.4	20.0	100.1
=	0.0	32.1	20.0	100.1
=	0.0	32.9	20.0	100.1
=	0.0	33.7	20.0	100.1
=	0.0	34.4	20.0	100.0
=	0.0	35.2	20.0	100.1
=	0.0	35.9	20.0	100.0
=	0.0	36.7	20.0	100.0
=	0.0	37.5	20.0	100.0
=	0.0	38.2	20.0	100.0
=	0.0	38.9	20.0	100.0
=	0.0	39.4	20.0	100.0
=	0.0	39.9	20.0	100.0
=	0.0	40.4	20.0	100.1
=	0.0	40.9	20.0	100.1
=	0.0	41.4	20.0	100.1
=	0.0	41.9	20.0	100.1
=	0.0	42.4	20.0	100.1
=	0.0	42.9	20.0	100.1
=	0.0	43.4	20.0	100.1
=	0.0	43.9	20.0	100.1
=	0.0	44.4	20.0	100.1
=	0.0	44.9	20.0	100.1
=	0.0	45.4	20.0	100.1
=	0.0	45.9	20.0	100.1
=	0.0	46.5	20.0	100.1
=	0.0	47.0	20.0	100.1
=	0.0	47.5	20.0	100.0
=	0.0	48.0	20.0	100.0
=	0.0	48.5	20.0	100.0
=	0.0	49.0	20.0	100.0
=	0.0	49.7	20.0	100.0
=	0.0	50.2	20.0	100.0
=	0.0	50.7	20.0	100.0
=	0.0	51.2	20.0	100.0
=	0.0	51.8	20.0	99.9
=	0.0	52.3	20.0	99.9
=	0.0	52.8	20.0	99.9
=	0.0	53.6	20.0	99.9
=	0.0	54.2	20.0	99.9
=	0.0	54.7	20.0	99.9
=	0.0	55.2	20.0	99.9
=	0.0	55.8	20.0	99.9
=	0.0	56.6	20.0	99.9
=	0.0	57.3	20.0	99.9
=	0.0	58.1	20.0	99.8
=	0.0	58.8	20.0	99.8
=	0.0	59.6	20.0	99.8
=	0.0	60.3	20.0	99.8
=	0.0	61.1	20.0	99.8
=	0.0	61.9	20.0	99.7
=	0.0	62.7	20.0	99.7
=	0.0	63.4	20.0	99.7
=	0.0	64.2	20.0	99.7
=	0.0	64.9	20.0	99.7
=	0.0	65.7	20.0	99.7
=	0.0	66.4	20.0	99.7
=	0.0	67.2	20.0	99.6
=	0.0	67.9	20.0	99.6
=	0.0	68.5	20.0	99.6
=	0.0	69.2	20.0	99.6
=	0.0	70.0	20.0	99.5
=	0.0	70.7	20.0	99.5
=	0.0	71.4	20.0	99.5
=	0.0	72.0	20.0	99.5
=	0.0	72.7	20.0	99.5
=	0.0	73.3	20.0	99.5
=	0.0	74.0	20.0	99.5
=	0.0	74.7	20.0	99.4
=	0.0	75.3	20.0	99.4
=	0.0	75.8	20.0	99.3
=	0.0	76.3	20.0	99.3
=	0.0	76.8	20.0	99.3
=	0.0	77.3	20.0	99.3
=	0.0	78.0	20.0	99.3
=	0.0	78.5	20.0	99.3
=	0.0	79.2	20.0	99.3
=	0.0	79.7	20.0	99.2
=	0.0	80.2	20.0	99.2
=	0.0	80.7	20.0	99.2
=	0.0	81.2	20.0	99.2
=	0.0	81.7	20.0	99.2
=	0.0	82.2	20.0	99.2
=	0.0	82.7	20.0	99.2
=	0.0	83.3	20.0	99.2
=	0.0	83.9	20.0	99.1
=	0.0	84.4	20.0	99.1
=	0.0	84.8	20.0	99.1
=	0.0	85.4	20.0	99.1
=	0.0	85.9	20.0	99.1
=	0.0	86.4	20.0	99.1
=	0.0	86.9	20.0	99.1
=	0.0	87.4	20.0	99.1
=	0.0	87.9	20.0	99.0
=	0.0	88.4	20.0	99.0
=	0.0	88.9	20.0	99.0
=	0.0	89.4	20.0	99.0
=	0.0	90.1	20.0	98.9
=	0.0	90.7	20.0	98.9
=	0.0	91.3	20.0	98.9
=	0.0	91.8	20.0	98.9
=	0.0	92.3	20.0	98.9
=	0.0	92.9	20.0	98.8
=	0.0	93.6	20.0	98.8
=	0.0	94.1	20.0	98.8
=	0.0	94.6	20.0	98.8
=	0.0	95.2	20.0	98.7
=	0.0	95.9	20.0	98.7
=	0.0	96.7	20.0	98.7
=	0.0	97.4	20.0	98.7
=	0.0	98.2	20.0	98.6
=	0.0	98.9	20.0	98.6
=	0.0	99.7	20.0	98.6
=	0.0	100.4	20.0	98.5
=	0.0	101.2	20.0	98.5
=	0.0	101.9	20.0	98.5
=	0.0	102.7	20.0	98.4
=	0.0	103.3	20.0	98.4
=	0.0	103.8	20.0	98.4
=	0.0	104.4	20.0	98.4
=	0.0	105.0	20.0	98.4
=	0.0	105.5	20.0	98.4
=	0.0	106.2	20.0	98.3
=	0.0	106.7	20.0	98.3
=	0.0	107.2	20.0	98.3
=	0.0	108.0	20.0	98.2
=	0.0	108.8	20.0	98.2
=	0.0	109.5	20.0	98.1
=	0.0	110.3	20.0	98.1
=	0.0	111.0	20.0	98.1
=	0.0	111.8	20.0	98.0
=	0.0	113.0	20.0	98.0
=	0.0	113.8	20.0	97.9
=	0.0	115.2	20.0	97.8
=	0.0	116.5	20.0	97.8
=	0.0	117.7	20.0	97.7
=	0.0	119.2	20.0	97.6
=	0.0	120.4	20.0	97.6
=	0.0	121.1	20.0	97.5
=	0.0	121.9	20.0	97.5
=	0.0	122.6	20.0	97.5
=	0.0	123.4	20.0	97.4
=	0.0	124.3	20.0	97.4
=	0.0	125.2	20.0	97.3
=	0.0	126.0	20.0	97.3
=	0.0	126.7	20.0	97.2
=	0.0	127.5	20.0	97.2
=	0.0	128.2	20.0	97.1
=	0.0	129.0	20.0	97.1
=	0.0	129.7	20.0	97.0
=	0.0	130.5	20.0	97.0
=	0.0	131.2	20.0	96.9
=	0.0	132.0	20.0	96.9
=	0.0	132.8	20.0	96.9
=	0.0	133.5	20.0	96.8
=	0.0	134.3	20.0	96.8
=	0.0	135.1	20.0	96.7
=	0.0	135.8	20.0	96.7
=	0.0	136.6	20.0	96.6
=	0.0	137.3	20.0	96.6
=	0.0	138.1	20.0	96.5
=	0.0	138.8	20.0	96.5
=	0.0	139.6	20.0	96.4
=	0.0	140.3	20.0	96.4
=	0.0	141.1	20.0	96.4
=	0.0	141.8	20.0	96.3
=	0.0	142.6	20.0	96.3
=	0.0	143.3	20.0	96.2
=	0.0	144.1	20.0	96.1
=	0.0	144.8	20.0	96.1
=	0.0	145.6	20.0	96.0
=	0.0	146.3	20.0	96.0
=	0.0	147.1	20.0	96.0
=	0.0	147.9	20.0	95.9
=	0.0	148.7	20.0	95.8
=	0.0	149.4	20.0	95.8
=	0.0	150.2	20.0	95.7
=	0.0	150.9	20.0	95.7
=	0.0	151.7	20.0	95.6
=	0.0	152.4	20.0	95.5
=	0.0	153.2	20.0	95.5
=	0.0	153.9	20.0	95.4
=	0.0	154.5	20.0	95.3
=	0.0	155.1	20.0	95.3
=	0.0	155.7	20.0	95.3
=	0.0	156.4	20.0	95.2
=	0.0	156.9	20.0	95.2
=	0.0	157.4	20.0	95.1
=	0.0	157.9	20.0	95.1
=	0.0	158.4	20.0	95.1
=	0.0	158.9	20.0	95.0
=	0.0	159.4	20.0	94.9
=	0.0	159.9	20.0	94.9
=	0.0	160.4	20.0	94.8
=	0.0	160.9	20.0	94.8
=	0.0	161.4	20.0	94.8
=	0.0	161.9	20.0	94.7
=	0.0	162.4	20.0	94.7
=	0.0	163.0	20.0	94.7
=	0.0	163.6	20.0	94.6
=	0.0	164.2	20.0	94.5
=	0.0	165.0	20.0	94.4
=	0.0	165.7	20.0	94.4
=	0.0	166.4	20.0	94.4
=	0.0	167.2	20.0	94.3
=	0.0	168.0	20.0	94.3
=	0.0	168.7	20.0	94.2
=	0.0	169.5	20.0	94.1
=	0.0	170.2	20.0	94.0
=	0.0	171.0	20.0	94.0
=	0.0	171.7	20.0	93.9
=	0.0	172.5	20.0	93.8
=	0.0	173.2	20.0	93.8
=	0.0	174.0	20.0	93.7
=	0.0	174.8	20.0	93.6
=	0.0	175.6	20.0	93.5
=	0.0	176.3	20.0	93.4
=	0.0	177.1	20.0	93.3
=	0.0	177.8	20.0	93.2
=	0.0	178.6	20.0	93.1
=	0.0	179.3	20.0	93.0
=	0.0	180.1	20.0	92.9
=	0.0	180.8	20.0	92.9
=	0.0	181.6	20.0	92.7
=	0.0	182.3	20.0	92.7
=	0.0	183.5	20.0	92.5
=	0.0	184.5	20.0	92.3
=	0.0	186.1	20.0	92.0
=	0.0	187.5	20.0	91.8
=	0.0	188.6	20.0	91.5
=	0.0	189.9	20.0	91.3
=	0.0	191.1	20.0	90.8
=	0.0	192.4	20.0	90.5
=	0.0	193.2	20.0	90.1
=	0.0	194.1	20.0	89.6
=	0.0	194.9	20.0	89.0
=	0.0	195.7	20.0	88.3
=	0.0	196.4	20.0	87.4
=	0.0	197.2	20.0	86.0
=	0.0	198.2	20.0	83.8
=	0.0	198.9	20.0	81.4
=	0.0	199.7	20.0	78.1
=	0.0	200.4	20.0	74.1
=	0.0	201.2	20.0	68.8
=	0.0	201.9	20.0	63.6
=	0.0	202.7	20.0	57.3
=	0.0	203.4	20.0	51.2
=	0.0	204.2	20.0	44.4
=	0.0	204.9	20.0	38.6
=	0.0	205.9	20.0	31.4
=	0.0	207.1	20.0	24.4
=	0.0	208.1	20.0	20.1
=	0.0	209.0	20.0	17.3
=	0.0	209.8	20.0	15.3
=	0.0	210.5	20.0	14.0
=	0.0	211.3	20.0	12.9
=	0.0	212.0	20.0	12.2
=	0.0	212.8	20.0	11.5
=	0.0	213.7	20.0	11.0
=	0.0	214.8	20.0	10.5
=	0.0	215.8	20.0	10.2
=	0.0	217.0	20.0	9.9
=	0.0	217.8	20.0	9.7
=	0.0	218.5	20.0	9.6
=	0.0	219.3	20.0	9.5
=	0.0	220.0	20.0	9.3
=	0.0	220.8	20.0	9.2
=	0.0	221.5	20.0	9.2
=	0.0	222.3	20.0	9.1
=	0.0	223.0	20.0	8.9
=	0.0	223.8	20.0	8.8
=	0.0	224.6	20.0	8.7
=	0.0	225.3	20.0	8.6
=	0.0	226.1	20.0	8.6
=	0.0	226.8	20.0	8.5
=	0.0	227.6	20.0	8.4
=	0.0	228.3	20.0	8.3
=	0.0	229.1	20.0	8.2
=	0.0	229.8	20.0	8.2
=	0.0	230.6	20.0	8.1
=	0.0	231.3	20.0	8.0
=	0.0	232.1	20.0	8.0
=	0.0	232.8	20.0	7.9
=	0.0	233.6	20.0	7.8
=	0.0	234.4	20.0	7.8
=	0.0	235.1	20.0	7.7
=	0.0	235.9	20.0	7.7
=	0.0	236.6	20.0	7.7
=	0.0	237.4	20.0	7.7
=	0.0	238.1	20.0	7.6
=	0.0	238.9	20.0	7.6
=	0.0	239.6	20.0	7.6
=	0.0	240.4	20.0	7.5
=	0.0	241.1	20.0	7.5
=	0.0	241.9	20.0	7.5
=	0.0	242.6	20.0	7.5
=	0.0	243.4	20.0	7.4
=	0.0	244.1	20.0	7.4
=	0.0	244.9	20.0	7.3
=	0.0	245.5	20.0	7.3
=	0.0	246.1	20.0	7.3
=	0.0	246.9	20.0	7.3
=	0.0	247.7	20.0	7.3
=	0.0	248.4	20.0	7.2
=	0.0	249.1	20.0	7.2
=	0.0	249.9	20.0	7.1
=	0.0	250.7	20.0	7.1
=	0.0	251.4	20.0	7.1
=	0.0	252.2	20.0	7.0
=	0.0	252.9	20.0	7.0
=	0.0	253.7	20.0	6.9
=	0.0	254.4	20.0	6.9
=	0.0	255.2	20.0	6.9
=	0.0	255.7	20.0	6.9
=	0.0	256.3	20.0	6.8
=	0.0	257.0	20.0	6.8
=	0.0	257.7	20.0	6.8
=	0.0	258.4	20.0	6.7
=	0.0	259.0	20.0	6.7
=	0.0	259.7	20.0	6.7
=	0.0	260.5	20.0	6.6
=	0.0	261.2	20.0	6.6
=	0.0	262.0	20.0	6.6
=	0.0	262.8	20.0	6.5
=	0.0	263.5	20.0	6.5
=	0.0	264.3	20.0	6.5
=	0.0	265.8	20.0	6.4
=	0.0	267.3	20.0	6.3
=	0.0	268.8	20.0	6.3
=	0.0	270.3	20.0	6.2
=	0.0	271.4	20.0	6.2
=	0.0	272.3	20.0	6.1
=	0.0	273.3	20.0	6.1
:EOM # End of Measurement
#
# RFA300 ASCII Measurement Dump ( BDS format )
#
# Measurement number 	2
#
%VNR 1.0
%MOD 	RAT
%TYP 	SCN
%SCN 	PRO
%FLD 	ION
%DAT 	02-03-2012
%TIM 	12:00:00
%FSZ 	400	150
%BMT 	PHO	   8.0
%SSD 	1000
%BUP 	0
%BRD 	1000
%FSH 	1
%ASC 	0
%WEG 	60
%GPO 	0
%CPO 	0
%MEA 	6
%PRD 	50,0
%PTS 	800
%STS 	    0.0	  -283.2	   50.0 # Start Scan values in mm ( X , Y , Z )
%EDS 	    0.0	   282.9	   50.0 # End Scan values in mm ( X , Y , Z )
#
#	  X      Y      Z     Dose
#
=	0.0	-283.2	50.0	5.9
=	0.0	-282.2	50.0	5.9
=	0.0	-281.4	50.0	6.0
=	0.0	-280.7	50.0	6.0
=	0.0	-279.9	50.0	6.0
=	0.0	-278.8	50.0	6.1
=	0.0	-278.0	50.0	6.1
=	0.0	-277.0	50.0	6.2
=	0.0	-276.2	50.0	6.2
=	0.0	-275.5	50.0	6.3
=	0.0	-274.7	50.0	6.3
=	0.0	-274.2	50.0	6.3
=	0.0	-273.5	50.0	6.3
=	0.0	-272.8	50.0	6.4
=	0.0	-272.0	50.0	6.4
=	0.0	-271.3	50.0	6.4
=	0.0	-270.5	50.0	6.5
=	0.0	-269.8	50.0	6.5
=	0.0	-269.0	50.0	6.6
=	0.0	-268.3	50.0	6.6
=	0.0	-267.5	50.0	6.6
=	0.0	-266.7	50.0	6.7
=	0.0	-266.2	50.0	6.7
=	0.0	-265.7	50.0	6.7
=	0.0	-265.2	50.0	6.8
=	0.0	-264.5	50.0	6.8
=	0.0	-263.9	50.0	6.8
=	0.0	-263.2	50.0	6.8
=	0.0	-262.7	50.0	6.9
=	0.0	-262.2	50.0	6.9
=	0.0	-261.4	50.0	6.9
=	0.0	-260.7	50.0	7.0
=	0.0	-260.2	50.0	7.0
=	0.0	-259.7	50.0	7.1
=	0.0	-259.1	50.0	7.1
=	0.0	-258.3	50.0	7.1
=	0.0	-257.6	50.0	7.2
=	0.0	-256.9	50.0	7.2
=	0.0	-256.2	50.0	7.3
=	0.0	-255.6	50.0	7.3
=	0.0	-254.8	50.0	7.3
=	0.0	-254.2	50.0	7.4
=	0.0	-253.4	50.0	7.4
=	0.0	-252.8	50.0	7.4
=	0.0	-252.1	50.0	7.5
=	0.0	-251.6	50.0	7.5
=	0.0	-250.9	50.0	7.5
=	0.0	-250.2	50.0	7.6
=	0.0	-249.5	50.0	7.6
=	0.0	-248.7	50.0	7.6
=	0.0	-248.0	50.0	7.7
=	0.0	-247.2	50.0	7.7
=	0.0	-246.4	50.0	7.8
=	0.0	-245.7	50.0	7.8
=	0.0	-244.9	50.0	7.9
=	0.0	-244.2	50.0	7.9
=	0.0	-243.4	50.0	8.0
=	0.0	-242.6	50.0	8.0
=	0.0	-241.9	50.0	8.1
=	0.0	-241.1	50.0	8.1
=	0.0	-240.4	50.0	8.2
=	0.0	-239.6	50.0	8.3
=	0.0	-239.1	50.0	8.3
=	0.0	-238.6	50.0	8.3
=	0.0	-237.9	50.0	8.4
=	0.0	-237.2	50.0	8.5
=	0.0	-236.4	50.0	8.6
=	0.0	-235.6	50.0	8.7
=	0.0	-234.9	50.0	8.8
=	0.0	-234.1	50.0	8.8
=	0.0	-233.4	50.0	9.0
=	0.0	-232.6	50.0	9.1
=	0.0	-231.9	50.0	9.2
=	0.0	-231.1	50.0	9.3
=	0.0	-230.3	50.0	9.4
=	0.0	-229.6	50.0	9.6
=	0.0	-229.0	50.0	9.6
=	0.0	-228.5	50.0	9.7
=	0.0	-228.1	50.0	9.8
=	0.0	-227.3	50.0	9.9
=	0.0	-226.6	50.0	10.1
=	0.0	-225.8	50.0	10.2
=	0.0	-225.2	50.0	10.4
=	0.0	-224.6	50.0	10.5
=	0.0	-224.0	50.0	10.6
=	0.0	-223.5	50.0	10.8
=	0.0	-223.0	50.0	10.9
=	0.0	-222.3	50.0	11.1
=	0.0	-221.8	50.0	11.2
=	0.0	-221.4	50.0	11.4
=	0.0	-220.8	50.0	11.6
=	0.0	-220.0	50.0	12.0
=	0.0	-219.5	50.0	12.3
=	0.0	-219.0	50.0	12.6
=	0.0	-218.5	50.0	13.0
=	0.0	-217.9	50.0	13.5
=	0.0	-217.3	50.0	14.1
=	0.0	-216.8	50.0	14.8
=	0.0	-216.0	50.0	16.0
=	0.0	-215.3	50.0	17.6
=	0.0	-214.8	50.0	18.9
=	0.0	-214.3	50.0	20.7
=	0.0	-213.5	50.0	23.6
=	0.0	-212.8	50.0	27.0
=	0.0	-212.3	50.0	29.6
=	0.0	-211.8	50.0	32.9
=	0.0	-211.0	50.0	38.0
=	0.0	-210.2	50.0	43.5
=	0.0	-209.5	50.0	49.2
=	0.0	-208.7	50.0	55.1
=	0.0	-208.0	50.0	61.0
=	0.0	-207.2	50.0	66.1
=	0.0	-206.5	50.0	70.6
=	0.0	-205.7	50.0	74.8
=	0.0	-205.0	50.0	78.0
=	0.0	-204.4	50.0	80.0
=	0.0	-203.7	50.0	81.9
=	0.0	-203.2	50.0	83.1
=	0.0	-202.5	50.0	84.4
=	0.0	-201.9	50.0	85.1
=	0.0	-201.4	50.0	85.6
=	0.0	-200.9	50.0	86.1
=	0.0	-200.2	50.0	86.6
=	0.0	-199.5	50.0	87.3
=	0.0	-198.7	50.0	87.7
=	0.0	-198.1	50.0	88.0
=	0.0	-197.5	50.0	88.2
=	0.0	-196.7	50.0	88.6
=	0.0	-195.9	50.0	88.9
=	0.0	-195.2	50.0	89.2
=	0.0	-194.4	50.0	89.4
=	0.0	-193.7	50.0	89.7
=	0.0	-192.9	50.0	89.9
=	0.0	-192.3	50.0	90.0
=	0.0	-191.7	50.0	90.1
=	0.0	-190.9	50.0	90.2
=	0.0	-190.2	50.0	90.3
=	0.0	-189.4	50.0	90.6
=	0.0	-188.7	50.0	90.8
=	0.0	-187.9	50.0	90.9
=	0.0	-187.1	50.0	91.0
=	0.0	-186.4	50.0	91.1
=	0.0	-185.6	50.0	91.3
=	0.0	-184.9	50.0	91.3
=	0.0	-184.1	50.0	91.4
=	0.0	-183.4	50.0	91.6
=	0.0	-182.6	50.0	91.7
=	0.0	-181.8	50.0	91.8
=	0.0	-181.1	50.0	91.9
=	0.0	-180.3	50.0	92.0
=	0.0	-179.6	50.0	92.1
=	0.0	-178.8	50.0	92.2
=	0.0	-178.1	50.0	92.3
=	0.0	-177.3	50.0	92.5
=	0.0	-176.6	50.0	92.6
=	0.0	-175.8	50.0	92.6
=	0.0	-175.1	50.0	92.7
=	0.0	-174.4	50.0	92.8
=	0.0	-173.8	50.0	92.8
=	0.0	-173.0	50.0	92.9
=	0.0	-172.3	50.0	93.0
=	0.0	-171.5	50.0	93.1
=	0.0	-170.8	50.0	93.2
=	0.0	-170.0	50.0	93.3
=	0.0	-169.3	50.0	93.4
=	0.0	-168.5	50.0	93.5
=	0.0	-167.8	50.0	93.6
=	0.0	-166.9	50.0	93.6
=	0.0	-166.2	50.0	93.6
=	0.0	-165.4	50.0	93.7
=	0.0	-164.6	50.0	93.8
=	0.0	-163.4	50.0	94.0
=	0.0	-162.1	50.0	94.1
=	0.0	-160.5	50.0	94.2
=	0.0	-159.2	50.0	94.3
=	0.0	-158.3	50.0	94.4
=	0.0	-157.4	50.0	94.4
=	0.0	-156.7	50.0	94.5
=	0.0	-155.9	50.0	94.6
=	0.0	-155.2	50.0	94.6
=	0.0	-154.4	50.0	94.7
=	0.0	-153.7	50.0	94.8
=	0.0	-152.9	50.0	94.9
=	0.0	-152.1	50.0	94.9
=	0.0	-151.3	50.0	95.0
=	0.0	-150.6	50.0	95.0
=	0.0	-149.8	50.0	95.1
=	0.0	-148.8	50.0	95.1
=	0.0	-148.1	50.0	95.2
=	0.0	-146.9	50.0	95.3
=	0.0	-145.5	50.0	95.5
=	0.0	-144.7	50.0	95.5
=	0.0	-144.0	50.0	95.6
=	0.0	-143.2	50.0	95.7
=	0.0	-142.3	50.0	95.7
=	0.0	-141.5	50.0	95.8
=	0.0	-140.7	50.0	95.8
=	0.0	-140.0	50.0	95.8
=	0.0	-139.0	50.0	95.9
=	0.0	-138.2	50.0	95.9
=	0.0	-137.4	50.0	96.0
=	0.0	-136.6	50.0	96.1
=	0.0	-135.9	50.0	96.1
=	0.0	-135.4	50.0	96.2
=	0.0	-134.8	50.0	96.2
=	0.0	-134.1	50.0	96.2
=	0.0	-133.3	50.0	96.3
=	0.0	-132.7	50.0	96.3
=	0.0	-132.1	50.0	96.3
=	0.0	-131.3	50.0	96.4
=	0.0	-130.8	50.0	96.4
=	0.0	-130.3	50.0	96.5
=	0.0	-129.8	50.0	96.5
=	0.0	-129.3	50.0	96.5
=	0.0	-128.8	50.0	96.6
=	0.0	-128.3	50.0	96.6
=	0.0	-127.8	50.0	96.6
=	0.0	-127.3	50.0	96.7
=	0.0	-126.8	50.0	96.7
=	0.0	-126.2	50.0	96.7
=	0.0	-125.6	50.0	96.8
=	0.0	-125.0	50.0	96.8
=	0.0	-124.5	50.0	96.8
=	0.0	-123.8	50.0	96.9
=	0.0	-123.3	50.0	96.9
=	0.0	-122.8	50.0	96.9
=	0.0	-122.3	50.0	96.9
=	0.0	-121.8	50.0	96.9
=	0.0	-121.0	50.0	97.0
=	0.0	-120.3	50.0	97.1
=	0.0	-119.6	50.0	97.1
=	0.0	-119.1	50.0	97.1
=	0.0	-118.6	50.0	97.1
=	0.0	-118.1	50.0	97.1
=	0.0	-117.6	50.0	97.2
=	0.0	-117.1	50.0	97.2
=	0.0	-116.5	50.0	97.2
=	0.0	-115.9	50.0	97.3
=	0.0	-115.4	50.0	97.3
=	0.0	-114.9	50.0	97.3
=	0.0	-114.4	50.0	97.4
=	0.0	-113.9	50.0	97.4
=	0.0	-113.4	50.0	97.4
=	0.0	-112.9	50.0	97.4
=	0.0	-112.4	50.0	97.4
=	0.0	-111.9	50.0	97.5
=	0.0	-111.4	50.0	97.5
=	0.0	-110.9	50.0	97.5
=	0.0	-110.3	50.0	97.5
=	0.0	-109.8	50.0	97.5
=	0.0	-109.4	50.0	97.6
=	0.0	-108.8	50.0	97.6
=	0.0	-108.3	50.0	97.7
=	0.0	-107.8	50.0	97.7
=	0.0	-107.2	50.0	97.7
=	0.0	-106.5	50.0	97.8
=	0.0	-106.0	50.0	97.8
=	0.0	-105.5	50.0	97.8
=	0.0	-104.9	50.0	97.8
=	0.0	-104.2	50.0	97.9
=	0.0	-103.4	50.0	97.9
=	0.0	-102.9	50.0	97.9
=	0.0	-102.4	50.0	98.0
=	0.0	-101.9	50.0	98.0
=	0.0	-101.4	50.0	98.1
=	0.0	-100.7	50.0	98.1
=	0.0	-99.9	50.0	98.1
=	0.0	-99.1	50.0	98.1
=	0.0	-98.4	50.0	98.2
=	0.0	-97.6	50.0	98.2
=	0.0	-96.9	50.0	98.2
=	0.0	-96.1	50.0	98.3
=	0.0	-95.4	50.0	98.3
=	0.0	-94.6	50.0	98.3
=	0.0	-93.8	50.0	98.3
=	0.0	-93.1	50.0	98.4
=	0.0	-92.3	50.0	98.5
=	0.0	-91.6	50.0	98.5
=	0.0	-90.8	50.0	98.5
=	0.0	-90.1	50.0	98.5
=	0.0	-89.3	50.0	98.6
=	0.0	-88.6	50.0	98.6
=	0.0	-87.8	50.0	98.6
=	0.0	-87.1	50.0	98.7
=	0.0	-86.5	50.0	98.7
=	0.0	-85.8	50.0	98.7
=	0.0	-85.0	50.0	98.8
=	0.0	-84.4	50.0	98.8
=	0.0	-83.9	50.0	98.8
=	0.0	-83.4	50.0	98.8
=	0.0	-82.9	50.0	98.8
=	0.0	-82.4	50.0	98.9
=	0.0	-81.8	50.0	98.9
=	0.0	-81.2	50.0	98.9
=	0.0	-80.7	50.0	98.9
=	0.0	-80.2	50.0	98.9
=	0.0	-79.7	50.0	98.9
=	0.0	-79.2	50.0	98.9
=	0.0	-78.7	50.0	98.9
=	0.0	-78.2	50.0	99.0
=	0.0	-77.7	50.0	99.0
=	0.0	-77.2	50.0	99.0
=	0.0	-76.7	50.0	99.0
=	0.0	-76.2	50.0	99.1
=	0.0	-75.7	50.0	99.1
=	0.0	-75.2	50.0	99.1
=	0.0	-74.5	50.0	99.1
=	0.0	-73.8	50.0	99.2
=	0.0	-73.3	50.0	99.2
=	0.0	-72.8	50.0	99.2
=	0.0	-72.1	50.0	99.2
=	0.0	-71.6	50.0	99.2
=	0.0	-71.1	50.0	99.3
=	0.0	-70.6	50.0	99.3
=	0.0	-70.0	50.0	99.3
=	0.0	-69.2	50.0	99.3
=	0.0	-68.4	50.0	99.3
=	0.0	-67.7	50.0	99.3
=	0.0	-66.9	50.0	99.3
=	0.0	-66.2	50.0	99.4
=	0.0	-65.6	50.0	99.4
=	0.0	-64.9	50.0	99.4
=	0.0	-64.2	50.0	99.4
=	0.0	-63.4	50.0	99.4
=	0.0	-62.5	50.0	99.5
=	0.0	-61.6	50.0	99.6
=	0.0	-60.9	50.0	99.6
=	0.0	-60.1	50.0	99.6
=	0.0	-59.3	50.0	99.6
=	0.0	-58.6	50.0	99.7
=	0.0	-57.8	50.0	99.7
=	0.0	-57.1	50.0	99.7
=	0.0	-56.1	50.0	99.7
=	0.0	-55.3	50.0	99.7
=	0.0	-54.4	50.0	99.7
=	0.0	-53.1	50.0	99.7
=	0.0	-52.3	50.0	99.7
=	0.0	-51.6	50.0	99.7
=	0.0	-50.7	50.0	99.8
=	0.0	-50.0	50.0	99.8
=	0.0	-49.2	50.0	99.8
=	0.0	-48.5	50.0	99.8
=	0.0	-47.7	50.0	99.9
=	0.0	-47.0	50.0	99.9
=	0.0	-46.2	50.0	99.9
=	0.0	-45.5	50.0	99.9
=	0.0	-44.7	50.0	99.9
=	0.0	-43.9	50.0	99.9
=	0.0	-43.1	50.0	99.9
=	0.0	-42.4	50.0	99.9
=	0.0	-41.6	50.0	99.9
=	0.0	-40.8	50.0	99.9
=	0.0	-40.1	50.0	100.0
=	0.0	-39.3	50.0	100.0
=	0.0	-38.6	50.0	100.0
=	0.0	-37.8	50.0	100.0
=	0.0	-37.0	50.0	100.0
=	0.0	-36.3	50.0	100.0
=	0.0	-35.4	50.0	100.0
=	0.0	-34.5	50.0	100.0
=	0.0	-33.4	50.0	100.0
=	0.0	-32.3	50.0	100.0
=	0.0	-30.8	50.0	100.0
=	0.0	-29.3	50.0	100.0
=	0.0	-27.8	50.0	100.0
=	0.0	-26.2	50.0	100.0
=	0.0	-24.7	50.0	100.0
=	0.0	-23.7	50.0	100.0
=	0.0	-22.2	50.0	100.0
=	0.0	-21.2	50.0	100.0
=	0.0	-20.3	50.0	100.0
=	0.0	-19.3	50.0	100.0
=	0.0	-18.3	50.0	100.0
=	0.0	-17.5	50.0	100.0
=	0.0	-16.8	50.0	100.1
=	0.0	-15.8	50.0	100.1
=	0.0	-14.9	50.0	100.1
=	0.0	-14.4	50.0	100.1
=	0.0	-13.9	50.0	100.1
=	0.0	-13.4	50.0	100.1
=	0.0	-12.9	50.0	100.1
=	0.0	-12.3	50.0	100.1
=	0.0	-11.8	50.0	100.1
=	0.0	-11.3	50.0	100.1
=	0.0	-10.8	50.0	100.0
=	0.0	-10.3	50.0	100.0
=	0.0	-9.8	50.0	100.0
=	0.0	-9.0	50.0	100.0
=	0.0	-8.2	50.0	100.0
=	0.0	-7.6	50.0	100.0
=	0.0	-6.9	50.0	100.0
=	0.0	-6.2	50.0	100.0
=	0.0	-5.4	50.0	100.0
=	0.0	-4.7	50.0	100.0
=	0.0	-3.9	50.0	100.0
=	0.0	-3.2	50.0	100.0
=	0.0	-2.4	50.0	100.0
=	0.0	-1.7	50.0	100.0
=	0.0	-0.9	50.0	100.0
=	0.0	-0.1	50.0	100.0
=	0.0	0.0	50.0	100.0
=	0.0	0.6	50.0	100.0
=	0.0	1.4	50.0	100.0
=	0.0	2.2	50.0	100.0
=	0.0	2.9	50.0	100.0
=	0.0	3.7	50.0	100.0
=	0.0	4.4	50.0	100.0
=	0.0	5.2	50.0	100.0
=	0.0	5.9	50.0	100.0
=	0.0	6.7	50.0	100.0
=	0.0	7.4	50.0	100.0
=	0.0	8.0	50.0	100.0
=	0.0	8.7	50.0	100.0
=	0.0	9.5	50.0	100.0
=	0.0	10.2	50.0	100.0
=	0.0	10.7	50.0	100.0
=	0.0	11.2	50.0	100.0
=	0.0	11.7	50.0	100.1
=	0.0	12.2	50.0	100.1
=	0.0	12.7	50.0	100.1
=	0.0	13.2	50.0	100.1
=	0.0	13.7	50.0	100.1
=	0.0	14.2	50.0	100.1
=	0.0	14.7	50.0	100.1
=	0.0	15.5	50.0	100.1
=	0.0	16.5	50.0	100.1
=	0.0	17.3	50.0	100.1
=	0.0	18.0	50.0	100.0
=	0.0	19.0	50.0	100.0
=	0.0	20.0	50.0	100.0
=	0.0	20.8	50.0	100.0
=	0.0	21.8	50.0	100.0
=	0.0	23.2	50.0	100.0
=	0.0	24.4	50.0	100.0
=	0.0	25.7	50.0	100.0
=	0.0	27.3	50.0	100.0
=	0.0	28.8	50.0	100.0
=	0.0	30.3	50.0	100.0
=	0.0	31.9	50.0	100.0
=	0.0	33.0	50.0	100.0
=	0.0	34.2	50.0	100.0
=	0.0	35.0	50.0	100.0
=	0.0	36.0	50.0	100.0
=	0.0	36.8	50.0	100.0
=	0.0	37.6	50.0	100.0
=	0.0	38.3	50.0	100.0
=	0.0	39.1	50.0	100.0
=	0.0	39.8	50.0	100.0
=	0.0	40.6	50.0	99.9
=	0.0	41.4	50.0	99.9
=	0.0	42.1	50.0	99.9
=	0.0	42.9	50.0	99.9
=	0.0	43.7	50.0	99.9
=	0.0	44.4	50.0	99.9
=	0.0	45.2	50.0	99.9
=	0.0	46.0	50.0	99.9
=	0.0	46.7	50.0	99.9
=	0.0	47.5	50.0	99.9
=	0.0	48.2	50.0	99.8
=	0.0	49.0	50.0	99.8
=	0.0	49.7	50.0	99.8
=	0.0	50.5	50.0	99.8
=	0.0	51.3	50.0	99.7
=	0.0	52.1	50.0	99.7
=	0.0	52.8	50.0	99.7
=	0.0	54.0	50.0	99.7
=	0.0	55.1	50.0	99.7
=	0.0	55.8	50.0	99.7
=	0.0	56.8	50.0	99.7
=	0.0	57.6	50.0	99.7
=	0.0	58.3	50.0	99.7
=	0.0	59.1	50.0	99.7
=	0.0	59.8	50.0	99.6
=	0.0	60.6	50.0	99.6
=	0.0	61.4	50.0	99.6
=	0.0	62.2	50.0	99.5
=	0.0	63.2	50.0	99.5
=	0.0	63.9	50.0	99.4
=	0.0	64.7	50.0	99.4
=	0.0	65.4	50.0	99.4
=	0.0	65.9	50.0	99.4
=	0.0	66.7	50.0	99.3
=	0.0	67.4	50.0	99.3
=	0.0	68.2	50.0	99.3
=	0.0	68.9	50.0	99.3
=	0.0	69.7	50.0	99.3
=	0.0	70.4	50.0	99.3
=	0.0	71.0	50.0	99.3
=	0.0	71.5	50.0	99.2
=	0.0	72.0	50.0	99.2
=	0.0	72.5	50.0	99.2
=	0.0	73.1	50.0	99.2
=	0.0	73.6	50.0	99.2
=	0.0	74.2	50.0	99.2
=	0.0	75.0	50.0	99.1
=	0.0	75.5	50.0	99.1
=	0.0	76.0	50.0	99.1
=	0.0	76.5	50.0	99.0
=	0.0	77.0	50.0	99.0
=	0.0	77.5	50.0	99.0
=	0.0	78.0	50.0	99.0
=	0.0	78.5	50.0	98.9
=	0.0	79.0	50.0	98.9
=	0.0	79.6	50.0	98.9
=	0.0	80.1	50.0	98.9
=	0.0	80.6	50.0	98.9
=	0.0	81.1	50.0	98.9
=	0.0	81.6	50.0	98.9
=	0.0	82.2	50.0	98.9
=	0.0	82.7	50.0	98.9
=	0.0	83.2	50.0	98.8
=	0.0	83.7	50.0	98.8
=	0.0	84.2	50.0	98.8
=	0.0	84.8	50.0	98.8
=	0.0	85.5	50.0	98.8
=	0.0	86.3	50.0	98.7
=	0.0	86.9	50.0	98.7
=	0.0	87.5	50.0	98.6
=	0.0	88.3	50.0	98.6
=	0.0	89.1	50.0	98.6
=	0.0	89.8	50.0	98.5
=	0.0	90.6	50.0	98.5
=	0.0	91.3	50.0	98.5
=	0.0	92.1	50.0	98.5
=	0.0	92.8	50.0	98.4
=	0.0	93.6	50.0	98.4
=	0.0	94.3	50.0	98.3
=	0.0	95.1	50.0	98.3
=	0.0	95.9	50.0	98.3
=	0.0	96.6	50.0	98.2
=	0.0	97.4	50.0	98.2
=	0.0	98.1	50.0	98.2
=	0.0	98.9	50.0	98.1
=	0.0	99.7	50.0	98.1
=	0.0	100.4	50.0	98.1
=	0.0	101.2	50.0	98.1
=	0.0	101.8	50.0	98.1
=	0.0	102.3	50.0	98.0
=	0.0	102.8	50.0	97.9
=	0.0	103.3	50.0	97.9
=	0.0	103.9	50.0	97.9
=	0.0	104.7	50.0	97.8
=	0.0	105.3	50.0	97.8
=	0.0	105.8	50.0	97.8
=	0.0	106.3	50.0	97.8
=	0.0	107.0	50.0	97.8
=	0.0	107.7	50.0	97.7
=	0.0	108.2	50.0	97.7
=	0.0	108.7	50.0	97.6
=	0.0	109.2	50.0	97.6
=	0.0	109.7	50.0	97.6
=	0.0	110.2	50.0	97.5
=	0.0	110.7	50.0	97.5
=	0.0	111.2	50.0	97.5
=	0.0	111.7	50.0	97.5
=	0.0	112.2	50.0	97.4
=	0.0	112.7	50.0	97.4
=	0.0	113.2	50.0	97.4
=	0.0	113.7	50.0	97.4
=	0.0	114.2	50.0	97.4
=	0.0	114.7	50.0	97.3
=	0.0	115.2	50.0	97.3
=	0.0	115.7	50.0	97.3
=	0.0	116.3	50.0	97.2
=	0.0	116.9	50.0	97.2
=	0.0	117.4	50.0	97.2
=	0.0	117.9	50.0	97.1
=	0.0	118.4	50.0	97.1
=	0.0	118.9	50.0	97.1
=	0.0	119.4	50.0	97.1
=	0.0	120.0	50.0	97.1
=	0.0	120.8	50.0	97.0
=	0.0	121.5	50.0	97.0
=	0.0	122.1	50.0	96.9
=	0.0	122.6	50.0	96.9
=	0.0	123.1	50.0	96.9
=	0.0	123.6	50.0	96.9
