:MSR 	5	 # No. of measurement in file
:SYS BDS 0   # Beam Data Scanner System
#
# RFA300 ASCII Measurement Dump ( BDS format )
#
# Measurement number 	1
#
%VNR 1.0
%MOD 	RAT
%TYP 	SCN
%SCN 	PRO
%FLD 	ION
%DAT 	02-03-2012
%TIM 	12:00:00
%FSZ 	400	150
%BMT 	PHO	   8.0
%SSD 	1000
%BUP 	0
%BRD 	1000
%FSH 	1
%ASC 	0
%WEG 	60
%GPO 	0
%CPO 	0
%MEA 	6
%PRD 	20,0
%PTS 	732
%STS 	    -273.8	  0.0	   20.0 # Start Scan values in mm ( X , Y , Z )
%EDS 	    273.3	   0.0	   20.0 # End Scan values in mm ( X , Y , Z )
#
#	  X      Y      Z     Dose
#
=	-273.8	0.0	20.0	6.1
=	-273.0	0.0	20.0	6.1
=	-271.9	0.0	20.0	6.2
=	-271.1	0.0	20.0	6.2
=	-269.8	0.0	20.0	6.3
=	-268.3	0.0	20.0	6.3
=	-266.8	0.0	20.0	6.4
=	-265.3	0.0	20.0	6.4
=	-263.9	0.0	20.0	6.5
=	-263.3	0.0	20.0	6.5
=	-262.5	0.0	20.0	6.6
=	-261.7	0.0	20.0	6.6
=	-261.0	0.0	20.0	6.6
=	-260.2	0.0	20.0	6.7
=	-259.5	0.0	20.0	6.7
=	-258.8	0.0	20.0	6.7
=	-258.2	0.0	20.0	6.7
=	-257.5	0.0	20.0	6.8
=	-256.7	0.0	20.0	6.8
=	-256.1	0.0	20.0	6.8
=	-255.6	0.0	20.0	6.9
=	-254.9	0.0	20.0	6.9
=	-254.2	0.0	20.0	6.9
=	-253.4	0.0	20.0	6.9
=	-252.7	0.0	20.0	7.0
=	-251.9	0.0	20.0	7.0
=	-251.2	0.0	20.0	7.1
=	-250.4	0.0	20.0	7.1
=	-249.7	0.0	20.0	7.1
=	-248.9	0.0	20.0	7.2
=	-248.2	0.0	20.0	7.2
=	-247.4	0.0	20.0	7.3
=	-246.7	0.0	20.0	7.3
=	-245.9	0.0	20.0	7.3
=	-245.4	0.0	20.0	7.3
=	-244.7	0.0	20.0	7.4
=	-243.9	0.0	20.0	7.4
=	-243.1	0.0	20.0	7.4
=	-242.4	0.0	20.0	7.5
=	-241.6	0.0	20.0	7.5
=	-240.9	0.0	20.0	7.5
=	-240.1	0.0	20.0	7.5
=	-239.4	0.0	20.0	7.6
=	-238.6	0.0	20.0	7.6
=	-237.9	0.0	20.0	7.6
=	-237.1	0.0	20.0	7.7
=	-236.4	0.0	20.0	7.7
=	-235.6	0.0	20.0	7.7
=	-234.9	0.0	20.0	7.8
=	-234.1	0.0	20.0	7.8
=	-233.4	0.0	20.0	7.9
=	-232.6	0.0	20.0	7.9
=	-231.8	0.0	20.0	8.0
=	-231.1	0.0	20.0	8.0
=	-230.3	0.0	20.0	8.1
=	-229.6	0.0	20.0	8.2
=	-228.9	0.0	20.0	8.3
=	-228.1	0.0	20.0	8.3
=	-227.3	0.0	20.0	8.4
=	-226.6	0.0	20.0	8.5
=	-225.8	0.0	20.0	8.6
=	-225.1	0.0	20.0	8.7
=	-224.3	0.0	20.0	8.8
=	-223.5	0.0	20.0	8.9
=	-222.8	0.0	20.0	9.0
=	-222.0	0.0	20.0	9.1
=	-221.3	0.0	20.0	9.2
=	-220.5	0.0	20.0	9.3
=	-219.8	0.0	20.0	9.4
=	-219.0	0.0	20.0	9.5
=	-218.3	0.0	20.0	9.6
=	-217.5	0.0	20.0	9.8
=	-216.7	0.0	20.0	10.0
=	-215.5	0.0	20.0	10.3
=	-214.5	0.0	20.0	10.6
=	-213.3	0.0	20.0	11.2
=	-212.5	0.0	20.0	11.8
=	-211.8	0.0	20.0	12.4
=	-211.0	0.0	20.0	13.3
=	-210.3	0.0	20.0	14.3
=	-209.5	0.0	20.0	16.0
=	-208.7	0.0	20.0	18.0
=	-207.8	0.0	20.0	21.4
=	-206.7	0.0	20.0	27.0
=	-205.6	0.0	20.0	33.7
=	-204.7	0.0	20.0	40.3
=	-203.9	0.0	20.0	46.9
=	-203.2	0.0	20.0	53.0
=	-202.4	0.0	20.0	59.6
=	-201.7	0.0	20.0	65.2
=	-200.9	0.0	20.0	70.8
=	-200.2	0.0	20.0	75.5
=	-199.4	0.0	20.0	79.4
=	-198.7	0.0	20.0	82.2
=	-197.9	0.0	20.0	84.5
=	-196.9	0.0	20.0	86.6
=	-196.2	0.0	20.0	87.7
=	-195.4	0.0	20.0	88.6
=	-194.7	0.0	20.0	89.2
=	-193.7	0.0	20.0	89.8
=	-192.9	0.0	20.0	90.2
=	-192.1	0.0	20.0	90.6
=	-190.6	0.0	20.0	91.0
=	-189.5	0.0	20.0	91.3
=	-188.2	0.0	20.0	91.6
=	-187.1	0.0	20.0	91.9
=	-185.5	0.0	20.0	92.1
=	-184.2	0.0	20.0	92.4
=	-183.0	0.0	20.0	92.6
=	-182.1	0.0	20.0	92.7
=	-181.3	0.0	20.0	92.8
=	-180.6	0.0	20.0	92.9
=	-179.8	0.0	20.0	93.0
=	-179.1	0.0	20.0	93.0
=	-178.3	0.0	20.0	93.1
=	-177.6	0.0	20.0	93.3
=	-176.8	0.0	20.0	93.3
=	-176.1	0.0	20.0	93.4
=	-175.3	0.0	20.0	93.5
=	-174.5	0.0	20.0	93.6
=	-173.8	0.0	20.0	93.8
=	-173.0	0.0	20.0	93.8
=	-172.2	0.0	20.0	93.9
=	-171.5	0.0	20.0	93.9
=	-170.7	0.0	20.0	94.0
=	-170.0	0.0	20.0	94.0
=	-169.2	0.0	20.0	94.1
=	-168.5	0.0	20.0	94.2
=	-167.7	0.0	20.0	94.3
=	-167.0	0.0	20.0	94.3
=	-166.2	0.0	20.0	94.4
=	-165.4	0.0	20.0	94.4
=	-164.7	0.0	20.0	94.4
=	-164.0	0.0	20.0	94.5
=	-163.4	0.0	20.0	94.6
=	-162.8	0.0	20.0	94.7
=	-162.3	0.0	20.0	94.7
=	-161.8	0.0	20.0	94.8
=	-161.3	0.0	20.0	94.8
=	-160.7	0.0	20.0	94.8
=	-160.2	0.0	20.0	94.8
=	-159.7	0.0	20.0	94.9
=	-159.2	0.0	20.0	95.0
=	-158.7	0.0	20.0	95.1
=	-158.2	0.0	20.0	95.1
=	-157.7	0.0	20.0	95.1
=	-157.2	0.0	20.0	95.1
=	-156.7	0.0	20.0	95.2
=	-156.2	0.0	20.0	95.2
=	-155.5	0.0	20.0	95.3
=	-154.9	0.0	20.0	95.3
=	-154.4	0.0	20.0	95.3
=	-153.7	0.0	20.0	95.4
=	-152.9	0.0	20.0	95.5
=	-152.2	0.0	20.0	95.6
=	-151.4	0.0	20.0	95.7
=	-150.7	0.0	20.0	95.7
=	-149.9	0.0	20.0	95.8
=	-149.2	0.0	20.0	95.8
=	-148.4	0.0	20.0	95.9
=	-147.6	0.0	20.0	95.9
=	-146.8	0.0	20.0	96.0
=	-146.1	0.0	20.0	96.0
=	-145.3	0.0	20.0	96.0
=	-144.6	0.0	20.0	96.1
=	-143.8	0.0	20.0	96.2
=	-143.1	0.0	20.0	96.2
=	-142.3	0.0	20.0	96.3
=	-141.6	0.0	20.0	96.3
=	-140.9	0.0	20.0	96.4
=	-140.1	0.0	20.0	96.4
=	-139.3	0.0	20.0	96.4
=	-138.6	0.0	20.0	96.5
=	-137.8	0.0	20.0	96.5
=	-137.0	0.0	20.0	96.6
=	-136.3	0.0	20.0	96.6
=	-135.6	0.0	20.0	96.7
=	-134.8	0.0	20.0	96.7
=	-134.0	0.0	20.0	96.8
=	-133.3	0.0	20.0	96.8
=	-132.5	0.0	20.0	96.9
=	-131.7	0.0	20.0	96.9
=	-131.0	0.0	20.0	96.9
=	-130.2	0.0	20.0	97.0
=	-129.5	0.0	20.0	97.0
=	-128.7	0.0	20.0	97.1
=	-128.0	0.0	20.0	97.1
=	-127.2	0.0	20.0	97.2
=	-126.5	0.0	20.0	97.2
=	-125.7	0.0	20.0	97.3
=	-125.0	0.0	20.0	97.4
=	-124.0	0.0	20.0	97.4
=	-123.1	0.0	20.0	97.4
=	-122.4	0.0	20.0	97.5
=	-121.6	0.0	20.0	97.5
=	-120.9	0.0	20.0	97.5
=	-120.1	0.0	20.0	97.6
=	-118.7	0.0	20.0	97.7
=	-117.2	0.0	20.0	97.8
=	-116.2	0.0	20.0	97.8
=	-114.7	0.0	20.0	97.8
=	-113.5	0.0	20.0	97.9
=	-112.7	0.0	20.0	98.0
=	-111.5	0.0	20.0	98.1
=	-110.8	0.0	20.0	98.1
=	-110.0	0.0	20.0	98.1
=	-109.3	0.0	20.0	98.1
=	-108.5	0.0	20.0	98.2
=	-107.8	0.0	20.0	98.3
=	-107.0	0.0	20.0	98.3
=	-106.6	0.0	20.0	98.3
=	-105.9	0.0	20.0	98.4
=	-105.4	0.0	20.0	98.4
=	-104.9	0.0	20.0	98.4
=	-104.2	0.0	20.0	98.4
=	-103.7	0.0	20.0	98.4
=	-103.2	0.0	20.0	98.4
=	-102.4	0.0	20.0	98.4
=	-101.7	0.0	20.0	98.5
=	-100.9	0.0	20.0	98.5
=	-100.2	0.0	20.0	98.6
=	-99.4	0.0	20.0	98.6
=	-98.7	0.0	20.0	98.6
=	-97.9	0.0	20.0	98.7
=	-97.2	0.0	20.0	98.7
=	-96.4	0.0	20.0	98.7
=	-95.7	0.0	20.0	98.7
=	-94.9	0.0	20.0	98.8
=	-94.4	0.0	20.0	98.8
=	-94.0	0.0	20.0	98.8
=	-93.4	0.0	20.0	98.8
=	-92.6	0.0	20.0	98.8
=	-92.1	0.0	20.0	98.9
=	-91.6	0.0	20.0	98.9
=	-91.1	0.0	20.0	98.9
=	-90.6	0.0	20.0	98.9
=	-89.8	0.0	20.0	98.9
=	-89.2	0.0	20.0	99.0
=	-88.7	0.0	20.0	99.0
=	-88.2	0.0	20.0	99.0
=	-87.7	0.0	20.0	99.1
=	-87.2	0.0	20.0	99.1
=	-86.7	0.0	20.0	99.1
=	-86.2	0.0	20.0	99.1
=	-85.7	0.0	20.0	99.1
=	-85.2	0.0	20.0	99.1
=	-84.7	0.0	20.0	99.1
=	-84.2	0.0	20.0	99.1
=	-83.7	0.0	20.0	99.2
=	-83.1	0.0	20.0	99.2
=	-82.5	0.0	20.0	99.2
=	-82.0	0.0	20.0	99.2
=	-81.5	0.0	20.0	99.2
=	-81.0	0.0	20.0	99.2
=	-80.5	0.0	20.0	99.2
=	-80.0	0.0	20.0	99.2
=	-79.5	0.0	20.0	99.2
=	-79.0	0.0	20.0	99.3
=	-78.3	0.0	20.0	99.3
=	-77.7	0.0	20.0	99.3
=	-77.1	0.0	20.0	99.3
=	-76.6	0.0	20.0	99.3
=	-76.1	0.0	20.0	99.3
=	-75.6	0.0	20.0	99.4
=	-75.1	0.0	20.0	99.4
=	-74.5	0.0	20.0	99.4
=	-73.7	0.0	20.0	99.5
=	-73.1	0.0	20.0	99.5
=	-72.5	0.0	20.0	99.5
=	-71.8	0.0	20.0	99.5
=	-71.2	0.0	20.0	99.5
=	-70.5	0.0	20.0	99.5
=	-69.7	0.0	20.0	99.5
=	-69.0	0.0	20.0	99.6
=	-68.3	0.0	20.0	99.6
=	-67.7	0.0	20.0	99.6
=	-67.0	0.0	20.0	99.6
=	-66.2	0.0	20.0	99.7
=	-65.4	0.0	20.0	99.7
=	-64.7	0.0	20.0	99.7
=	-63.9	0.0	20.0	99.7
=	-63.2	0.0	20.0	99.7
=	-62.4	0.0	20.0	99.7
=	-61.6	0.0	20.0	99.7
=	-60.8	0.0	20.0	99.8
=	-60.1	0.0	20.0	99.8
=	-59.3	0.0	20.0	99.8
=	-58.6	0.0	20.0	99.8
=	-57.8	0.0	20.0	99.8
=	-57.1	0.0	20.0	99.9
=	-56.3	0.0	20.0	99.9
=	-55.6	0.0	20.0	99.9
=	-55.0	0.0	20.0	99.9
=	-54.5	0.0	20.0	99.9
=	-54.0	0.0	20.0	99.9
=	-53.3	0.0	20.0	99.9
=	-52.7	0.0	20.0	99.9
=	-52.2	0.0	20.0	99.9
=	-51.5	0.0	20.0	99.9
=	-51.0	0.0	20.0	100.0
=	-50.5	0.0	20.0	100.0
=	-50.0	0.0	20.0	100.0
=	-49.5	0.0	20.0	100.0
=	-48.8	0.0	20.0	100.0
=	-48.3	0.0	20.0	100.0
=	-47.8	0.0	20.0	100.0
=	-47.3	0.0	20.0	100.0
=	-46.8	0.0	20.0	100.1
=	-46.3	0.0	20.0	100.0
=	-45.8	0.0	20.0	100.1
=	-45.3	0.0	20.0	100.1
=	-44.8	0.0	20.0	100.1
=	-44.3	0.0	20.0	100.1
=	-43.8	0.0	20.0	100.1
=	-43.2	0.0	20.0	100.1
=	-42.8	0.0	20.0	100.1
=	-42.3	0.0	20.0	100.1
=	-41.8	0.0	20.0	100.1
=	-41.3	0.0	20.0	100.1
=	-40.7	0.0	20.0	100.1
=	-40.2	0.0	20.0	100.1
=	-39.7	0.0	20.0	100.0
=	-39.2	0.0	20.0	100.0
=	-38.7	0.0	20.0	100.0
=	-38.0	0.0	20.0	100.0
=	-37.2	0.0	20.0	100.0
=	-36.5	0.0	20.0	100.0
=	-35.7	0.0	20.0	100.0
=	-35.0	0.0	20.0	100.1
=	-34.2	0.0	20.0	100.1
=	-33.4	0.0	20.0	100.1
=	-32.6	0.0	20.0	100.1
=	-31.9	0.0	20.0	100.1
=	-31.1	0.0	20.0	100.1
=	-30.4	0.0	20.0	100.1
=	-29.6	0.0	20.0	100.1
=	-28.9	0.0	20.0	100.1
=	-28.1	0.0	20.0	100.1
=	-27.4	0.0	20.0	100.1
=	-26.6	0.0	20.0	100.1
=	-25.9	0.0	20.0	100.1
=	-24.8	0.0	20.0	100.1
=	-23.8	0.0	20.0	100.1
=	-23.0	0.0	20.0	100.1
=	-22.3	0.0	20.0	100.1
=	-21.3	0.0	20.0	100.1
=	-20.5	0.0	20.0	100.1
=	-19.7	0.0	20.0	100.1
=	-19.0	0.0	20.0	100.1
=	-18.2	0.0	20.0	100.1
=	-17.4	0.0	20.0	100.1
=	-16.6	0.0	20.0	100.1
=	-15.9	0.0	20.0	100.1
=	-15.1	0.0	20.0	100.1
=	-14.4	0.0	20.0	100.1
=	-13.5	0.0	20.0	100.1
=	-12.8	0.0	20.0	100.1
=	-11.7	0.0	20.0	100.1
=	-10.2	0.0	20.0	100.0
=	-9.0	0.0	20.0	100.0
=	-8.1	0.0	20.0	100.0
=	-6.6	0.0	20.0	100.0
=	-5.1	0.0	20.0	100.0
=	-3.6	0.0	20.0	100.0
=	-2.1	0.0	20.0	100.0
=	-0.5	0.0	20.0	100.0
=	0.0	0.0	20.0	100.0
=	1.1	0.0	20.0	100.0
=	2.6	0.0	20.0	100.0
=	4.1	0.0	20.0	100.0
=	5.6	0.0	20.0	100.0
=	7.1	0.0	20.0	100.0
=	8.5	0.0	20.0	100.0
=	9.3	0.0	20.0	100.0
=	10.7	0.0	20.0	100.1
=	12.2	0.0	20.0	100.1
=	13.0	0.0	20.0	100.1
=	13.8	0.0	20.0	100.1
=	14.6	0.0	20.0	100.1
=	15.4	0.0	20.0	100.1
=	16.1	0.0	20.0	100.1
=	16.9	0.0	20.0	100.1
=	17.7	0.0	20.0	100.1
=	18.4	0.0	20.0	100.1
=	19.2	0.0	20.0	100.1
=	20.0	0.0	20.0	100.1
=	20.8	0.0	20.0	100.1
=	21.7	0.0	20.0	100.1
=	22.5	0.0	20.0	100.1
=	23.3	0.0	20.0	100.1
=	24.0	0.0	20.0	100.1
=	25.2	0.0	20.0	100.1
=	26.1	0.0	20.0	100.1
=	26.9	0.0	20.0	100.1
=	27.6	0.0	20.0	100.1
=	28.4	0.0	20.0	100.1
=	29.1	0.0	20.0	100.1
=	29.9	0.0	20.0	100.1
=	30.6	0.0	20.0	100.1
=	31.4	0.0	20.0	100.1
=	32.1	0.0	20.0	100.1
=	32.9	0.0	20.0	100.1
=	33.7	0.0	20.0	100.1
=	34.4	0.0	20.0	100.0
=	35.2	0.0	20.0	100.1
=	35.9	0.0	20.0	100.0
=	36.7	0.0	20.0	100.0
=	37.5	0.0	20.0	100.0
=	38.2	0.0	20.0	100.0
=	38.9	0.0	20.0	100.0
=	39.4	0.0	20.0	100.0
=	39.9	0.0	20.0	100.0
=	40.4	0.0	20.0	100.1
=	40.9	0.0	20.0	100.1
=	41.4	0.0	20.0	100.1
=	41.9	0.0	20.0	100.1
=	42.4	0.0	20.0	100.1
=	42.9	0.0	20.0	100.1
=	43.4	0.0	20.0	100.1
=	43.9	0.0	20.0	100.1
=	44.4	0.0	20.0	100.1
=	44.9	0.0	20.0	100.1
=	45.4	0.0	20.0	100.1
=	45.9	0.0	20.0	100.1
=	46.5	0.0	20.0	100.1
=	47.0	0.0	20.0	100.1
=	47.5	0.0	20.0	100.0
=	48.0	0.0	20.0	100.0
=	48.5	0.0	20.0	100.0
=	49.0	0.0	20.0	100.0
=	49.7	0.0	20.0	100.0
=	50.2	0.0	20.0	100.0
=	50.7	0.0	20.0	100.0
=	51.2	0.0	20.0	100.0
=	51.8	0.0	20.0	99.9
=	52.3	0.0	20.0	99.9
=	52.8	0.0	20.0	99.9
=	53.6	0.0	20.0	99.9
=	54.2	0.0	20.0	99.9
=	54.7	0.0	20.0	99.9
=	55.2	0.0	20.0	99.9
=	55.8	0.0	20.0	99.9
=	56.6	0.0	20.0	99.9
=	57.3	0.0	20.0	99.9
=	58.1	0.0	20.0	99.8
=	58.8	0.0	20.0	99.8
=	59.6	0.0	20.0	99.8
=	60.3	0.0	20.0	99.8
=	61.1	0.0	20.0	99.8
=	61.9	0.0	20.0	99.7
=	62.7	0.0	20.0	99.7
=	63.4	0.0	20.0	99.7
=	64.2	0.0	20.0	99.7
=	64.9	0.0	20.0	99.7
=	65.7	0.0	20.0	99.7
=	66.4	0.0	20.0	99.7
=	67.2	0.0	20.0	99.6
=	67.9	0.0	20.0	99.6
=	68.5	0.0	20.0	99.6
=	69.2	0.0	20.0	99.6
=	70.0	0.0	20.0	99.5
=	70.7	0.0	20.0	99.5
=	71.4	0.0	20.0	99.5
=	72.0	0.0	20.0	99.5
=	72.7	0.0	20.0	99.5
=	73.3	0.0	20.0	99.5
=	74.0	0.0	20.0	99.5
=	74.7	0.0	20.0	99.4
=	75.3	0.0	20.0	99.4
=	75.8	0.0	20.0	99.3
=	76.3	0.0	20.0	99.3
=	76.8	0.0	20.0	99.3
=	77.3	0.0	20.0	99.3
=	78.0	0.0	20.0	99.3
=	78.5	0.0	20.0	99.3
=	79.2	0.0	20.0	99.3
=	79.7	0.0	20.0	99.2
=	80.2	0.0	20.0	99.2
=	80.7	0.0	20.0	99.2
=	81.2	0.0	20.0	99.2
=	81.7	0.0	20.0	99.2
=	82.2	0.0	20.0	99.2
=	82.7	0.0	20.0	99.2
=	83.3	0.0	20.0	99.2
=	83.9	0.0	20.0	99.1
=	84.4	0.0	20.0	99.1
=	84.8	0.0	20.0	99.1
=	85.4	0.0	20.0	99.1
=	85.9	0.0	20.0	99.1
=	86.4	0.0	20.0	99.1
=	86.9	0.0	20.0	99.1
=	87.4	0.0	20.0	99.1
=	87.9	0.0	20.0	99.0
=	88.4	0.0	20.0	99.0
=	88.9	0.0	20.0	99.0
=	89.4	0.0	20.0	99.0
=	90.1	0.0	20.0	98.9
=	90.7	0.0	20.0	98.9
=	91.3	0.0	20.0	98.9
=	91.8	0.0	20.0	98.9
=	92.3	0.0	20.0	98.9
=	92.9	0.0	20.0	98.8
=	93.6	0.0	20.0	98.8
=	94.1	0.0	20.0	98.8
=	94.6	0.0	20.0	98.8
=	95.2	0.0	20.0	98.7
=	95.9	0.0	20.0	98.7
=	96.7	0.0	20.0	98.7
=	97.4	0.0	20.0	98.7
=	98.2	0.0	20.0	98.6
=	98.9	0.0	20.0	98.6
=	99.7	0.0	20.0	98.6
=	100.4	0.0	20.0	98.5
=	101.2	0.0	20.0	98.5
=	101.9	0.0	20.0	98.5
=	102.7	0.0	20.0	98.4
=	103.3	0.0	20.0	98.4
=	103.8	0.0	20.0	98.4
=	104.4	0.0	20.0	98.4
=	105.0	0.0	20.0	98.4
=	105.5	0.0	20.0	98.4
=	106.2	0.0	20.0	98.3
=	106.7	0.0	20.0	98.3
=	107.2	0.0	20.0	98.3
=	108.0	0.0	20.0	98.2
=	108.8	0.0	20.0	98.2
=	109.5	0.0	20.0	98.1
=	110.3	0.0	20.0	98.1
=	111.0	0.0	20.0	98.1
=	111.8	0.0	20.0	98.0
=	113.0	0.0	20.0	98.0
=	113.8	0.0	20.0	97.9
=	115.2	0.0	20.0	97.8
=	116.5	0.0	20.0	97.8
=	117.7	0.0	20.0	97.7
=	119.2	0.0	20.0	97.6
=	120.4	0.0	20.0	97.6
=	121.1	0.0	20.0	97.5
=	121.9	0.0	20.0	97.5
=	122.6	0.0	20.0	97.5
=	123.4	0.0	20.0	97.4
=	124.3	0.0	20.0	97.4
=	125.2	0.0	20.0	97.3
=	126.0	0.0	20.0	97.3
=	126.7	0.0	20.0	97.2
=	127.5	0.0	20.0	97.2
=	128.2	0.0	20.0	97.1
=	129.0	0.0	20.0	97.1
=	129.7	0.0	20.0	97.0
=	130.5	0.0	20.0	97.0
=	131.2	0.0	20.0	96.9
=	132.0	0.0	20.0	96.9
=	132.8	0.0	20.0	96.9
=	133.5	0.0	20.0	96.8
=	134.3	0.0	20.0	96.8
=	135.1	0.0	20.0	96.7
=	135.8	0.0	20.0	96.7
=	136.6	0.0	20.0	96.6
=	137.3	0.0	20.0	96.6
=	138.1	0.0	20.0	96.5
=	138.8	0.0	20.0	96.5
=	139.6	0.0	20.0	96.4
=	140.3	0.0	20.0	96.4
=	141.1	0.0	20.0	96.4
=	141.8	0.0	20.0	96.3
=	142.6	0.0	20.0	96.3
=	143.3	0.0	20.0	96.2
=	144.1	0.0	20.0	96.1
=	144.8	0.0	20.0	96.1
=	145.6	0.0	20.0	96.0
=	146.3	0.0	20.0	96.0
=	147.1	0.0	20.0	96.0
=	147.9	0.0	20.0	95.9
=	148.7	0.0	20.0	95.8
=	149.4	0.0	20.0	95.8
=	150.2	0.0	20.0	95.7
=	150.9	0.0	20.0	95.7
=	151.7	0.0	20.0	95.6
=	152.4	0.0	20.0	95.5
=	153.2	0.0	20.0	95.5
=	153.9	0.0	20.0	95.4
=	154.5	0.0	20.0	95.3
=	155.1	0.0	20.0	95.3
=	155.7	0.0	20.0	95.3
=	156.4	0.0	20.0	95.2
=	156.9	0.0	20.0	95.2
=	157.4	0.0	20.0	95.1
=	157.9	0.0	20.0	95.1
=	158.4	0.0	20.0	95.1
=	158.9	0.0	20.0	95.0
=	159.4	0.0	20.0	94.9
=	159.9	0.0	20.0	94.9
=	160.4	0.0	20.0	94.8
=	160.9	0.0	20.0	94.8
=	161.4	0.0	20.0	94.8
=	161.9	0.0	20.0	94.7
=	162.4	0.0	20.0	94.7
=	163.0	0.0	20.0	94.7
=	163.6	0.0	20.0	94.6
=	164.2	0.0	20.0	94.5
=	165.0	0.0	20.0	94.4
=	165.7	0.0	20.0	94.4
=	166.4	0.0	20.0	94.4
=	167.2	0.0	20.0	94.3
=	168.0	0.0	20.0	94.3
=	168.7	0.0	20.0	94.2
=	169.5	0.0	20.0	94.1
=	170.2	0.0	20.0	94.0
=	171.0	0.0	20.0	94.0
=	171.7	0.0	20.0	93.9
=	172.5	0.0	20.0	93.8
=	173.2	0.0	20.0	93.8
=	174.0	0.0	20.0	93.7
=	174.8	0.0	20.0	93.6
=	175.6	0.0	20.0	93.5
=	176.3	0.0	20.0	93.4
=	177.1	0.0	20.0	93.3
=	177.8	0.0	20.0	93.2
=	178.6	0.0	20.0	93.1
=	179.3	0.0	20.0	93.0
=	180.1	0.0	20.0	92.9
=	180.8	0.0	20.0	92.9
=	181.6	0.0	20.0	92.7
=	182.3	0.0	20.0	92.7
=	183.5	0.0	20.0	92.5
=	184.5	0.0	20.0	92.3
=	186.1	0.0	20.0	92.0
=	187.5	0.0	20.0	91.8
=	188.6	0.0	20.0	91.5
=	189.9	0.0	20.0	91.3
=	191.1	0.0	20.0	90.8
=	192.4	0.0	20.0	90.5
=	193.2	0.0	20.0	90.1
=	194.1	0.0	20.0	89.6
=	194.9	0.0	20.0	89.0
=	195.7	0.0	20.0	88.3
=	196.4	0.0	20.0	87.4
=	197.2	0.0	20.0	86.0
=	198.2	0.0	20.0	83.8
=	198.9	0.0	20.0	81.4
=	199.7	0.0	20.0	78.1
=	200.4	0.0	20.0	74.1
=	201.2	0.0	20.0	68.8
=	201.9	0.0	20.0	63.6
=	202.7	0.0	20.0	57.3
=	203.4	0.0	20.0	51.2
=	204.2	0.0	20.0	44.4
=	204.9	0.0	20.0	38.6
=	205.9	0.0	20.0	31.4
=	207.1	0.0	20.0	24.4
=	208.1	0.0	20.0	20.1
=	209.0	0.0	20.0	17.3
=	209.8	0.0	20.0	15.3
=	210.5	0.0	20.0	14.0
=	211.3	0.0	20.0	12.9
=	212.0	0.0	20.0	12.2
=	212.8	0.0	20.0	11.5
=	213.7	0.0	20.0	11.0
=	214.8	0.0	20.0	10.5
=	215.8	0.0	20.0	10.2
=	217.0	0.0	20.0	9.9
=	217.8	0.0	20.0	9.7
=	218.5	0.0	20.0	9.6
=	219.3	0.0	20.0	9.5
=	220.0	0.0	20.0	9.3
=	220.8	0.0	20.0	9.2
=	221.5	0.0	20.0	9.2
=	222.3	0.0	20.0	9.1
=	223.0	0.0	20.0	8.9
=	223.8	0.0	20.0	8.8
=	224.6	0.0	20.0	8.7
=	225.3	0.0	20.0	8.6
=	226.1	0.0	20.0	8.6
=	226.8	0.0	20.0	8.5
=	227.6	0.0	20.0	8.4
=	228.3	0.0	20.0	8.3
=	229.1	0.0	20.0	8.2
=	229.8	0.0	20.0	8.2
=	230.6	0.0	20.0	8.1
=	231.3	0.0	20.0	8.0
=	232.1	0.0	20.0	8.0
=	232.8	0.0	20.0	7.9
=	233.6	0.0	20.0	7.8
=	234.4	0.0	20.0	7.8
=	235.1	0.0	20.0	7.7
=	235.9	0.0	20.0	7.7
=	236.6	0.0	20.0	7.7
=	237.4	0.0	20.0	7.7
=	238.1	0.0	20.0	7.6
=	238.9	0.0	20.0	7.6
=	239.6	0.0	20.0	7.6
=	240.4	0.0	20.0	7.5
=	241.1	0.0	20.0	7.5
=	241.9	0.0	20.0	7.5
=	242.6	0.0	20.0	7.5
=	243.4	0.0	20.0	7.4
=	244.1	0.0	20.0	7.4
=	244.9	0.0	20.0	7.3
=	245.5	0.0	20.0	7.3
=	246.1	0.0	20.0	7.3
=	246.9	0.0	20.0	7.3
=	247.7	0.0	20.0	7.3
=	248.4	0.0	20.0	7.2
=	249.1	0.0	20.0	7.2
=	249.9	0.0	20.0	7.1
=	250.7	0.0	20.0	7.1
=	251.4	0.0	20.0	7.1
=	252.2	0.0	20.0	7.0
=	252.9	0.0	20.0	7.0
=	253.7	0.0	20.0	6.9
=	254.4	0.0	20.0	6.9
=	255.2	0.0	20.0	6.9
=	255.7	0.0	20.0	6.9
=	256.3	0.0	20.0	6.8
=	257.0	0.0	20.0	6.8
=	257.7	0.0	20.0	6.8
=	258.4	0.0	20.0	6.7
=	259.0	0.0	20.0	6.7
=	259.7	0.0	20.0	6.7
=	260.5	0.0	20.0	6.6
=	261.2	0.0	20.0	6.6
=	262.0	0.0	20.0	6.6
=	262.8	0.0	20.0	6.5
=	263.5	0.0	20.0	6.5
=	264.3	0.0	20.0	6.5
=	265.8	0.0	20.0	6.4
=	267.3	0.0	20.0	6.3
=	268.8	0.0	20.0	6.3
=	270.3	0.0	20.0	6.2
=	271.4	0.0	20.0	6.2
=	272.3	0.0	20.0	6.1
=	273.3	0.0	20.0	6.1
:EOM # End of Measurement
#
# RFA300 ASCII Measurement Dump ( BDS format )
#
# Measurement number 	2
#
%VNR 1.0
%MOD 	RAT
%TYP 	SCN
%SCN 	PRO
%FLD 	ION
%DAT 	02-03-2012
%TIM 	12:00:00
%FSZ 	400	150
%BMT 	PHO	   8.0
%SSD 	1000
%BUP 	0
%BRD 	1000
%FSH 	1
%ASC 	0
%WEG 	60
%GPO 	0
%CPO 	0
%MEA 	6
%PRD 	50,0
%PTS 	800
%STS 	    -283.2	  0.0	   50.0 # Start Scan values in mm ( X , Y , Z )
%EDS 	    282.9	   0.0	   50.0 # End Scan values in mm ( X , Y , Z )
#
#	  X      Y      Z     Dose
#
=	-283.2	0.0	50.0	5.9
=	-282.2	0.0	50.0	5.9
=	-281.4	0.0	50.0	6.0
=	-280.7	0.0	50.0	6.0
=	-279.9	0.0	50.0	6.0
=	-278.8	0.0	50.0	6.1
=	-278.0	0.0	50.0	6.1
=	-277.0	0.0	50.0	6.2
=	-276.2	0.0	50.0	6.2
=	-275.5	0.0	50.0	6.3
=	-274.7	0.0	50.0	6.3
=	-274.2	0.0	50.0	6.3
=	-273.5	0.0	50.0	6.3
=	-272.8	0.0	50.0	6.4
=	-272.0	0.0	50.0	6.4
=	-271.3	0.0	50.0	6.4
=	-270.5	0.0	50.0	6.5
=	-269.8	0.0	50.0	6.5
=	-269.0	0.0	50.0	6.6
=	-268.3	0.0	50.0	6.6
=	-267.5	0.0	50.0	6.6
=	-266.7	0.0	50.0	6.7
=	-266.2	0.0	50.0	6.7
=	-265.7	0.0	50.0	6.7
=	-265.2	0.0	50.0	6.8
=	-264.5	0.0	50.0	6.8
=	-263.9	0.0	50.0	6.8
=	-263.2	0.0	50.0	6.8
=	-262.7	0.0	50.0	6.9
=	-262.2	0.0	50.0	6.9
=	-261.4	0.0	50.0	6.9
=	-260.7	0.0	50.0	7.0
=	-260.2	0.0	50.0	7.0
=	-259.7	0.0	50.0	7.1
=	-259.1	0.0	50.0	7.1
=	-258.3	0.0	50.0	7.1
=	-257.6	0.0	50.0	7.2
=	-256.9	0.0	50.0	7.2
=	-256.2	0.0	50.0	7.3
=	-255.6	0.0	50.0	7.3
=	-254.8	0.0	50.0	7.3
=	-254.2	0.0	50.0	7.4
=	-253.4	0.0	50.0	7.4
=	-252.8	0.0	50.0	7.4
=	-252.1	0.0	50.0	7.5
=	-251.6	0.0	50.0	7.5
=	-250.9	0.0	50.0	7.5
=	-250.2	0.0	50.0	7.6
=	-249.5	0.0	50.0	7.6
=	-248.7	0.0	50.0	7.6
=	-248.0	0.0	50.0	7.7
=	-247.2	0.0	50.0	7.7
=	-246.4	0.0	50.0	7.8
=	-245.7	0.0	50.0	7.8
=	-244.9	0.0	50.0	7.9
=	-244.2	0.0	50.0	7.9
=	-243.4	0.0	50.0	8.0
=	-242.6	0.0	50.0	8.0
=	-241.9	0.0	50.0	8.1
=	-241.1	0.0	50.0	8.1
=	-240.4	0.0	50.0	8.2
=	-239.6	0.0	50.0	8.3
=	-239.1	0.0	50.0	8.3
=	-238.6	0.0	50.0	8.3
=	-237.9	0.0	50.0	8.4
=	-237.2	0.0	50.0	8.5
=	-236.4	0.0	50.0	8.6
=	-235.6	0.0	50.0	8.7
=	-234.9	0.0	50.0	8.8
=	-234.1	0.0	50.0	8.8
=	-233.4	0.0	50.0	9.0
=	-232.6	0.0	50.0	9.1
=	-231.9	0.0	50.0	9.2
=	-231.1	0.0	50.0	9.3
=	-230.3	0.0	50.0	9.4
=	-229.6	0.0	50.0	9.6
=	-229.0	0.0	50.0	9.6
=	-228.5	0.0	50.0	9.7
=	-228.1	0.0	50.0	9.8
=	-227.3	0.0	50.0	9.9
=	-226.6	0.0	50.0	10.1
=	-225.8	0.0	50.0	10.2
=	-225.2	0.0	50.0	10.4
=	-224.6	0.0	50.0	10.5
=	-224.0	0.0	50.0	10.6
=	-223.5	0.0	50.0	10.8
=	-223.0	0.0	50.0	10.9
=	-222.3	0.0	50.0	11.1
=	-221.8	0.0	50.0	11.2
=	-221.4	0.0	50.0	11.4
=	-220.8	0.0	50.0	11.6
=	-220.0	0.0	50.0	12.0
=	-219.5	0.0	50.0	12.3
=	-219.0	0.0	50.0	12.6
=	-218.5	0.0	50.0	13.0
=	-217.9	0.0	50.0	13.5
=	-217.3	0.0	50.0	14.1
=	-216.8	0.0	50.0	14.8
=	-216.0	0.0	50.0	16.0
=	-215.3	0.0	50.0	17.6
=	-214.8	0.0	50.0	18.9
=	-214.3	0.0	50.0	20.7
=	-213.5	0.0	50.0	23.6
=	-212.8	0.0	50.0	27.0
=	-212.3	0.0	50.0	29.6
=	-211.8	0.0	50.0	32.9
=	-211.0	0.0	50.0	38.0
=	-210.2	0.0	50.0	43.5
=	-209.5	0.0	50.0	49.2
=	-208.7	0.0	50.0	55.1
=	-208.0	0.0	50.0	61.0
=	-207.2	0.0	50.0	66.1
=	-206.5	0.0	50.0	70.6
=	-205.7	0.0	50.0	74.8
=	-205.0	0.0	50.0	78.0
=	-204.4	0.0	50.0	80.0
=	-203.7	0.0	50.0	81.9
=	-203.2	0.0	50.0	83.1
=	-202.5	0.0	50.0	84.4
=	-201.9	0.0	50.0	85.1
=	-201.4	0.0	50.0	85.6
=	-200.9	0.0	50.0	86.1
=	-200.2	0.0	50.0	86.6
=	-199.5	0.0	50.0	87.3
=	-198.7	0.0	50.0	87.7
=	-198.1	0.0	50.0	88.0
=	-197.5	0.0	50.0	88.2
=	-196.7	0.0	50.0	88.6
=	-195.9	0.0	50.0	88.9
=	-195.2	0.0	50.0	89.2
=	-194.4	0.0	50.0	89.4
=	-193.7	0.0	50.0	89.7
=	-192.9	0.0	50.0	89.9
=	-192.3	0.0	50.0	90.0
=	-191.7	0.0	50.0	90.1
=	-190.9	0.0	50.0	90.2
=	-190.2	0.0	50.0	90.3
=	-189.4	0.0	50.0	90.6
=	-188.7	0.0	50.0	90.8
=	-187.9	0.0	50.0	90.9
=	-187.1	0.0	50.0	91.0
=	-186.4	0.0	50.0	91.1
=	-185.6	0.0	50.0	91.3
=	-184.9	0.0	50.0	91.3
=	-184.1	0.0	50.0	91.4
=	-183.4	0.0	50.0	91.6
=	-182.6	0.0	50.0	91.7
=	-181.8	0.0	50.0	91.8
=	-181.1	0.0	50.0	91.9
=	-180.3	0.0	50.0	92.0
=	-179.6	0.0	50.0	92.1
=	-178.8	0.0	50.0	92.2
=	-178.1	0.0	50.0	92.3
=	-177.3	0.0	50.0	92.5
=	-176.6	0.0	50.0	92.6
=	-175.8	0.0	50.0	92.6
=	-175.1	0.0	50.0	92.7
=	-174.4	0.0	50.0	92.8
=	-173.8	0.0	50.0	92.8
=	-173.0	0.0	50.0	92.9
=	-172.3	0.0	50.0	93.0
=	-171.5	0.0	50.0	93.1
=	-170.8	0.0	50.0	93.2
=	-170.0	0.0	50.0	93.3
=	-169.3	0.0	50.0	93.4
=	-168.5	0.0	50.0	93.5
=	-167.8	0.0	50.0	93.6
=	-166.9	0.0	50.0	93.6
=	-166.2	0.0	50.0	93.6
=	-165.4	0.0	50.0	93.7
=	-164.6	0.0	50.0	93.8
=	-163.4	0.0	50.0	94.0
=	-162.1	0.0	50.0	94.1
=	-160.5	0.0	50.0	94.2
=	-159.2	0.0	50.0	94.3
=	-158.3	0.0	50.0	94.4
=	-157.4	0.0	50.0	94.4
=	-156.7	0.0	50.0	94.5
=	-155.9	0.0	50.0	94.6
=	-155.2	0.0	50.0	94.6
=	-154.4	0.0	50.0	94.7
=	-153.7	0.0	50.0	94.8
=	-152.9	0.0	50.0	94.9
=	-152.1	0.0	50.0	94.9
=	-151.3	0.0	50.0	95.0
=	-150.6	0.0	50.0	95.0
=	-149.8	0.0	50.0	95.1
=	-148.8	0.0	50.0	95.1
=	-148.1	0.0	50.0	95.2
=	-146.9	0.0	50.0	95.3
=	-145.5	0.0	50.0	95.5
=	-144.7	0.0	50.0	95.5
=	-144.0	0.0	50.0	95.6
=	-143.2	0.0	50.0	95.7
=	-142.3	0.0	50.0	95.7
=	-141.5	0.0	50.0	95.8
=	-140.7	0.0	50.0	95.8
=	-140.0	0.0	50.0	95.8
=	-139.0	0.0	50.0	95.9
=	-138.2	0.0	50.0	95.9
=	-137.4	0.0	50.0	96.0
=	-136.6	0.0	50.0	96.1
=	-135.9	0.0	50.0	96.1
=	-135.4	0.0	50.0	96.2
=	-134.8	0.0	50.0	96.2
=	-134.1	0.0	50.0	96.2
=	-133.3	0.0	50.0	96.3
=	-132.7	0.0	50.0	96.3
=	-132.1	0.0	50.0	96.3
=	-131.3	0.0	50.0	96.4
=	-130.8	0.0	50.0	96.4
=	-130.3	0.0	50.0	96.5
=	-129.8	0.0	50.0	96.5
=	-129.3	0.0	50.0	96.5
=	-128.8	0.0	50.0	96.6
=	-128.3	0.0	50.0	96.6
=	-127.8	0.0	50.0	96.6
=	-127.3	0.0	50.0	96.7
=	-126.8	0.0	50.0	96.7
=	-126.2	0.0	50.0	96.7
=	-125.6	0.0	50.0	96.8
=	-125.0	0.0	50.0	96.8
=	-124.5	0.0	50.0	96.8
=	-123.8	0.0	50.0	96.9
=	-123.3	0.0	50.0	96.9
=	-122.8	0.0	50.0	96.9
=	-122.3	0.0	50.0	96.9
=	-121.8	0.0	50.0	96.9
=	-121.0	0.0	50.0	97.0
=	-120.3	0.0	50.0	97.1
=	-119.6	0.0	50.0	97.1
=	-119.1	0.0	50.0	97.1
=	-118.6	0.0	50.0	97.1
=	-118.1	0.0	50.0	97.1
=	-117.6	0.0	50.0	97.2
=	-117.1	0.0	50.0	97.2
=	-116.5	0.0	50.0	97.2
=	-115.9	0.0	50.0	97.3
=	-115.4	0.0	50.0	97.3
=	-114.9	0.0	50.0	97.3
=	-114.4	0.0	50.0	97.4
=	-113.9	0.0	50.0	97.4
=	-113.4	0.0	50.0	97.4
=	-112.9	0.0	50.0	97.4
=	-112.4	0.0	50.0	97.4
=	-111.9	0.0	50.0	97.5
=	-111.4	0.0	50.0	97.5
=	-110.9	0.0	50.0	97.5
=	-110.3	0.0	50.0	97.5
=	-109.8	0.0	50.0	97.5
=	-109.4	0.0	50.0	97.6
=	-108.8	0.0	50.0	97.6
=	-108.3	0.0	50.0	97.7
=	-107.8	0.0	50.0	97.7
=	-107.2	0.0	50.0	97.7
=	-106.5	0.0	50.0	97.8
=	-106.0	0.0	50.0	97.8
=	-105.5	0.0	50.0	97.8
=	-104.9	0.0	50.0	97.8
=	-104.2	0.0	50.0	97.9
=	-103.4	0.0	50.0	97.9
=	-102.9	0.0	50.0	97.9
=	-102.4	0.0	50.0	98.0
=	-101.9	0.0	50.0	98.0
=	-101.4	0.0	50.0	98.1
=	-100.7	0.0	50.0	98.1
=	-99.9	0.0	50.0	98.1
=	-99.1	0.0	50.0	98.1
=	-98.4	0.0	50.0	98.2
=	-97.6	0.0	50.0	98.2
=	-96.9	0.0	50.0	98.2
=	-96.1	0.0	50.0	98.3
=	-95.4	0.0	50.0	98.3
=	-94.6	0.0	50.0	98.3
=	-93.8	0.0	50.0	98.3
=	-93.1	0.0	50.0	98.4
=	-92.3	0.0	50.0	98.5
=	-91.6	0.0	50.0	98.5
=	-90.8	0.0	50.0	98.5
=	-90.1	0.0	50.0	98.5
=	-89.3	0.0	50.0	98.6
=	-88.6	0.0	50.0	98.6
=	-87.8	0.0	50.0	98.6
=	-87.1	0.0	50.0	98.7
=	-86.5	0.0	50.0	98.7
=	-85.8	0.0	50.0	98.7
=	-85.0	0.0	50.0	98.8
=	-84.4	0.0	50.0	98.8
=	-83.9	0.0	50.0	98.8
=	-83.4	0.0	50.0	98.8
=	-82.9	0.0	50.0	98.8
=	-82.4	0.0	50.0	98.9
=	-81.8	0.0	50.0	98.9
=	-81.2	0.0	50.0	98.9
=	-80.7	0.0	50.0	98.9
=	-80.2	0.0	50.0	98.9
=	-79.7	0.0	50.0	98.9
=	-79.2	0.0	50.0	98.9
=	-78.7	0.0	50.0	98.9
=	-78.2	0.0	50.0	99.0
=	-77.7	0.0	50.0	99.0
=	-77.2	0.0	50.0	99.0
=	-76.7	0.0	50.0	99.0
=	-76.2	0.0	50.0	99.1
=	-75.7	0.0	50.0	99.1
=	-75.2	0.0	50.0	99.1
=	-74.5	0.0	50.0	99.1
=	-73.8	0.0	50.0	99.2
=	-73.3	0.0	50.0	99.2
=	-72.8	0.0	50.0	99.2
=	-72.1	0.0	50.0	99.2
=	-71.6	0.0	50.0	99.2
=	-71.1	0.0	50.0	99.3
=	-70.6	0.0	50.0	99.3
=	-70.0	0.0	50.0	99.3
=	-69.2	0.0	50.0	99.3
=	-68.4	0.0	50.0	99.3
=	-67.7	0.0	50.0	99.3
=	-66.9	0.0	50.0	99.3
=	-66.2	0.0	50.0	99.4
=	-65.6	0.0	50.0	99.4
=	-64.9	0.0	50.0	99.4
=	-64.2	0.0	50.0	99.4
=	-63.4	0.0	50.0	99.4
=	-62.5	0.0	50.0	99.5
=	-61.6	0.0	50.0	99.6
=	-60.9	0.0	50.0	99.6
=	-60.1	0.0	50.0	99.6
=	-59.3	0.0	50.0	99.6
=	-58.6	0.0	50.0	99.7
=	-57.8	0.0	50.0	99.7
=	-57.1	0.0	50.0	99.7
=	-56.1	0.0	50.0	99.7
=	-55.3	0.0	50.0	99.7
=	-54.4	0.0	50.0	99.7
=	-53.1	0.0	50.0	99.7
=	-52.3	0.0	50.0	99.7
=	-51.6	0.0	50.0	99.7
=	-50.7	0.0	50.0	99.8
=	-50.0	0.0	50.0	99.8
=	-49.2	0.0	50.0	99.8
=	-48.5	0.0	50.0	99.8
=	-47.7	0.0	50.0	99.9
=	-47.0	0.0	50.0	99.9
=	-46.2	0.0	50.0	99.9
=	-45.5	0.0	50.0	99.9
=	-44.7	0.0	50.0	99.9
=	-43.9	0.0	50.0	99.9
=	-43.1	0.0	50.0	99.9
=	-42.4	0.0	50.0	99.9
=	-41.6	0.0	50.0	99.9
=	-40.8	0.0	50.0	99.9
=	-40.1	0.0	50.0	100.0
=	-39.3	0.0	50.0	100.0
=	-38.6	0.0	50.0	100.0
=	-37.8	0.0	50.0	100.0
=	-37.0	0.0	50.0	100.0
=	-36.3	0.0	50.0	100.0
=	-35.4	0.0	50.0	100.0
=	-34.5	0.0	50.0	100.0
=	-33.4	0.0	50.0	100.0
=	-32.3	0.0	50.0	100.0
=	-30.8	0.0	50.0	100.0
=	-29.3	0.0	50.0	100.0
=	-27.8	0.0	50.0	100.0
=	-26.2	0.0	50.0	100.0
=	-24.7	0.0	50.0	100.0
=	-23.7	0.0	50.0	100.0
=	-22.2	0.0	50.0	100.0
=	-21.2	0.0	50.0	100.0
=	-20.3	0.0	50.0	100.0
=	-19.3	0.0	50.0	100.0
=	-18.3	0.0	50.0	100.0
=	-17.5	0.0	50.0	100.0
=	-16.8	0.0	50.0	100.1
=	-15.8	0.0	50.0	100.1
=	-14.9	0.0	50.0	100.1
=	-14.4	0.0	50.0	100.1
=	-13.9	0.0	50.0	100.1
=	-13.4	0.0	50.0	100.1
=	-12.9	0.0	50.0	100.1
=	-12.3	0.0	50.0	100.1
=	-11.8	0.0	50.0	100.1
=	-11.3	0.0	50.0	100.1
=	-10.8	0.0	50.0	100.0
=	-10.3	0.0	50.0	100.0
=	-9.8	0.0	50.0	100.0
=	-9.0	0.0	50.0	100.0
=	-8.2	0.0	50.0	100.0
=	-7.6	0.0	50.0	100.0
=	-6.9	0.0	50.0	100.0
=	-6.2	0.0	50.0	100.0
=	-5.4	0.0	50.0	100.0
=	-4.7	0.0	50.0	100.0
=	-3.9	0.0	50.0	100.0
=	-3.2	0.0	50.0	100.0
=	-2.4	0.0	50.0	100.0
=	-1.7	0.0	50.0	100.0
=	-0.9	0.0	50.0	100.0
=	-0.1	0.0	50.0	100.0
=	0.0	0.0	50.0	100.0
=	0.6	0.0	50.0	100.0
=	1.4	0.0	50.0	100.0
=	2.2	0.0	50.0	100.0
=	2.9	0.0	50.0	100.0
=	3.7	0.0	50.0	100.0
=	4.4	0.0	50.0	100.0
=	5.2	0.0	50.0	100.0
=	5.9	0.0	50.0	100.0
=	6.7	0.0	50.0	100.0
=	7.4	0.0	50.0	100.0
=	8.0	0.0	50.0	100.0
=	8.7	0.0	50.0	100.0
=	9.5	0.0	50.0	100.0
=	10.2	0.0	50.0	100.0
=	10.7	0.0	50.0	100.0
=	11.2	0.0	50.0	100.0
=	11.7	0.0	50.0	100.1
=	12.2	0.0	50.0	100.1
=	12.7	0.0	50.0	100.1
=	13.2	0.0	50.0	100.1
=	13.7	0.0	50.0	100.1
=	14.2	0.0	50.0	100.1
=	14.7	0.0	50.0	100.1
=	15.5	0.0	50.0	100.1
=	16.5	0.0	50.0	100.1
=	17.3	0.0	50.0	100.1
=	18.0	0.0	50.0	100.0
=	19.0	0.0	50.0	100.0
=	20.0	0.0	50.0	100.0
=	20.8	0.0	50.0	100.0
=	21.8	0.0	50.0	100.0
=	23.2	0.0	50.0	100.0
=	24.4	0.0	50.0	100.0
=	25.7	0.0	50.0	100.0
=	27.3	0.0	50.0	100.0
=	28.8	0.0	50.0	100.0
=	30.3	0.0	50.0	100.0
=	31.9	0.0	50.0	100.0
=	33.0	0.0	50.0	100.0
=	34.2	0.0	50.0	100.0
=	35.0	0.0	50.0	100.0
=	36.0	0.0	50.0	100.0
=	36.8	0.0	50.0	100.0
=	37.6	0.0	50.0	100.0
=	38.3	0.0	50.0	100.0
=	39.1	0.0	50.0	100.0
=	39.8	0.0	50.0	100.0
=	40.6	0.0	50.0	99.9
=	41.4	0.0	50.0	99.9
=	42.1	0.0	50.0	99.9
=	42.9	0.0	50.0	99.9
=	43.7	0.0	50.0	99.9
=	44.4	0.0	50.0	99.9
=	45.2	0.0	50.0	99.9
=	46.0	0.0	50.0	99.9
=	46.7	0.0	50.0	99.9
=	47.5	0.0	50.0	99.9
=	48.2	0.0	50.0	99.8
=	49.0	0.0	50.0	99.8
=	49.7	0.0	50.0	99.8
=	50.5	0.0	50.0	99.8
=	51.3	0.0	50.0	99.7
=	52.1	0.0	50.0	99.7
=	52.8	0.0	50.0	99.7
=	54.0	0.0	50.0	99.7
=	55.1	0.0	50.0	99.7
=	55.8	0.0	50.0	99.7
=	56.8	0.0	50.0	99.7
=	57.6	0.0	50.0	99.7
=	58.3	0.0	50.0	99.7
=	59.1	0.0	50.0	99.7
=	59.8	0.0	50.0	99.6
=	60.6	0.0	50.0	99.6
=	61.4	0.0	50.0	99.6
=	62.2	0.0	50.0	99.5
=	63.2	0.0	50.0	99.5
=	63.9	0.0	50.0	99.4
=	64.7	0.0	50.0	99.4
=	65.4	0.0	50.0	99.4
=	65.9	0.0	50.0	99.4
=	66.7	0.0	50.0	99.3
=	67.4	0.0	50.0	99.3
=	68.2	0.0	50.0	99.3
=	68.9	0.0	50.0	99.3
=	69.7	0.0	50.0	99.3
=	70.4	0.0	50.0	99.3
=	71.0	0.0	50.0	99.3
=	71.5	0.0	50.0	99.2
=	72.0	0.0	50.0	99.2
=	72.5	0.0	50.0	99.2
=	73.1	0.0	50.0	99.2
=	73.6	0.0	50.0	99.2
=	74.2	0.0	50.0	99.2
=	75.0	0.0	50.0	99.1
=	75.5	0.0	50.0	99.1
=	76.0	0.0	50.0	99.1
=	76.5	0.0	50.0	99.0
=	77.0	0.0	50.0	99.0
=	77.5	0.0	50.0	99.0
=	78.0	0.0	50.0	99.0
=	78.5	0.0	50.0	98.9
=	79.0	0.0	50.0	98.9
=	79.6	0.0	50.0	98.9
=	80.1	0.0	50.0	98.9
=	80.6	0.0	50.0	98.9
=	81.1	0.0	50.0	98.9
=	81.6	0.0	50.0	98.9
=	82.2	0.0	50.0	98.9
=	82.7	0.0	50.0	98.9
=	83.2	0.0	50.0	98.8
=	83.7	0.0	50.0	98.8
=	84.2	0.0	50.0	98.8
=	84.8	0.0	50.0	98.8
=	85.5	0.0	50.0	98.8
=	86.3	0.0	50.0	98.7
=	86.9	0.0	50.0	98.7
=	87.5	0.0	50.0	98.6
=	88.3	0.0	50.0	98.6
=	89.1	0.0	50.0	98.6
=	89.8	0.0	50.0	98.5
=	90.6	0.0	50.0	98.5
=	91.3	0.0	50.0	98.5
=	92.1	0.0	50.0	98.5
=	92.8	0.0	50.0	98.4
=	93.6	0.0	50.0	98.4
=	94.3	0.0	50.0	98.3
=	95.1	0.0	50.0	98.3
=	95.9	0.0	50.0	98.3
=	96.6	0.0	50.0	98.2
=	97.4	0.0	50.0	98.2
=	98.1	0.0	50.0	98.2
=	98.9	0.0	50.0	98.1
=	99.7	0.0	50.0	98.1
=	100.4	0.0	50.0	98.1
=	101.2	0.0	50.0	98.1
=	101.8	0.0	50.0	98.1
=	102.3	0.0	50.0	98.0
=	102.8	0.0	50.0	97.9
=	103.3	0.0	50.0	97.9
=	103.9	0.0	50.0	97.9
=	104.7	0.0	50.0	97.8
=	105.3	0.0	50.0	97.8
=	105.8	0.0	50.0	97.8
=	106.3	0.0	50.0	97.8
=	107.0	0.0	50.0	97.8
=	107.7	0.0	50.0	97.7
=	108.2	0.0	50.0	97.7
=	108.7	0.0	50.0	97.6
=	109.2	0.0	50.0	97.6
=	109.7	0.0	50.0	97.6
=	110.2	0.0	50.0	97.5
=	110.7	0.0	50.0	97.5
=	111.2	0.0	50.0	97.5
=	111.7	0.0	50.0	97.5
=	112.2	0.0	50.0	97.4
=	112.7	0.0	50.0	97.4
=	113.2	0.0	50.0	97.4
=	113.7	0.0	50.0	97.4
=	114.2	0.0	50.0	97.4
=	114.7	0.0	50.0	97.3
=	115.2	0.0	50.0	97.3
=	115.7	0.0	50.0	97.3
=	116.3	0.0	50.0	97.2
=	116.9	0.0	50.0	97.2
=	117.4	0.0	50.0	97.2
=	117.9	0.0	50.0	97.1
=	118.4	0.0	50.0	97.1
=	118.9	0.0	50.0	97.1
=	119.4	0.0	50.0	97.1
=	120.0	0.0	50.0	97.1
=	120.8	0.0	50.0	97.0
=	121.5	0.0	50.0	97.0
=	122.1	0.0	50.0	96.9
=	122.6	0.0	50.0	96.9
=	123.1	0.0	50.0	96.9
=	123.6	0.0	50.0	96.9
