:MSR 	4	 # No. of measurement in file
:SYS BDS 0   # Beam Data Scanner System
#
# RFA300 ASCII Measurement Dump ( BDS format )
#
# Measurement number 	1
#
%VNR 1.0
%MOD 	RAT
%TYP 	SCN
%SCN 	DPT
%FLD 	ION
%DAT 	02-03-2012
%TIM 	12:00:00
%FSZ 	040	040
%BMT 	PHO	   8.0
%SSD 	0800
%BUP 	0
%BRD 	0800
%FSH 	1
%ASC 	0
%WEG 	60
%GPO 	0
%CPO 	0
%MEA 	5
%PRD 	0,0
%PTS 	762
%STS 	    0.0	  0.0	   0.0 # Start Scan values in mm ( X , Y , Z )
%EDS 	    0.0	   0.0	   348.1 # End Scan values in mm ( X , Y , Z )
#
#	  X      Y      Z     Dose
#
=	0.0	0.0	0.0	32.1
=	0.0	0.0	0.2	32.9
=	0.0	0.0	0.7	34.5
=	0.0	0.0	1.1	36.7
=	0.0	0.0	1.6	39.3
=	0.0	0.0	2.1	42.7
=	0.0	0.0	2.4	46.2
=	0.0	0.0	2.9	51.8
=	0.0	0.0	3.4	56.6
=	0.0	0.0	3.8	60.1
=	0.0	0.0	4.1	62.5
=	0.0	0.0	4.5	65.7
=	0.0	0.0	5.2	70.7
=	0.0	0.0	5.9	75.0
=	0.0	0.0	6.1	76.4
=	0.0	0.0	6.5	78.6
=	0.0	0.0	7.2	81.8
=	0.0	0.0	7.7	83.7
=	0.0	0.0	8.1	85.5
=	0.0	0.0	8.8	87.8
=	0.0	0.0	9.7	90.4
=	0.0	0.0	10.1	91.7
=	0.0	0.0	10.8	93.1
=	0.0	0.0	11.7	94.8
=	0.0	0.0	12.2	95.5
=	0.0	0.0	12.6	96.2
=	0.0	0.0	13.3	97.1
=	0.0	0.0	13.8	97.6
=	0.0	0.0	14.2	98.1
=	0.0	0.0	14.9	98.6
=	0.0	0.0	15.4	98.9
=	0.0	0.0	15.8	99.2
=	0.0	0.0	16.2	99.5
=	0.0	0.0	16.9	99.8
=	0.0	0.0	17.4	99.9
=	0.0	0.0	17.8	99.9
=	0.0	0.0	18.3	100.0
=	0.0	0.0	18.9	100.0
=	0.0	0.0	19.4	100.0
=	0.0	0.0	19.7	100.0
=	0.0	0.0	20.0	100.0
=	0.0	0.0	20.5	100.0
=	0.0	0.0	21.3	99.9
=	0.0	0.0	21.7	99.9
=	0.0	0.0	22.1	99.8
=	0.0	0.0	22.5	99.7
=	0.0	0.0	23.0	99.6
=	0.0	0.0	23.5	99.5
=	0.0	0.0	23.9	99.4
=	0.0	0.0	24.3	99.2
=	0.0	0.0	25.0	98.8
=	0.0	0.0	25.5	98.7
=	0.0	0.0	25.9	98.5
=	0.0	0.0	26.3	98.4
=	0.0	0.0	27.0	98.1
=	0.0	0.0	27.9	97.7
=	0.0	0.0	28.3	97.6
=	0.0	0.0	28.8	97.4
=	0.0	0.0	29.5	97.0
=	0.0	0.0	30.0	96.8
=	0.0	0.0	30.4	96.6
=	0.0	0.0	30.8	96.3
=	0.0	0.0	31.5	96.0
=	0.0	0.0	32.2	95.6
=	0.0	0.0	32.6	95.5
=	0.0	0.0	33.1	95.2
=	0.0	0.0	33.8	94.8
=	0.0	0.0	34.2	94.6
=	0.0	0.0	34.5	94.4
=	0.0	0.0	34.9	94.3
=	0.0	0.0	35.5	94.0
=	0.0	0.0	36.0	93.7
=	0.0	0.0	36.4	93.5
=	0.0	0.0	36.9	93.2
=	0.0	0.0	37.6	92.9
=	0.0	0.0	38.1	92.7
=	0.0	0.0	38.5	92.5
=	0.0	0.0	38.9	92.3
=	0.0	0.0	39.6	91.9
=	0.0	0.0	40.1	91.6
=	0.0	0.0	40.4	91.5
=	0.0	0.0	40.7	91.3
=	0.0	0.0	41.2	91.0
=	0.0	0.0	41.7	90.8
=	0.0	0.0	42.1	90.7
=	0.0	0.0	42.5	90.6
=	0.0	0.0	42.8	90.4
=	0.0	0.0	43.2	90.2
=	0.0	0.0	43.7	89.9
=	0.0	0.0	44.2	89.7
=	0.0	0.0	44.5	89.6
=	0.0	0.0	45.0	89.3
=	0.0	0.0	45.5	88.9
=	0.0	0.0	46.0	88.7
=	0.0	0.0	46.4	88.6
=	0.0	0.0	46.8	88.3
=	0.0	0.0	47.1	88.1
=	0.0	0.0	47.6	88.0
=	0.0	0.0	48.0	87.8
=	0.0	0.0	48.4	87.6
=	0.0	0.0	48.8	87.4
=	0.0	0.0	49.4	87.1
=	0.0	0.0	49.8	87.0
=	0.0	0.0	50.3	86.8
=	0.0	0.0	50.7	86.5
=	0.0	0.0	51.1	86.2
=	0.0	0.0	51.6	86.0
=	0.0	0.0	52.1	85.8
=	0.0	0.0	52.4	85.6
=	0.0	0.0	52.9	85.4
=	0.0	0.0	53.3	85.2
=	0.0	0.0	53.9	84.9
=	0.0	0.0	54.3	84.8
=	0.0	0.0	54.5	84.6
=	0.0	0.0	54.9	84.4
=	0.0	0.0	55.4	84.2
=	0.0	0.0	55.9	84.0
=	0.0	0.0	56.4	83.8
=	0.0	0.0	56.7	83.5
=	0.0	0.0	57.2	83.4
=	0.0	0.0	57.6	83.2
=	0.0	0.0	58.1	82.9
=	0.0	0.0	58.6	82.7
=	0.0	0.0	58.9	82.6
=	0.0	0.0	59.5	82.3
=	0.0	0.0	59.9	82.1
=	0.0	0.0	60.4	81.9
=	0.0	0.0	60.8	81.8
=	0.0	0.0	61.2	81.6
=	0.0	0.0	61.7	81.3
=	0.0	0.0	62.2	81.1
=	0.0	0.0	62.5	80.9
=	0.0	0.0	62.8	80.8
=	0.0	0.0	63.2	80.5
=	0.0	0.0	63.8	80.2
=	0.0	0.0	64.2	80.0
=	0.0	0.0	64.5	79.9
=	0.0	0.0	64.8	79.8
=	0.0	0.0	65.3	79.7
=	0.0	0.0	65.8	79.4
=	0.0	0.0	66.2	79.3
=	0.0	0.0	66.5	79.1
=	0.0	0.0	66.8	78.9
=	0.0	0.0	67.3	78.7
=	0.0	0.0	67.7	78.4
=	0.0	0.0	68.3	78.2
=	0.0	0.0	68.7	78.0
=	0.0	0.0	69.0	77.9
=	0.0	0.0	69.5	77.8
=	0.0	0.0	70.0	77.5
=	0.0	0.0	70.5	77.3
=	0.0	0.0	71.0	77.0
=	0.0	0.0	71.4	76.9
=	0.0	0.0	71.8	76.7
=	0.0	0.0	72.3	76.5
=	0.0	0.0	72.7	76.3
=	0.0	0.0	73.2	76.1
=	0.0	0.0	73.9	75.8
=	0.0	0.0	74.6	75.5
=	0.0	0.0	75.0	75.2
=	0.0	0.0	75.5	75.0
=	0.0	0.0	76.2	74.7
=	0.0	0.0	76.6	74.6
=	0.0	0.0	77.0	74.4
=	0.0	0.0	77.5	74.3
=	0.0	0.0	78.3	73.9
=	0.0	0.0	78.8	73.7
=	0.0	0.0	79.3	73.5
=	0.0	0.0	79.9	73.2
=	0.0	0.0	80.4	72.9
=	0.0	0.0	80.8	72.8
=	0.0	0.0	81.1	72.7
=	0.0	0.0	81.5	72.6
=	0.0	0.0	82.0	72.3
=	0.0	0.0	82.5	72.1
=	0.0	0.0	82.8	72.0
=	0.0	0.0	83.1	71.8
=	0.0	0.0	83.6	71.7
=	0.0	0.0	84.1	71.5
=	0.0	0.0	84.5	71.2
=	0.0	0.0	84.8	71.1
=	0.0	0.0	85.2	71.0
=	0.0	0.0	85.6	70.9
=	0.0	0.0	86.1	70.7
=	0.0	0.0	86.5	70.5
=	0.0	0.0	87.0	70.3
=	0.0	0.0	87.4	70.1
=	0.0	0.0	87.8	69.9
=	0.0	0.0	88.4	69.8
=	0.0	0.0	88.8	69.6
=	0.0	0.0	89.2	69.4
=	0.0	0.0	89.6	69.2
=	0.0	0.0	90.1	69.0
=	0.0	0.0	90.6	68.8
=	0.0	0.0	91.1	68.7
=	0.0	0.0	91.4	68.6
=	0.0	0.0	91.9	68.4
=	0.0	0.0	92.4	68.2
=	0.0	0.0	92.9	67.9
=	0.0	0.0	93.3	67.8
=	0.0	0.0	93.5	67.7
=	0.0	0.0	93.9	67.6
=	0.0	0.0	94.4	67.5
=	0.0	0.0	94.9	67.3
=	0.0	0.0	95.3	67.1
=	0.0	0.0	95.6	67.0
=	0.0	0.0	95.9	66.8
=	0.0	0.0	96.4	66.6
=	0.0	0.0	96.7	66.5
=	0.0	0.0	97.1	66.4
=	0.0	0.0	97.7	66.1
=	0.0	0.0	98.2	66.0
=	0.0	0.0	98.5	65.9
=	0.0	0.0	99.0	65.7
=	0.0	0.0	99.5	65.5
=	0.0	0.0	100.0	65.3
=	0.0	0.0	100.3	65.2
=	0.0	0.0	100.6	65.0
=	0.0	0.0	101.0	64.8
=	0.0	0.0	101.5	64.7
=	0.0	0.0	102.0	64.5
=	0.0	0.0	102.3	64.4
=	0.0	0.0	102.6	64.2
=	0.0	0.0	103.0	64.0
=	0.0	0.0	103.5	63.9
=	0.0	0.0	104.0	63.8
=	0.0	0.0	104.4	63.6
=	0.0	0.0	104.8	63.4
=	0.0	0.0	105.5	63.2
=	0.0	0.0	106.0	63.1
=	0.0	0.0	106.4	63.0
=	0.0	0.0	106.8	62.8
=	0.0	0.0	107.3	62.6
=	0.0	0.0	107.8	62.4
=	0.0	0.0	108.2	62.2
=	0.0	0.0	108.5	62.1
=	0.0	0.0	108.8	62.0
=	0.0	0.0	109.3	61.8
=	0.0	0.0	109.8	61.6
=	0.0	0.0	110.3	61.5
=	0.0	0.0	110.6	61.4
=	0.0	0.0	111.1	61.2
=	0.0	0.0	111.6	61.1
=	0.0	0.0	112.1	61.0
=	0.0	0.0	112.5	60.8
=	0.0	0.0	112.9	60.7
=	0.0	0.0	113.3	60.5
=	0.0	0.0	113.8	60.3
=	0.0	0.0	114.3	60.1
=	0.0	0.0	114.7	60.0
=	0.0	0.0	115.1	59.8
=	0.0	0.0	115.6	59.6
=	0.0	0.0	116.1	59.5
=	0.0	0.0	116.5	59.3
=	0.0	0.0	116.9	59.2
=	0.0	0.0	117.4	59.1
=	0.0	0.0	117.9	58.9
=	0.0	0.0	118.3	58.8
=	0.0	0.0	118.8	58.6
=	0.0	0.0	119.2	58.4
=	0.0	0.0	119.9	58.2
=	0.0	0.0	120.4	58.1
=	0.0	0.0	120.8	57.9
=	0.0	0.0	121.3	57.7
=	0.0	0.0	121.9	57.5
=	0.0	0.0	122.4	57.3
=	0.0	0.0	122.8	57.2
=	0.0	0.0	123.3	57.1
=	0.0	0.0	123.7	56.9
=	0.0	0.0	124.2	56.7
=	0.0	0.0	124.6	56.6
=	0.0	0.0	125.1	56.5
=	0.0	0.0	125.7	56.2
=	0.0	0.0	126.4	56.1
=	0.0	0.0	126.9	55.9
=	0.0	0.0	127.3	55.8
=	0.0	0.0	128.2	55.6
=	0.0	0.0	128.7	55.3
=	0.0	0.0	129.1	55.1
=	0.0	0.0	129.8	54.9
=	0.0	0.0	130.5	54.7
=	0.0	0.0	130.9	54.6
=	0.0	0.0	131.3	54.5
=	0.0	0.0	131.9	54.3
=	0.0	0.0	132.3	54.2
=	0.0	0.0	132.6	54.1
=	0.0	0.0	132.9	54.0
=	0.0	0.0	133.4	53.8
=	0.0	0.0	133.9	53.7
=	0.0	0.0	134.3	53.5
=	0.0	0.0	134.8	53.4
=	0.0	0.0	135.1	53.3
=	0.0	0.0	135.6	53.2
=	0.0	0.0	136.1	53.0
=	0.0	0.0	136.6	52.8
=	0.0	0.0	137.0	52.7
=	0.0	0.0	137.3	52.7
=	0.0	0.0	137.6	52.6
=	0.0	0.0	138.2	52.4
=	0.0	0.0	138.6	52.3
=	0.0	0.0	139.0	52.2
=	0.0	0.0	139.4	52.1
=	0.0	0.0	139.9	52.0
=	0.0	0.0	140.4	51.8
=	0.0	0.0	140.8	51.6
=	0.0	0.0	141.2	51.5
=	0.0	0.0	141.7	51.4
=	0.0	0.0	142.2	51.3
=	0.0	0.0	142.6	51.1
=	0.0	0.0	143.0	51.0
=	0.0	0.0	143.4	50.9
=	0.0	0.0	143.9	50.8
=	0.0	0.0	144.4	50.6
=	0.0	0.0	144.9	50.5
=	0.0	0.0	145.2	50.4
=	0.0	0.0	145.5	50.3
=	0.0	0.0	145.9	50.2
=	0.0	0.0	146.4	50.1
=	0.0	0.0	146.9	50.0
=	0.0	0.0	147.2	49.8
=	0.0	0.0	147.5	49.7
=	0.0	0.0	148.0	49.6
=	0.0	0.0	148.4	49.5
=	0.0	0.0	148.9	49.4
=	0.0	0.0	149.2	49.3
=	0.0	0.0	149.5	49.2
=	0.0	0.0	149.9	49.1
=	0.0	0.0	150.4	48.9
=	0.0	0.0	150.9	48.8
=	0.0	0.0	151.2	48.6
=	0.0	0.0	151.7	48.5
=	0.0	0.0	152.2	48.4
=	0.0	0.0	152.7	48.3
=	0.0	0.0	153.1	48.2
=	0.0	0.0	153.5	48.0
=	0.0	0.0	154.0	47.9
=	0.0	0.0	154.3	47.8
=	0.0	0.0	154.8	47.7
=	0.0	0.0	155.2	47.6
=	0.0	0.0	155.5	47.5
=	0.0	0.0	156.0	47.3
=	0.0	0.0	156.4	47.2
=	0.0	0.0	156.8	47.1
=	0.0	0.0	157.2	47.0
=	0.0	0.0	157.6	47.0
=	0.0	0.0	158.0	46.8
=	0.0	0.0	158.5	46.7
=	0.0	0.0	159.0	46.6
=	0.0	0.0	159.5	46.5
=	0.0	0.0	159.8	46.4
=	0.0	0.0	160.3	46.3
=	0.0	0.0	160.8	46.2
=	0.0	0.0	161.3	46.0
=	0.0	0.0	161.6	45.9
=	0.0	0.0	162.0	45.8
=	0.0	0.0	162.5	45.6
=	0.0	0.0	163.1	45.5
=	0.0	0.0	163.6	45.4
=	0.0	0.0	164.1	45.3
=	0.0	0.0	164.5	45.1
=	0.0	0.0	164.9	45.0
=	0.0	0.0	165.3	45.0
=	0.0	0.0	165.8	44.9
=	0.0	0.0	166.3	44.8
=	0.0	0.0	166.7	44.6
=	0.0	0.0	167.1	44.5
=	0.0	0.0	167.6	44.4
=	0.0	0.0	168.1	44.2
=	0.0	0.0	168.6	44.1
=	0.0	0.0	168.9	44.0
=	0.0	0.0	169.4	43.9
=	0.0	0.0	169.9	43.8
=	0.0	0.0	170.3	43.8
=	0.0	0.0	170.8	43.6
=	0.0	0.0	171.1	43.5
=	0.0	0.0	171.7	43.4
=	0.0	0.0	172.2	43.2
=	0.0	0.0	172.6	43.1
=	0.0	0.0	173.0	43.0
=	0.0	0.0	173.3	43.0
=	0.0	0.0	173.7	42.8
=	0.0	0.0	174.2	42.7
=	0.0	0.0	174.7	42.6
=	0.0	0.0	175.0	42.6
=	0.0	0.0	175.5	42.4
=	0.0	0.0	176.2	42.2
=	0.0	0.0	176.7	42.2
=	0.0	0.0	177.1	42.0
=	0.0	0.0	177.3	42.0
=	0.0	0.0	177.7	41.9
=	0.0	0.0	178.2	41.7
=	0.0	0.0	178.7	41.6
=	0.0	0.0	179.1	41.5
=	0.0	0.0	179.4	41.5
=	0.0	0.0	179.8	41.4
=	0.0	0.0	180.2	41.3
=	0.0	0.0	180.7	41.2
=	0.0	0.0	181.1	41.1
=	0.0	0.0	181.4	41.0
=	0.0	0.0	181.7	40.9
=	0.0	0.0	182.2	40.8
=	0.0	0.0	182.7	40.7
=	0.0	0.0	183.2	40.6
=	0.0	0.0	183.6	40.5
=	0.0	0.0	184.1	40.4
=	0.0	0.0	184.8	40.4
=	0.0	0.0	185.2	40.2
=	0.0	0.0	185.6	40.1
=	0.0	0.0	186.1	40.0
=	0.0	0.0	186.6	39.9
=	0.0	0.0	187.3	39.7
=	0.0	0.0	187.7	39.6
=	0.0	0.0	188.1	39.5
=	0.0	0.0	188.5	39.5
=	0.0	0.0	189.3	39.3
=	0.0	0.0	189.7	39.2
=	0.0	0.0	190.2	39.1
=	0.0	0.0	190.6	39.1
=	0.0	0.0	191.0	39.0
=	0.0	0.0	191.5	38.9
=	0.0	0.0	192.0	38.8
=	0.0	0.0	192.3	38.7
=	0.0	0.0	192.6	38.6
=	0.0	0.0	193.3	38.4
=	0.0	0.0	193.8	38.4
=	0.0	0.0	194.2	38.2
=	0.0	0.0	194.5	38.2
=	0.0	0.0	194.8	38.1
=	0.0	0.0	195.3	38.0
=	0.0	0.0	195.8	37.9
=	0.0	0.0	196.2	37.8
=	0.0	0.0	196.5	37.8
=	0.0	0.0	196.9	37.7
=	0.0	0.0	197.3	37.6
=	0.0	0.0	197.8	37.4
=	0.0	0.0	198.2	37.4
=	0.0	0.0	198.5	37.4
=	0.0	0.0	198.8	37.3
=	0.0	0.0	199.1	37.2
=	0.0	0.0	199.6	37.1
=	0.0	0.0	200.0	37.0
=	0.0	0.0	200.5	36.9
=	0.0	0.0	200.8	36.9
=	0.0	0.0	201.1	36.8
=	0.0	0.0	201.6	36.7
=	0.0	0.0	202.1	36.6
=	0.0	0.0	202.5	36.5
=	0.0	0.0	202.9	36.5
=	0.0	0.0	203.2	36.4
=	0.0	0.0	203.6	36.3
=	0.0	0.0	204.3	36.2
=	0.0	0.0	204.7	36.0
=	0.0	0.0	205.2	35.9
=	0.0	0.0	206.1	35.8
=	0.0	0.0	206.5	35.7
=	0.0	0.0	206.9	35.7
=	0.0	0.0	207.2	35.6
=	0.0	0.0	207.6	35.5
=	0.0	0.0	208.1	35.4
=	0.0	0.0	208.6	35.3
=	0.0	0.0	208.9	35.3
=	0.0	0.0	209.2	35.2
=	0.0	0.0	209.6	35.1
=	0.0	0.0	210.1	35.0
=	0.0	0.0	210.6	34.9
=	0.0	0.0	210.9	34.9
=	0.0	0.0	211.2	34.8
=	0.0	0.0	211.7	34.7
=	0.0	0.0	212.1	34.6
=	0.0	0.0	212.6	34.5
=	0.0	0.0	213.0	34.4
=	0.0	0.0	213.4	34.3
=	0.0	0.0	213.9	34.3
=	0.0	0.0	214.4	34.1
=	0.0	0.0	214.8	34.0
=	0.0	0.0	215.3	34.0
=	0.0	0.0	215.5	34.0
=	0.0	0.0	215.9	33.9
=	0.0	0.0	216.4	33.8
=	0.0	0.0	216.9	33.7
=	0.0	0.0	217.2	33.6
=	0.0	0.0	217.6	33.6
=	0.0	0.0	217.9	33.5
=	0.0	0.0	218.4	33.4
=	0.0	0.0	218.9	33.3
=	0.0	0.0	219.3	33.2
=	0.0	0.0	219.6	33.2
=	0.0	0.0	220.0	33.1
=	0.0	0.0	220.7	33.0
=	0.0	0.0	221.2	32.9
=	0.0	0.0	221.6	32.8
=	0.0	0.0	222.1	32.7
=	0.0	0.0	222.7	32.7
=	0.0	0.0	223.2	32.5
=	0.0	0.0	223.6	32.5
=	0.0	0.0	224.1	32.4
=	0.0	0.0	224.7	32.3
=	0.0	0.0	225.4	32.2
=	0.0	0.0	225.9	32.1
=	0.0	0.0	226.3	32.1
=	0.0	0.0	227.2	31.9
=	0.0	0.0	227.6	31.8
=	0.0	0.0	228.1	31.7
=	0.0	0.0	228.8	31.5
=	0.0	0.0	229.5	31.4
=	0.0	0.0	229.9	31.3
=	0.0	0.0	230.4	31.3
=	0.0	0.0	231.2	31.2
=	0.0	0.0	231.7	31.1
=	0.0	0.0	232.2	31.1
=	0.0	0.0	232.6	31.0
=	0.0	0.0	233.3	30.9
=	0.0	0.0	233.7	30.8
=	0.0	0.0	234.2	30.7
=	0.0	0.0	234.8	30.6
=	0.0	0.0	235.5	30.4
=	0.0	0.0	236.0	30.4
=	0.0	0.0	236.4	30.3
=	0.0	0.0	236.9	30.3
=	0.0	0.0	237.6	30.1
=	0.0	0.0	238.0	30.1
=	0.0	0.0	238.5	30.0
=	0.0	0.0	238.9	29.9
=	0.0	0.0	239.6	29.8
=	0.0	0.0	240.0	29.7
=	0.0	0.0	240.3	29.7
=	0.0	0.0	240.7	29.6
=	0.0	0.0	241.3	29.5
=	0.0	0.0	242.1	29.4
=	0.0	0.0	242.5	29.3
=	0.0	0.0	242.9	29.3
=	0.0	0.0	243.8	29.2
=	0.0	0.0	244.3	29.0
=	0.0	0.0	244.7	29.0
=	0.0	0.0	245.4	28.8
=	0.0	0.0	246.1	28.7
=	0.0	0.0	246.5	28.7
=	0.0	0.0	247.0	28.7
=	0.0	0.0	247.4	28.6
=	0.0	0.0	248.1	28.5
=	0.0	0.0	248.5	28.4
=	0.0	0.0	249.0	28.3
=	0.0	0.0	249.8	28.2
=	0.0	0.0	250.3	28.1
=	0.0	0.0	250.8	28.1
=	0.0	0.0	251.4	28.0
=	0.0	0.0	252.2	27.8
=	0.0	0.0	252.6	27.7
=	0.0	0.0	253.0	27.6
=	0.0	0.0	253.9	27.5
=	0.0	0.0	254.4	27.5
=	0.0	0.0	254.8	27.4
=	0.0	0.0	255.3	27.4
=	0.0	0.0	255.9	27.3
=	0.0	0.0	256.4	27.2
=	0.0	0.0	256.9	27.1
=	0.0	0.0	257.3	27.1
=	0.0	0.0	258.0	27.0
=	0.0	0.0	258.5	26.9
=	0.0	0.0	258.9	26.9
=	0.0	0.0	259.3	26.8
=	0.0	0.0	259.8	26.7
=	0.0	0.0	260.4	26.6
=	0.0	0.0	260.9	26.5
=	0.0	0.0	261.3	26.5
=	0.0	0.0	261.6	26.5
=	0.0	0.0	262.4	26.3
=	0.0	0.0	262.9	26.3
=	0.0	0.0	263.4	26.2
=	0.0	0.0	263.8	26.1
=	0.0	0.0	264.3	26.0
=	0.0	0.0	264.8	25.9
=	0.0	0.0	265.2	25.9
=	0.0	0.0	265.6	25.9
=	0.0	0.0	266.1	25.8
=	0.0	0.0	266.7	25.7
=	0.0	0.0	267.2	25.7
=	0.0	0.0	267.6	25.6
=	0.0	0.0	268.1	25.6
=	0.0	0.0	268.8	25.5
=	0.0	0.0	269.2	25.4
=	0.0	0.0	269.6	25.3
=	0.0	0.0	270.1	25.3
=	0.0	0.0	270.6	25.2
=	0.0	0.0	271.0	25.2
=	0.0	0.0	271.4	25.1
=	0.0	0.0	271.9	25.0
=	0.0	0.0	272.4	25.0
=	0.0	0.0	272.9	24.9
=	0.0	0.0	273.2	24.8
=	0.0	0.0	273.5	24.8
=	0.0	0.0	273.9	24.8
=	0.0	0.0	274.4	24.7
=	0.0	0.0	274.9	24.6
=	0.0	0.0	275.3	24.6
=	0.0	0.0	275.7	24.5
=	0.0	0.0	276.2	24.5
=	0.0	0.0	276.7	24.4
=	0.0	0.0	277.2	24.3
=	0.0	0.0	277.7	24.3
=	0.0	0.0	278.2	24.2
=	0.0	0.0	278.7	24.1
=	0.0	0.0	279.2	24.1
=	0.0	0.0	279.5	24.1
=	0.0	0.0	279.8	24.0
=	0.0	0.0	280.2	24.0
=	0.0	0.0	280.7	23.8
=	0.0	0.0	281.3	23.8
=	0.0	0.0	281.8	23.8
=	0.0	0.0	282.2	23.7
=	0.0	0.0	282.8	23.6
=	0.0	0.0	283.3	23.5
=	0.0	0.0	283.8	23.5
=	0.0	0.0	284.2	23.4
=	0.0	0.0	284.6	23.4
=	0.0	0.0	285.1	23.3
=	0.0	0.0	285.4	23.3
=	0.0	0.0	285.8	23.2
=	0.0	0.0	286.3	23.2
=	0.0	0.0	286.8	23.1
=	0.0	0.0	287.3	23.0
=	0.0	0.0	287.8	23.0
=	0.0	0.0	288.3	22.9
=	0.0	0.0	288.6	22.9
=	0.0	0.0	289.1	22.8
=	0.0	0.0	289.6	22.8
=	0.0	0.0	290.1	22.7
=	0.0	0.0	290.5	22.7
=	0.0	0.0	290.9	22.6
=	0.0	0.0	291.3	22.5
=	0.0	0.0	291.9	22.5
=	0.0	0.0	292.3	22.4
=	0.0	0.0	292.7	22.4
=	0.0	0.0	293.1	22.3
=	0.0	0.0	293.6	22.3
=	0.0	0.0	294.1	22.2
=	0.0	0.0	294.6	22.1
=	0.0	0.0	295.1	22.1
=	0.0	0.0	295.6	22.0
=	0.0	0.0	295.9	22.0
=	0.0	0.0	296.4	21.9
=	0.0	0.0	296.8	21.9
=	0.0	0.0	297.3	21.9
=	0.0	0.0	297.8	21.8
=	0.0	0.0	298.1	21.8
=	0.0	0.0	298.6	21.7
=	0.0	0.0	299.1	21.6
=	0.0	0.0	299.4	21.6
=	0.0	0.0	299.8	21.5
=	0.0	0.0	300.4	21.5
=	0.0	0.0	300.9	21.4
=	0.0	0.0	301.3	21.4
=	0.0	0.0	301.8	21.3
=	0.0	0.0	302.4	21.3
=	0.0	0.0	302.9	21.2
=	0.0	0.0	303.2	21.2
=	0.0	0.0	303.7	21.1
=	0.0	0.0	304.1	21.1
=	0.0	0.0	304.6	21.0
=	0.0	0.0	305.1	21.0
=	0.0	0.0	305.4	20.9
=	0.0	0.0	305.9	20.9
=	0.0	0.0	306.3	20.8
=	0.0	0.0	306.6	20.8
=	0.0	0.0	307.1	20.7
=	0.0	0.0	307.7	20.7
=	0.0	0.0	308.1	20.6
=	0.0	0.0	308.5	20.6
=	0.0	0.0	308.9	20.5
=	0.0	0.0	309.4	20.5
=	0.0	0.0	309.9	20.4
=	0.0	0.0	310.3	20.3
=	0.0	0.0	310.7	20.3
=	0.0	0.0	311.1	20.3
=	0.0	0.0	311.7	20.2
=	0.0	0.0	312.2	20.2
=	0.0	0.0	312.5	20.1
=	0.0	0.0	312.8	20.1
=	0.0	0.0	313.2	20.1
=	0.0	0.0	313.7	20.1
=	0.0	0.0	314.2	20.0
=	0.0	0.0	314.5	20.0
=	0.0	0.0	314.8	19.9
=	0.0	0.0	315.2	19.9
=	0.0	0.0	315.6	19.8
=	0.0	0.0	316.2	19.8
=	0.0	0.0	316.7	19.7
=	0.0	0.0	317.0	19.7
=	0.0	0.0	317.3	19.7
=	0.0	0.0	317.7	19.6
=	0.0	0.0	318.1	19.6
=	0.0	0.0	318.6	19.5
=	0.0	0.0	319.0	19.5
=	0.0	0.0	319.3	19.4
=	0.0	0.0	319.7	19.4
=	0.0	0.0	320.4	19.3
=	0.0	0.0	320.9	19.3
=	0.0	0.0	321.2	19.2
=	0.0	0.0	321.5	19.2
=	0.0	0.0	321.9	19.2
=	0.0	0.0	322.4	19.1
=	0.0	0.0	322.9	19.1
=	0.0	0.0	323.2	19.1
=	0.0	0.0	323.7	19.0
=	0.0	0.0	324.2	19.0
=	0.0	0.0	324.7	19.0
=	0.0	0.0	325.1	18.9
=	0.0	0.0	325.3	18.9
=	0.0	0.0	325.7	18.8
=	0.0	0.0	326.2	18.8
=	0.0	0.0	326.7	18.7
=	0.0	0.0	327.2	18.7
=	0.0	0.0	327.6	18.7
=	0.0	0.0	328.0	18.6
=	0.0	0.0	328.3	18.6
=	0.0	0.0	328.8	18.5
=	0.0	0.0	329.2	18.5
=	0.0	0.0	329.6	18.4
=	0.0	0.0	330.0	18.4
=	0.0	0.0	330.4	18.4
=	0.0	0.0	330.8	18.4
=	0.0	0.0	331.3	18.3
=	0.0	0.0	331.8	18.3
=	0.0	0.0	332.2	18.2
=	0.0	0.0	332.6	18.1
=	0.0	0.0	333.1	18.1
=	0.0	0.0	333.6	18.0
=	0.0	0.0	334.1	18.0
=	0.0	0.0	334.4	18.0
=	0.0	0.0	334.7	18.0
=	0.0	0.0	335.1	17.9
=	0.0	0.0	335.6	17.9
=	0.0	0.0	336.1	17.8
=	0.0	0.0	336.4	17.8
=	0.0	0.0	336.8	17.7
=	0.0	0.0	337.3	17.7
=	0.0	0.0	337.8	17.6
=	0.0	0.0	338.3	17.6
=	0.0	0.0	338.6	17.6
=	0.0	0.0	338.9	17.6
=	0.0	0.0	339.4	17.5
=	0.0	0.0	339.8	17.5
=	0.0	0.0	340.3	17.4
=	0.0	0.0	340.6	17.4
=	0.0	0.0	341.0	17.3
=	0.0	0.0	341.4	17.3
=	0.0	0.0	341.9	17.3
=	0.0	0.0	342.3	17.3
=	0.0	0.0	342.6	17.2
=	0.0	0.0	342.9	17.2
=	0.0	0.0	343.4	17.2
=	0.0	0.0	343.9	17.1
=	0.0	0.0	344.4	17.0
=	0.0	0.0	344.8	17.0
=	0.0	0.0	345.1	17.0
=	0.0	0.0	345.7	16.9
=	0.0	0.0	346.1	16.9
=	0.0	0.0	346.6	16.9
=	0.0	0.0	346.9	16.8
=	0.0	0.0	347.3	16.8
=	0.0	0.0	347.7	16.8
=	0.0	0.0	348.1	16.8
:EOM # End of Measurement
#
# RFA300 ASCII Measurement Dump ( BDS format )
#
# Measurement number 	2
#
%VNR 1.0
%MOD 	RAT
%TYP 	SCN
%SCN 	DPT
%FLD 	ION
%DAT 	02-03-2012
%TIM 	12:00:00
%FSZ 	100	100
%BMT 	PHO	   8.0
%SSD 	0800
%BUP 	0
%BRD 	0800
%FSH 	1
%ASC 	0
%WEG 	60
%GPO 	0
%CPO 	0
%MEA 	5
%PRD 	0,0
%PTS 	673
%STS 	    0.0	  0.0	   0.0 # Start Scan values in mm ( X , Y , Z )
%EDS 	    0.0	   0.0	   347.7 # End Scan values in mm ( X , Y , Z )
#
#	  X      Y      Z     Dose
#
=	0.0	0.0	0.0	40.1
=	0.0	0.0	0.5	41.9
=	0.0	0.0	1.0	43.8
=	0.0	0.0	1.5	46.4
=	0.0	0.0	2.0	49.9
=	0.0	0.0	2.5	54.7
=	0.0	0.0	3.0	59.5
=	0.0	0.0	3.6	64.0
=	0.0	0.0	4.1	68.0
=	0.0	0.0	4.6	71.6
=	0.0	0.0	5.1	75.0
=	0.0	0.0	5.6	77.7
=	0.0	0.0	6.1	80.3
=	0.0	0.0	6.6	82.7
=	0.0	0.0	7.3	85.8
=	0.0	0.0	8.3	89.1
=	0.0	0.0	8.9	90.7
=	0.0	0.0	9.9	93.0
=	0.0	0.0	10.7	94.5
=	0.0	0.0	11.3	95.6
=	0.0	0.0	11.9	96.4
=	0.0	0.0	12.9	97.6
=	0.0	0.0	13.9	98.4
=	0.0	0.0	15.0	99.1
=	0.0	0.0	16.0	99.5
=	0.0	0.0	17.0	99.8
=	0.0	0.0	18.0	99.9
=	0.0	0.0	18.9	100.0
=	0.0	0.0	19.5	100.0
=	0.0	0.0	19.9	100.0
=	0.0	0.0	20.5	99.9
=	0.0	0.0	21.0	99.8
=	0.0	0.0	21.5	99.7
=	0.0	0.0	22.0	99.6
=	0.0	0.0	22.5	99.5
=	0.0	0.0	23.0	99.4
=	0.0	0.0	23.5	99.3
=	0.0	0.0	24.0	99.1
=	0.0	0.0	24.5	98.9
=	0.0	0.0	25.0	98.7
=	0.0	0.0	25.5	98.5
=	0.0	0.0	26.1	98.2
=	0.0	0.0	26.8	98.0
=	0.0	0.0	27.3	97.9
=	0.0	0.0	27.8	97.6
=	0.0	0.0	28.6	97.3
=	0.0	0.0	29.6	96.9
=	0.0	0.0	30.6	96.5
=	0.0	0.0	31.6	95.9
=	0.0	0.0	32.6	95.6
=	0.0	0.0	33.6	95.1
=	0.0	0.0	34.6	94.7
=	0.0	0.0	35.6	94.2
=	0.0	0.0	36.2	93.9
=	0.0	0.0	37.2	93.5
=	0.0	0.0	38.2	93.1
=	0.0	0.0	39.2	92.6
=	0.0	0.0	40.2	92.2
=	0.0	0.0	41.2	91.7
=	0.0	0.0	41.8	91.5
=	0.0	0.0	42.3	91.2
=	0.0	0.0	42.8	91.0
=	0.0	0.0	43.3	90.8
=	0.0	0.0	43.8	90.5
=	0.0	0.0	44.3	90.4
=	0.0	0.0	44.8	90.1
=	0.0	0.0	45.3	89.9
=	0.0	0.0	45.8	89.6
=	0.0	0.0	46.4	89.5
=	0.0	0.0	46.9	89.3
=	0.0	0.0	47.4	89.0
=	0.0	0.0	47.9	88.8
=	0.0	0.0	48.4	88.5
=	0.0	0.0	48.9	88.3
=	0.0	0.0	49.4	88.1
=	0.0	0.0	49.9	87.9
=	0.0	0.0	50.4	87.7
=	0.0	0.0	50.9	87.5
=	0.0	0.0	51.4	87.2
=	0.0	0.0	51.9	87.0
=	0.0	0.0	52.5	86.8
=	0.0	0.0	53.0	86.6
=	0.0	0.0	53.5	86.3
=	0.0	0.0	54.0	86.1
=	0.0	0.0	54.5	86.0
=	0.0	0.0	55.0	85.7
=	0.0	0.0	55.5	85.5
=	0.0	0.0	56.0	85.3
=	0.0	0.0	56.5	85.1
=	0.0	0.0	57.0	84.9
=	0.0	0.0	57.5	84.7
=	0.0	0.0	58.0	84.5
=	0.0	0.0	58.5	84.2
=	0.0	0.0	59.0	83.9
=	0.0	0.0	59.5	83.8
=	0.0	0.0	60.0	83.6
=	0.0	0.0	60.5	83.3
=	0.0	0.0	61.1	83.1
=	0.0	0.0	61.5	82.9
=	0.0	0.0	62.0	82.7
=	0.0	0.0	62.5	82.6
=	0.0	0.0	63.1	82.4
=	0.0	0.0	63.6	82.1
=	0.0	0.0	64.1	81.8
=	0.0	0.0	64.6	81.6
=	0.0	0.0	65.1	81.4
=	0.0	0.0	65.6	81.2
=	0.0	0.0	66.1	81.0
=	0.0	0.0	66.4	80.9
=	0.0	0.0	66.7	80.8
=	0.0	0.0	67.1	80.6
=	0.0	0.0	67.4	80.4
=	0.0	0.0	67.8	80.3
=	0.0	0.0	68.1	80.2
=	0.0	0.0	68.4	80.1
=	0.0	0.0	68.8	79.9
=	0.0	0.0	69.1	79.8
=	0.0	0.0	69.5	79.6
=	0.0	0.0	69.8	79.5
=	0.0	0.0	70.1	79.3
=	0.0	0.0	70.5	79.2
=	0.0	0.0	70.8	79.1
=	0.0	0.0	71.1	79.0
=	0.0	0.0	71.5	78.8
=	0.0	0.0	71.8	78.7
=	0.0	0.0	72.2	78.5
=	0.0	0.0	72.5	78.4
=	0.0	0.0	72.8	78.3
=	0.0	0.0	73.2	78.2
=	0.0	0.0	73.5	78.0
=	0.0	0.0	73.9	77.9
=	0.0	0.0	74.2	77.7
=	0.0	0.0	74.6	77.5
=	0.0	0.0	75.2	77.3
=	0.0	0.0	75.6	77.1
=	0.0	0.0	76.2	77.0
=	0.0	0.0	76.7	76.8
=	0.0	0.0	77.1	76.6
=	0.0	0.0	77.4	76.4
=	0.0	0.0	77.7	76.3
=	0.0	0.0	78.1	76.1
=	0.0	0.0	78.6	76.0
=	0.0	0.0	79.2	75.8
=	0.0	0.0	79.7	75.6
=	0.0	0.0	80.1	75.4
=	0.0	0.0	80.7	75.2
=	0.0	0.0	81.1	75.0
=	0.0	0.0	81.6	74.8
=	0.0	0.0	82.2	74.6
=	0.0	0.0	82.7	74.4
=	0.0	0.0	83.2	74.2
=	0.0	0.0	84.0	73.9
=	0.0	0.0	85.0	73.5
=	0.0	0.0	86.0	73.2
=	0.0	0.0	87.0	72.8
=	0.0	0.0	88.0	72.4
=	0.0	0.0	89.0	72.0
=	0.0	0.0	89.8	71.7
=	0.0	0.0	90.6	71.4
=	0.0	0.0	91.6	71.1
=	0.0	0.0	92.1	70.9
=	0.0	0.0	92.6	70.7
=	0.0	0.0	93.6	70.3
=	0.0	0.0	94.4	70.0
=	0.0	0.0	95.1	69.7
=	0.0	0.0	95.7	69.6
=	0.0	0.0	96.2	69.4
=	0.0	0.0	96.7	69.2
=	0.0	0.0	97.2	69.0
=	0.0	0.0	97.7	68.8
=	0.0	0.0	98.2	68.6
=	0.0	0.0	98.7	68.4
=	0.0	0.0	99.2	68.3
=	0.0	0.0	99.7	68.1
=	0.0	0.0	100.2	67.9
=	0.0	0.0	100.7	67.8
=	0.0	0.0	101.2	67.6
=	0.0	0.0	101.7	67.4
=	0.0	0.0	102.2	67.2
=	0.0	0.0	102.7	67.0
=	0.0	0.0	103.2	66.8
=	0.0	0.0	103.8	66.6
=	0.0	0.0	104.3	66.5
=	0.0	0.0	104.7	66.3
=	0.0	0.0	105.2	66.1
=	0.0	0.0	105.7	65.9
=	0.0	0.0	106.3	65.8
=	0.0	0.0	106.8	65.7
=	0.0	0.0	107.3	65.5
=	0.0	0.0	107.8	65.3
=	0.0	0.0	108.3	65.1
=	0.0	0.0	108.8	64.9
=	0.0	0.0	109.3	64.7
=	0.0	0.0	109.8	64.6
=	0.0	0.0	110.3	64.5
=	0.0	0.0	110.8	64.3
=	0.0	0.0	111.3	64.0
=	0.0	0.0	112.0	63.8
=	0.0	0.0	112.5	63.6
=	0.0	0.0	113.1	63.5
=	0.0	0.0	113.6	63.3
=	0.0	0.0	114.1	63.2
=	0.0	0.0	114.6	63.0
=	0.0	0.0	115.1	62.8
=	0.0	0.0	115.6	62.6
=	0.0	0.0	116.1	62.5
=	0.0	0.0	116.6	62.3
=	0.0	0.0	117.1	62.1
=	0.0	0.0	117.7	61.9
=	0.0	0.0	118.2	61.7
=	0.0	0.0	118.7	61.6
=	0.0	0.0	119.2	61.5
=	0.0	0.0	119.7	61.3
=	0.0	0.0	120.2	61.1
=	0.0	0.0	120.7	61.0
=	0.0	0.0	121.2	60.8
=	0.0	0.0	121.8	60.7
=	0.0	0.0	122.2	60.5
=	0.0	0.0	122.7	60.3
=	0.0	0.0	123.2	60.2
=	0.0	0.0	123.7	60.0
=	0.0	0.0	124.3	59.8
=	0.0	0.0	124.8	59.6
=	0.0	0.0	125.3	59.5
=	0.0	0.0	126.3	59.2
=	0.0	0.0	126.8	59.0
=	0.0	0.0	127.3	58.9
=	0.0	0.0	127.8	58.7
=	0.0	0.0	128.3	58.6
=	0.0	0.0	128.8	58.4
=	0.0	0.0	129.3	58.2
=	0.0	0.0	129.8	58.0
=	0.0	0.0	130.3	57.9
=	0.0	0.0	130.9	57.8
=	0.0	0.0	131.6	57.6
=	0.0	0.0	132.1	57.4
=	0.0	0.0	132.9	57.1
=	0.0	0.0	133.6	56.9
=	0.0	0.0	134.3	56.7
=	0.0	0.0	134.9	56.6
=	0.0	0.0	135.4	56.4
=	0.0	0.0	135.9	56.3
=	0.0	0.0	136.4	56.1
=	0.0	0.0	136.9	56.0
=	0.0	0.0	137.4	55.9
=	0.0	0.0	137.9	55.7
=	0.0	0.0	138.4	55.6
=	0.0	0.0	139.4	55.3
=	0.0	0.0	140.2	55.0
=	0.0	0.0	140.7	54.8
=	0.0	0.0	141.2	54.7
=	0.0	0.0	141.7	54.5
=	0.0	0.0	142.4	54.3
=	0.0	0.0	143.0	54.2
=	0.0	0.0	143.5	54.1
=	0.0	0.0	144.0	53.9
=	0.0	0.0	144.5	53.8
=	0.0	0.0	145.0	53.7
=	0.0	0.0	145.5	53.5
=	0.0	0.0	146.0	53.3
=	0.0	0.0	146.5	53.2
=	0.0	0.0	147.0	53.0
=	0.0	0.0	147.5	52.9
=	0.0	0.0	148.0	52.7
=	0.0	0.0	148.5	52.6
=	0.0	0.0	149.0	52.5
=	0.0	0.0	149.5	52.4
=	0.0	0.0	150.0	52.3
=	0.0	0.0	150.5	52.1
=	0.0	0.0	151.0	52.0
=	0.0	0.0	151.5	51.8
=	0.0	0.0	152.0	51.7
=	0.0	0.0	152.5	51.6
=	0.0	0.0	153.0	51.4
=	0.0	0.0	153.5	51.3
=	0.0	0.0	154.0	51.1
=	0.0	0.0	154.5	51.0
=	0.0	0.0	155.0	50.8
=	0.0	0.0	155.5	50.7
=	0.0	0.0	156.0	50.6
=	0.0	0.0	156.5	50.4
=	0.0	0.0	157.1	50.3
=	0.0	0.0	157.6	50.2
=	0.0	0.0	158.1	50.0
=	0.0	0.0	158.6	49.9
=	0.0	0.0	159.1	49.8
=	0.0	0.0	159.6	49.7
=	0.0	0.0	160.1	49.5
=	0.0	0.0	160.6	49.4
=	0.0	0.0	161.1	49.3
=	0.0	0.0	161.6	49.2
=	0.0	0.0	162.1	49.0
=	0.0	0.0	162.6	48.9
=	0.0	0.0	163.1	48.7
=	0.0	0.0	163.6	48.6
=	0.0	0.0	164.1	48.5
=	0.0	0.0	164.6	48.4
=	0.0	0.0	165.1	48.3
=	0.0	0.0	165.6	48.1
=	0.0	0.0	166.0	48.0
=	0.0	0.0	166.3	47.9
=	0.0	0.0	166.8	47.8
=	0.0	0.0	167.1	47.7
=	0.0	0.0	167.6	47.6
=	0.0	0.0	168.1	47.5
=	0.0	0.0	168.5	47.4
=	0.0	0.0	168.9	47.3
=	0.0	0.0	169.2	47.2
=	0.0	0.0	169.5	47.2
=	0.0	0.0	169.9	47.1
=	0.0	0.0	170.4	46.9
=	0.0	0.0	170.9	46.8
=	0.0	0.0	171.4	46.7
=	0.0	0.0	171.9	46.5
=	0.0	0.0	172.4	46.4
=	0.0	0.0	172.9	46.3
=	0.0	0.0	173.2	46.2
=	0.0	0.0	173.5	46.1
=	0.0	0.0	173.9	46.1
=	0.0	0.0	174.2	46.0
=	0.0	0.0	174.5	45.9
=	0.0	0.0	174.9	45.7
=	0.0	0.0	175.2	45.6
=	0.0	0.0	175.7	45.5
=	0.0	0.0	176.1	45.4
=	0.0	0.0	176.4	45.4
=	0.0	0.0	176.7	45.3
=	0.0	0.0	177.2	45.2
=	0.0	0.0	177.6	45.0
=	0.0	0.0	177.9	45.0
=	0.0	0.0	178.2	44.9
=	0.0	0.0	178.6	44.8
=	0.0	0.0	178.9	44.7
=	0.0	0.0	179.2	44.7
=	0.0	0.0	179.6	44.6
=	0.0	0.0	179.9	44.5
=	0.0	0.0	180.4	44.4
=	0.0	0.0	180.8	44.3
=	0.0	0.0	181.2	44.3
=	0.0	0.0	181.7	44.2
=	0.0	0.0	182.1	44.1
=	0.0	0.0	182.5	43.9
=	0.0	0.0	183.0	43.8
=	0.0	0.0	183.5	43.8
=	0.0	0.0	184.0	43.7
=	0.0	0.0	184.5	43.5
=	0.0	0.0	185.0	43.4
=	0.0	0.0	185.5	43.3
=	0.0	0.0	186.0	43.2
=	0.0	0.0	186.5	43.0
=	0.0	0.0	187.0	42.9
=	0.0	0.0	187.5	42.8
=	0.0	0.0	188.0	42.7
=	0.0	0.0	188.5	42.6
=	0.0	0.0	189.0	42.5
=	0.0	0.0	189.3	42.5
=	0.0	0.0	189.7	42.4
=	0.0	0.0	190.0	42.3
=	0.0	0.0	190.5	42.2
=	0.0	0.0	191.0	42.1
=	0.0	0.0	191.6	42.0
=	0.0	0.0	192.1	41.8
=	0.0	0.0	192.6	41.7
=	0.0	0.0	193.0	41.6
=	0.0	0.0	193.6	41.5
=	0.0	0.0	194.1	41.4
=	0.0	0.0	194.6	41.3
=	0.0	0.0	195.1	41.2
=	0.0	0.0	195.6	41.0
=	0.0	0.0	196.1	40.9
=	0.0	0.0	196.6	40.9
=	0.0	0.0	197.1	40.7
=	0.0	0.0	197.6	40.6
=	0.0	0.0	198.1	40.5
=	0.0	0.0	198.6	40.4
=	0.0	0.0	199.1	40.3
=	0.0	0.0	199.6	40.1
=	0.0	0.0	200.1	40.0
=	0.0	0.0	200.6	40.0
=	0.0	0.0	201.4	39.9
=	0.0	0.0	201.9	39.8
=	0.0	0.0	202.6	39.6
=	0.0	0.0	203.2	39.5
=	0.0	0.0	203.7	39.3
=	0.0	0.0	204.1	39.3
=	0.0	0.0	204.6	39.2
=	0.0	0.0	205.2	39.0
=	0.0	0.0	205.7	39.0
=	0.0	0.0	206.2	38.9
=	0.0	0.0	206.7	38.7
=	0.0	0.0	207.2	38.6
=	0.0	0.0	207.7	38.5
=	0.0	0.0	208.5	38.4
=	0.0	0.0	208.9	38.3
=	0.0	0.0	209.4	38.2
=	0.0	0.0	209.9	38.1
=	0.0	0.0	210.4	38.0
=	0.0	0.0	210.9	37.9
=	0.0	0.0	211.5	37.8
=	0.0	0.0	212.0	37.7
=	0.0	0.0	212.5	37.6
=	0.0	0.0	213.2	37.5
=	0.0	0.0	214.0	37.3
=	0.0	0.0	214.5	37.2
=	0.0	0.0	215.0	37.0
=	0.0	0.0	215.5	36.9
=	0.0	0.0	216.0	36.9
=	0.0	0.0	216.5	36.8
=	0.0	0.0	217.0	36.7
=	0.0	0.0	217.6	36.6
=	0.0	0.0	218.1	36.5
=	0.0	0.0	218.6	36.4
=	0.0	0.0	219.1	36.3
=	0.0	0.0	219.6	36.2
=	0.0	0.0	220.1	36.1
=	0.0	0.0	220.7	36.0
=	0.0	0.0	221.1	35.9
=	0.0	0.0	221.7	35.8
=	0.0	0.0	222.2	35.7
=	0.0	0.0	222.7	35.6
=	0.0	0.0	223.2	35.5
=	0.0	0.0	223.7	35.4
=	0.0	0.0	224.2	35.3
=	0.0	0.0	224.7	35.2
=	0.0	0.0	225.2	35.1
=	0.0	0.0	225.7	35.0
=	0.0	0.0	226.2	34.9
=	0.0	0.0	226.8	34.8
=	0.0	0.0	227.2	34.8
=	0.0	0.0	227.8	34.7
=	0.0	0.0	228.7	34.5
=	0.0	0.0	229.3	34.4
=	0.0	0.0	229.8	34.3
=	0.0	0.0	230.5	34.2
=	0.0	0.0	231.2	34.1
=	0.0	0.0	231.8	34.0
=	0.0	0.0	232.3	33.9
=	0.0	0.0	232.8	33.8
=	0.0	0.0	233.3	33.7
=	0.0	0.0	234.2	33.5
=	0.0	0.0	234.8	33.5
=	0.0	0.0	235.3	33.4
=	0.0	0.0	235.8	33.2
=	0.0	0.0	236.3	33.1
=	0.0	0.0	236.8	33.1
=	0.0	0.0	237.3	33.0
=	0.0	0.0	237.8	32.9
=	0.0	0.0	238.3	32.9
=	0.0	0.0	238.8	32.8
=	0.0	0.0	239.3	32.7
=	0.0	0.0	239.9	32.6
=	0.0	0.0	240.4	32.5
=	0.0	0.0	240.9	32.4
=	0.0	0.0	241.9	32.3
=	0.0	0.0	242.4	32.2
=	0.0	0.0	242.9	32.1
=	0.0	0.0	243.4	32.0
=	0.0	0.0	244.4	31.8
=	0.0	0.0	245.4	31.7
=	0.0	0.0	246.2	31.5
=	0.0	0.0	246.9	31.4
=	0.0	0.0	247.9	31.3
=	0.0	0.0	248.9	31.1
=	0.0	0.0	249.9	30.9
=	0.0	0.0	250.9	30.8
=	0.0	0.0	251.8	30.6
=	0.0	0.0	252.5	30.5
=	0.0	0.0	253.3	30.4
=	0.0	0.0	253.8	30.3
=	0.0	0.0	254.3	30.2
=	0.0	0.0	254.8	30.2
=	0.0	0.0	255.3	30.1
=	0.0	0.0	255.8	30.0
=	0.0	0.0	256.3	29.9
=	0.0	0.0	256.8	29.8
=	0.0	0.0	257.3	29.8
=	0.0	0.0	257.8	29.7
=	0.0	0.0	258.3	29.6
=	0.0	0.0	258.8	29.5
=	0.0	0.0	259.3	29.4
=	0.0	0.0	260.0	29.3
=	0.0	0.0	260.6	29.2
=	0.0	0.0	261.3	29.1
=	0.0	0.0	262.0	29.0
=	0.0	0.0	262.6	28.9
=	0.0	0.0	263.5	28.8
=	0.0	0.0	264.3	28.7
=	0.0	0.0	265.0	28.6
=	0.0	0.0	265.6	28.5
=	0.0	0.0	266.6	28.4
=	0.0	0.0	267.3	28.3
=	0.0	0.0	267.9	28.2
=	0.0	0.0	268.4	28.1
=	0.0	0.0	268.9	28.0
=	0.0	0.0	269.4	28.0
=	0.0	0.0	269.9	27.9
=	0.0	0.0	270.4	27.8
=	0.0	0.0	270.9	27.8
=	0.0	0.0	271.4	27.7
=	0.0	0.0	271.9	27.6
=	0.0	0.0	272.4	27.6
=	0.0	0.0	272.9	27.5
=	0.0	0.0	273.4	27.4
=	0.0	0.0	273.9	27.3
=	0.0	0.0	274.4	27.3
=	0.0	0.0	274.9	27.2
=	0.0	0.0	275.4	27.1
=	0.0	0.0	276.0	27.1
=	0.0	0.0	276.5	27.0
=	0.0	0.0	277.0	26.9
=	0.0	0.0	277.5	26.9
=	0.0	0.0	278.0	26.8
=	0.0	0.0	278.5	26.7
=	0.0	0.0	279.0	26.6
=	0.0	0.0	279.4	26.6
=	0.0	0.0	279.8	26.5
=	0.0	0.0	280.3	26.5
=	0.0	0.0	280.8	26.4
=	0.0	0.0	281.1	26.4
=	0.0	0.0	281.5	26.3
=	0.0	0.0	281.9	26.3
=	0.0	0.0	282.3	26.2
=	0.0	0.0	282.9	26.1
=	0.0	0.0	283.3	26.0
=	0.0	0.0	283.6	26.0
=	0.0	0.0	284.1	26.0
=	0.0	0.0	284.6	25.9
=	0.0	0.0	285.0	25.9
=	0.0	0.0	285.3	25.8
=	0.0	0.0	285.6	25.7
=	0.0	0.0	286.0	25.7
=	0.0	0.0	286.3	25.6
=	0.0	0.0	286.6	25.6
=	0.0	0.0	287.0	25.5
=	0.0	0.0	287.3	25.5
=	0.0	0.0	287.6	25.5
=	0.0	0.0	288.0	25.4
=	0.0	0.0	288.3	25.4
=	0.0	0.0	288.6	25.4
=	0.0	0.0	289.0	25.3
=	0.0	0.0	289.3	25.3
=	0.0	0.0	289.7	25.2
=	0.0	0.0	290.0	25.2
=	0.0	0.0	290.4	25.1
=	0.0	0.0	290.9	25.0
=	0.0	0.0	291.2	25.0
=	0.0	0.0	291.5	24.9
=	0.0	0.0	291.8	24.9
=	0.0	0.0	292.2	24.8
=	0.0	0.0	292.5	24.8
=	0.0	0.0	292.8	24.8
=	0.0	0.0	293.3	24.7
=	0.0	0.0	293.8	24.7
=	0.0	0.0	294.3	24.6
=	0.0	0.0	294.8	24.6
=	0.0	0.0	295.3	24.5
=	0.0	0.0	295.8	24.5
=	0.0	0.0	296.3	24.4
=	0.0	0.0	296.8	24.3
=	0.0	0.0	297.3	24.2
=	0.0	0.0	297.8	24.2
=	0.0	0.0	298.3	24.1
=	0.0	0.0	298.8	24.0
=	0.0	0.0	299.3	24.0
=	0.0	0.0	299.8	23.9
=	0.0	0.0	300.3	23.9
=	0.0	0.0	300.8	23.8
=	0.0	0.0	301.3	23.7
=	0.0	0.0	301.8	23.7
=	0.0	0.0	302.3	23.6
=	0.0	0.0	302.8	23.6
=	0.0	0.0	303.3	23.5
=	0.0	0.0	303.8	23.4
=	0.0	0.0	304.3	23.4
=	0.0	0.0	304.8	23.3
=	0.0	0.0	305.4	23.3
=	0.0	0.0	305.8	23.2
=	0.0	0.0	306.3	23.2
=	0.0	0.0	306.9	23.1
=	0.0	0.0	307.4	23.0
=	0.0	0.0	307.9	23.0
=	0.0	0.0	308.4	22.9
=	0.0	0.0	308.9	22.9
=	0.0	0.0	309.3	22.8
=	0.0	0.0	309.6	22.7
=	0.0	0.0	310.1	22.7
=	0.0	0.0	310.6	22.7
=	0.0	0.0	310.9	22.6
=	0.0	0.0	311.3	22.6
=	0.0	0.0	311.6	22.5
=	0.0	0.0	311.9	22.5
=	0.0	0.0	312.3	22.5
=	0.0	0.0	312.6	22.4
=	0.0	0.0	313.0	22.4
=	0.0	0.0	313.3	22.4
=	0.0	0.0	313.7	22.3
=	0.0	0.0	314.0	22.3
=	0.0	0.0	314.3	22.2
=	0.0	0.0	314.7	22.2
=	0.0	0.0	315.0	22.2
=	0.0	0.0	315.3	22.1
=	0.0	0.0	315.6	22.1
=	0.0	0.0	316.0	22.1
=	0.0	0.0	316.3	22.0
=	0.0	0.0	316.7	22.0
=	0.0	0.0	317.0	21.9
=	0.0	0.0	317.3	21.9
=	0.0	0.0	317.7	21.9
=	0.0	0.0	318.2	21.8
=	0.0	0.0	318.7	21.8
=	0.0	0.0	319.2	21.7
=	0.0	0.0	319.7	21.7
=	0.0	0.0	320.2	21.6
=	0.0	0.0	320.7	21.5
=	0.0	0.0	321.2	21.5
=	0.0	0.0	321.7	21.4
=	0.0	0.0	322.2	21.4
=	0.0	0.0	322.7	21.3
=	0.0	0.0	323.2	21.3
=	0.0	0.0	323.7	21.2
=	0.0	0.0	324.2	21.1
=	0.0	0.0	324.7	21.1
=	0.0	0.0	325.2	21.1
=	0.0	0.0	325.5	21.0
=	0.0	0.0	326.0	21.0
=	0.0	0.0	326.5	20.9
=	0.0	0.0	327.0	20.9
=	0.0	0.0	327.4	20.8
=	0.0	0.0	327.8	20.8
=	0.0	0.0	328.2	20.7
=	0.0	0.0	328.7	20.7
=	0.0	0.0	329.2	20.6
=	0.0	0.0	329.7	20.6
=	0.0	0.0	330.2	20.5
=	0.0	0.0	330.7	20.5
=	0.0	0.0	331.2	20.4
=	0.0	0.0	331.7	20.4
=	0.0	0.0	332.2	20.3
