:MSR 	5	 # No. of measurement in file
:SYS BDS 0   # Beam Data Scanner System
#
# RFA300 ASCII Measurement Dump ( BDS format )
#
# Measurement number 	1
#
%VNR 1.0
%MOD 	RAT
%TYP 	SCN
%SCN 	DPT
%FLD 	ION
%DAT 	02-01-2012
%TIM 	12:00:00
%FSZ 	040	040
%BMT 	PHO	   8.0
%SSD 	1000
%BUP 	0
%BRD 	1000
%FSH 	1
%ASC 	0
%WEG 	15
%GPO 	0
%CPO 	0
%MEA 	5
%PRD 	0,0
%PTS 	934
%STS 	    0.0	  0.0	   0.0 # Start Scan values in mm ( X , Y , Z )
%EDS 	    0.0	   0.0	   348.0 # End Scan values in mm ( X , Y , Z )
#
#	  X      Y      Z     Dose
#
=	0.0	0.0	0.0	33.4
=	0.0	0.0	0.4	34.5
=	0.0	0.0	0.8	36.0
=	0.0	0.0	1.2	37.5
=	0.0	0.0	1.6	39.1
=	0.0	0.0	1.8	40.5
=	0.0	0.0	2.2	43.4
=	0.0	0.0	2.6	47.6
=	0.0	0.0	3.0	51.7
=	0.0	0.0	3.4	55.4
=	0.0	0.0	3.8	58.5
=	0.0	0.0	4.3	62.4
=	0.0	0.0	4.7	65.8
=	0.0	0.0	5.1	68.7
=	0.0	0.0	5.5	71.3
=	0.0	0.0	5.8	72.9
=	0.0	0.0	6.1	74.7
=	0.0	0.0	6.5	76.9
=	0.0	0.0	6.9	78.9
=	0.0	0.0	7.3	81.0
=	0.0	0.0	7.7	82.5
=	0.0	0.0	8.1	84.2
=	0.0	0.0	8.5	85.7
=	0.0	0.0	8.9	86.9
=	0.0	0.0	9.3	88.2
=	0.0	0.0	9.8	89.4
=	0.0	0.0	10.2	90.4
=	0.0	0.0	10.5	91.4
=	0.0	0.0	10.8	92.1
=	0.0	0.0	11.2	92.9
=	0.0	0.0	11.6	93.7
=	0.0	0.0	12.0	94.3
=	0.0	0.0	12.4	95.0
=	0.0	0.0	12.8	95.6
=	0.0	0.0	13.0	95.9
=	0.0	0.0	13.4	96.4
=	0.0	0.0	13.8	96.8
=	0.0	0.0	14.2	97.3
=	0.0	0.0	14.6	97.8
=	0.0	0.0	15.0	98.1
=	0.0	0.0	15.4	98.4
=	0.0	0.0	15.8	98.7
=	0.0	0.0	16.2	98.9
=	0.0	0.0	16.6	99.2
=	0.0	0.0	16.9	99.3
=	0.0	0.0	17.2	99.4
=	0.0	0.0	17.5	99.5
=	0.0	0.0	17.8	99.6
=	0.0	0.0	18.1	99.7
=	0.0	0.0	18.5	99.8
=	0.0	0.0	18.8	99.9
=	0.0	0.0	19.1	99.9
=	0.0	0.0	19.5	99.9
=	0.0	0.0	19.9	100.0
=	0.0	0.0	20.2	100.0
=	0.0	0.0	20.5	100.0
=	0.0	0.0	20.8	100.0
=	0.0	0.0	21.1	100.0
=	0.0	0.0	21.4	100.0
=	0.0	0.0	21.6	100.0
=	0.0	0.0	22.0	99.9
=	0.0	0.0	22.4	99.9
=	0.0	0.0	22.7	99.9
=	0.0	0.0	23.0	99.8
=	0.0	0.0	23.4	99.8
=	0.0	0.0	23.7	99.7
=	0.0	0.0	24.1	99.6
=	0.0	0.0	24.5	99.4
=	0.0	0.0	24.9	99.3
=	0.0	0.0	25.3	99.1
=	0.0	0.0	25.7	99.1
=	0.0	0.0	26.1	98.9
=	0.0	0.0	26.5	98.8
=	0.0	0.0	26.8	98.7
=	0.0	0.0	27.2	98.5
=	0.0	0.0	27.6	98.4
=	0.0	0.0	28.0	98.3
=	0.0	0.0	28.2	98.2
=	0.0	0.0	28.6	98.1
=	0.0	0.0	28.9	97.9
=	0.0	0.0	29.2	97.8
=	0.0	0.0	29.6	97.6
=	0.0	0.0	30.0	97.4
=	0.0	0.0	30.4	97.3
=	0.0	0.0	30.8	97.1
=	0.0	0.0	31.2	96.8
=	0.0	0.0	31.7	96.7
=	0.0	0.0	32.1	96.5
=	0.0	0.0	32.5	96.4
=	0.0	0.0	32.9	96.2
=	0.0	0.0	33.3	96.0
=	0.0	0.0	33.7	95.8
=	0.0	0.0	34.1	95.7
=	0.0	0.0	34.4	95.6
=	0.0	0.0	34.7	95.5
=	0.0	0.0	35.0	95.3
=	0.0	0.0	35.2	95.1
=	0.0	0.0	35.6	94.9
=	0.0	0.0	36.0	94.7
=	0.0	0.0	36.3	94.6
=	0.0	0.0	36.5	94.5
=	0.0	0.0	36.9	94.4
=	0.0	0.0	37.2	94.3
=	0.0	0.0	37.5	94.1
=	0.0	0.0	37.9	94.0
=	0.0	0.0	38.2	93.8
=	0.0	0.0	38.5	93.7
=	0.0	0.0	38.9	93.6
=	0.0	0.0	39.3	93.3
=	0.0	0.0	39.8	93.1
=	0.0	0.0	40.2	92.9
=	0.0	0.0	40.5	92.7
=	0.0	0.0	41.0	92.5
=	0.0	0.0	41.4	92.3
=	0.0	0.0	41.8	92.1
=	0.0	0.0	42.2	91.9
=	0.0	0.0	42.6	91.8
=	0.0	0.0	43.0	91.6
=	0.0	0.0	43.4	91.4
=	0.0	0.0	43.8	91.2
=	0.0	0.0	44.3	91.1
=	0.0	0.0	44.6	90.9
=	0.0	0.0	45.1	90.7
=	0.0	0.0	45.5	90.4
=	0.0	0.0	45.9	90.2
=	0.0	0.0	46.3	90.0
=	0.0	0.0	46.7	89.8
=	0.0	0.0	47.0	89.7
=	0.0	0.0	47.3	89.6
=	0.0	0.0	47.7	89.5
=	0.0	0.0	48.0	89.3
=	0.0	0.0	48.3	89.1
=	0.0	0.0	48.7	89.0
=	0.0	0.0	49.0	88.8
=	0.0	0.0	49.2	88.7
=	0.0	0.0	49.6	88.6
=	0.0	0.0	50.0	88.4
=	0.0	0.0	50.4	88.3
=	0.0	0.0	50.7	88.1
=	0.0	0.0	51.0	88.0
=	0.0	0.0	51.4	87.8
=	0.0	0.0	51.8	87.6
=	0.0	0.0	52.0	87.6
=	0.0	0.0	52.3	87.4
=	0.0	0.0	52.6	87.3
=	0.0	0.0	53.0	87.1
=	0.0	0.0	53.4	86.9
=	0.0	0.0	53.8	86.7
=	0.0	0.0	54.2	86.5
=	0.0	0.0	54.7	86.3
=	0.0	0.0	55.1	86.1
=	0.0	0.0	55.5	85.9
=	0.0	0.0	55.9	85.7
=	0.0	0.0	56.3	85.5
=	0.0	0.0	56.7	85.4
=	0.0	0.0	57.1	85.2
=	0.0	0.0	57.5	85.1
=	0.0	0.0	58.0	84.9
=	0.0	0.0	58.4	84.7
=	0.0	0.0	58.8	84.4
=	0.0	0.0	59.2	84.2
=	0.0	0.0	59.6	84.1
=	0.0	0.0	60.0	83.9
=	0.0	0.0	60.4	83.7
=	0.0	0.0	60.9	83.6
=	0.0	0.0	61.3	83.3
=	0.0	0.0	61.7	83.1
=	0.0	0.0	62.1	83.0
=	0.0	0.0	62.5	82.8
=	0.0	0.0	62.9	82.7
=	0.0	0.0	63.3	82.5
=	0.0	0.0	63.8	82.4
=	0.0	0.0	64.1	82.3
=	0.0	0.0	64.6	82.0
=	0.0	0.0	65.0	81.8
=	0.0	0.0	65.4	81.7
=	0.0	0.0	65.8	81.5
=	0.0	0.0	66.1	81.4
=	0.0	0.0	66.4	81.1
=	0.0	0.0	66.8	81.0
=	0.0	0.0	67.2	80.8
=	0.0	0.0	67.7	80.6
=	0.0	0.0	68.0	80.4
=	0.0	0.0	68.5	80.2
=	0.0	0.0	68.9	80.1
=	0.0	0.0	69.3	79.9
=	0.0	0.0	69.7	79.7
=	0.0	0.0	70.1	79.5
=	0.0	0.0	70.6	79.4
=	0.0	0.0	71.0	79.2
=	0.0	0.0	71.2	79.1
=	0.0	0.0	71.6	78.9
=	0.0	0.0	72.0	78.7
=	0.0	0.0	72.4	78.6
=	0.0	0.0	72.8	78.5
=	0.0	0.0	73.2	78.4
=	0.0	0.0	73.6	78.2
=	0.0	0.0	74.0	78.0
=	0.0	0.0	74.5	77.8
=	0.0	0.0	74.9	77.7
=	0.0	0.0	75.3	77.5
=	0.0	0.0	75.7	77.3
=	0.0	0.0	76.1	77.1
=	0.0	0.0	76.6	77.0
=	0.0	0.0	76.8	76.9
=	0.0	0.0	77.2	76.7
=	0.0	0.0	77.5	76.4
=	0.0	0.0	77.8	76.3
=	0.0	0.0	78.2	76.2
=	0.0	0.0	78.6	76.0
=	0.0	0.0	79.0	75.8
=	0.0	0.0	79.4	75.6
=	0.0	0.0	79.8	75.5
=	0.0	0.0	80.2	75.3
=	0.0	0.0	80.6	75.2
=	0.0	0.0	81.0	75.1
=	0.0	0.0	81.4	75.0
=	0.0	0.0	81.9	74.9
=	0.0	0.0	82.3	74.6
=	0.0	0.0	82.7	74.5
=	0.0	0.0	83.1	74.3
=	0.0	0.0	83.5	74.0
=	0.0	0.0	83.9	73.9
=	0.0	0.0	84.3	73.7
=	0.0	0.0	84.7	73.6
=	0.0	0.0	85.2	73.4
=	0.0	0.0	85.6	73.3
=	0.0	0.0	86.0	73.1
=	0.0	0.0	86.4	73.0
=	0.0	0.0	86.8	72.8
=	0.0	0.0	87.2	72.7
=	0.0	0.0	87.6	72.5
=	0.0	0.0	88.0	72.4
=	0.0	0.0	88.5	72.1
=	0.0	0.0	88.8	71.9
=	0.0	0.0	89.3	71.8
=	0.0	0.0	89.7	71.6
=	0.0	0.0	90.1	71.5
=	0.0	0.0	90.5	71.4
=	0.0	0.0	90.7	71.3
=	0.0	0.0	91.2	71.1
=	0.0	0.0	91.6	71.0
=	0.0	0.0	91.9	70.9
=	0.0	0.0	92.4	70.6
=	0.0	0.0	92.8	70.5
=	0.0	0.0	93.2	70.4
=	0.0	0.0	93.6	70.3
=	0.0	0.0	94.0	70.1
=	0.0	0.0	94.4	70.0
=	0.0	0.0	94.8	69.8
=	0.0	0.0	95.2	69.6
=	0.0	0.0	95.6	69.4
=	0.0	0.0	95.9	69.4
=	0.0	0.0	96.2	69.3
=	0.0	0.0	96.4	69.2
=	0.0	0.0	96.8	69.0
=	0.0	0.0	97.2	68.9
=	0.0	0.0	97.5	68.8
=	0.0	0.0	97.9	68.6
=	0.0	0.0	98.2	68.5
=	0.0	0.0	98.5	68.3
=	0.0	0.0	98.9	68.2
=	0.0	0.0	99.2	68.1
=	0.0	0.0	99.6	68.0
=	0.0	0.0	100.0	67.8
=	0.0	0.0	100.4	67.6
=	0.0	0.0	100.8	67.5
=	0.0	0.0	101.1	67.4
=	0.0	0.0	101.6	67.3
=	0.0	0.0	101.9	67.2
=	0.0	0.0	102.3	67.0
=	0.0	0.0	102.7	66.9
=	0.0	0.0	103.0	66.7
=	0.0	0.0	103.3	66.6
=	0.0	0.0	103.7	66.5
=	0.0	0.0	104.0	66.4
=	0.0	0.0	104.3	66.3
=	0.0	0.0	104.7	66.2
=	0.0	0.0	105.0	66.1
=	0.0	0.0	105.3	65.9
=	0.0	0.0	105.8	65.8
=	0.0	0.0	106.2	65.6
=	0.0	0.0	106.6	65.5
=	0.0	0.0	107.0	65.4
=	0.0	0.0	107.3	65.2
=	0.0	0.0	107.6	65.1
=	0.0	0.0	108.0	65.0
=	0.0	0.0	108.4	64.8
=	0.0	0.0	108.8	64.7
=	0.0	0.0	109.2	64.6
=	0.0	0.0	109.5	64.5
=	0.0	0.0	109.9	64.3
=	0.0	0.0	110.2	64.2
=	0.0	0.0	110.5	64.1
=	0.0	0.0	110.9	64.0
=	0.0	0.0	111.3	63.9
=	0.0	0.0	111.7	63.7
=	0.0	0.0	112.1	63.6
=	0.0	0.0	112.5	63.4
=	0.0	0.0	112.9	63.3
=	0.0	0.0	113.4	63.1
=	0.0	0.0	113.8	63.0
=	0.0	0.0	114.2	62.9
=	0.0	0.0	114.6	62.7
=	0.0	0.0	115.0	62.6
=	0.0	0.0	115.4	62.5
=	0.0	0.0	115.8	62.3
=	0.0	0.0	116.2	62.2
=	0.0	0.0	116.6	62.0
=	0.0	0.0	117.0	61.9
=	0.0	0.0	117.5	61.8
=	0.0	0.0	117.9	61.6
=	0.0	0.0	118.3	61.5
=	0.0	0.0	118.7	61.4
=	0.0	0.0	119.1	61.2
=	0.0	0.0	119.5	61.1
=	0.0	0.0	119.7	61.0
=	0.0	0.0	120.1	60.9
=	0.0	0.0	120.5	60.7
=	0.0	0.0	120.9	60.6
=	0.0	0.0	121.3	60.5
=	0.0	0.0	121.8	60.3
=	0.0	0.0	122.2	60.2
=	0.0	0.0	122.6	60.1
=	0.0	0.0	123.0	59.9
=	0.0	0.0	123.4	59.7
=	0.0	0.0	123.8	59.6
=	0.0	0.0	124.2	59.6
=	0.0	0.0	124.6	59.4
=	0.0	0.0	125.0	59.3
=	0.0	0.0	125.4	59.2
=	0.0	0.0	125.8	59.0
=	0.0	0.0	126.1	59.0
=	0.0	0.0	126.4	58.9
=	0.0	0.0	126.9	58.7
=	0.0	0.0	127.2	58.6
=	0.0	0.0	127.5	58.5
=	0.0	0.0	127.7	58.4
=	0.0	0.0	128.1	58.3
=	0.0	0.0	128.5	58.2
=	0.0	0.0	128.8	58.1
=	0.0	0.0	129.1	58.0
=	0.0	0.0	129.4	57.9
=	0.0	0.0	129.7	57.8
=	0.0	0.0	130.2	57.7
=	0.0	0.0	130.6	57.6
=	0.0	0.0	130.9	57.5
=	0.0	0.0	131.2	57.4
=	0.0	0.0	131.5	57.3
=	0.0	0.0	131.7	57.2
=	0.0	0.0	132.0	57.0
=	0.0	0.0	132.3	57.0
=	0.0	0.0	132.6	56.9
=	0.0	0.0	133.0	56.7
=	0.0	0.0	133.3	56.6
=	0.0	0.0	133.7	56.5
=	0.0	0.0	134.1	56.4
=	0.0	0.0	134.5	56.3
=	0.0	0.0	134.9	56.2
=	0.0	0.0	135.3	56.1
=	0.0	0.0	135.7	55.9
=	0.0	0.0	136.1	55.9
=	0.0	0.0	136.3	55.8
=	0.0	0.0	136.7	55.7
=	0.0	0.0	137.2	55.6
=	0.0	0.0	137.6	55.5
=	0.0	0.0	138.0	55.3
=	0.0	0.0	138.4	55.2
=	0.0	0.0	138.8	55.1
=	0.0	0.0	139.2	54.9
=	0.0	0.0	139.6	54.8
=	0.0	0.0	140.0	54.7
=	0.0	0.0	140.4	54.5
=	0.0	0.0	140.8	54.5
=	0.0	0.0	141.3	54.3
=	0.0	0.0	141.6	54.2
=	0.0	0.0	142.1	54.0
=	0.0	0.0	142.5	53.9
=	0.0	0.0	142.9	53.8
=	0.0	0.0	143.3	53.7
=	0.0	0.0	143.7	53.6
=	0.0	0.0	143.9	53.5
=	0.0	0.0	144.3	53.4
=	0.0	0.0	144.7	53.3
=	0.0	0.0	145.2	53.1
=	0.0	0.0	145.6	53.0
=	0.0	0.0	146.0	53.0
=	0.0	0.0	146.4	52.9
=	0.0	0.0	146.7	52.8
=	0.0	0.0	147.0	52.7
=	0.0	0.0	147.4	52.6
=	0.0	0.0	147.8	52.5
=	0.0	0.0	148.2	52.3
=	0.0	0.0	148.7	52.2
=	0.0	0.0	149.1	52.1
=	0.0	0.0	149.4	52.1
=	0.0	0.0	149.7	52.0
=	0.0	0.0	150.1	51.9
=	0.0	0.0	150.5	51.8
=	0.0	0.0	150.9	51.6
=	0.0	0.0	151.3	51.4
=	0.0	0.0	151.7	51.3
=	0.0	0.0	152.2	51.2
=	0.0	0.0	152.6	51.1
=	0.0	0.0	152.9	51.1
=	0.0	0.0	153.4	51.0
=	0.0	0.0	153.7	50.9
=	0.0	0.0	154.0	50.8
=	0.0	0.0	154.4	50.7
=	0.0	0.0	154.8	50.6
=	0.0	0.0	155.2	50.4
=	0.0	0.0	155.6	50.4
=	0.0	0.0	156.0	50.3
=	0.0	0.0	156.4	50.1
=	0.0	0.0	156.9	50.0
=	0.0	0.0	157.2	49.9
=	0.0	0.0	157.7	49.8
=	0.0	0.0	158.1	49.7
=	0.0	0.0	158.5	49.5
=	0.0	0.0	158.9	49.5
=	0.0	0.0	159.3	49.3
=	0.0	0.0	159.7	49.2
=	0.0	0.0	160.2	49.1
=	0.0	0.0	160.6	49.0
=	0.0	0.0	161.0	48.9
=	0.0	0.0	161.4	48.8
=	0.0	0.0	161.8	48.7
=	0.0	0.0	162.2	48.6
=	0.0	0.0	162.6	48.5
=	0.0	0.0	163.1	48.4
=	0.0	0.0	163.4	48.3
=	0.0	0.0	163.9	48.1
=	0.0	0.0	164.2	48.0
=	0.0	0.0	164.7	47.9
=	0.0	0.0	165.1	47.8
=	0.0	0.0	165.4	47.7
=	0.0	0.0	165.7	47.7
=	0.0	0.0	166.2	47.6
=	0.0	0.0	166.4	47.6
=	0.0	0.0	166.8	47.5
=	0.0	0.0	167.2	47.3
=	0.0	0.0	167.5	47.2
=	0.0	0.0	168.0	47.2
=	0.0	0.0	168.4	47.1
=	0.0	0.0	168.8	46.9
=	0.0	0.0	169.2	46.8
=	0.0	0.0	169.6	46.7
=	0.0	0.0	170.0	46.6
=	0.0	0.0	170.4	46.5
=	0.0	0.0	170.8	46.4
=	0.0	0.0	171.2	46.3
=	0.0	0.0	171.7	46.2
=	0.0	0.0	172.1	46.1
=	0.0	0.0	172.5	46.1
=	0.0	0.0	172.9	45.9
=	0.0	0.0	173.1	45.8
=	0.0	0.0	173.5	45.8
=	0.0	0.0	173.9	45.6
=	0.0	0.0	174.3	45.6
=	0.0	0.0	174.7	45.5
=	0.0	0.0	175.0	45.5
=	0.0	0.0	175.4	45.3
=	0.0	0.0	175.8	45.2
=	0.0	0.0	176.2	45.1
=	0.0	0.0	176.6	45.0
=	0.0	0.0	177.0	44.9
=	0.0	0.0	177.4	44.8
=	0.0	0.0	177.8	44.7
=	0.0	0.0	178.2	44.6
=	0.0	0.0	178.6	44.5
=	0.0	0.0	179.0	44.4
=	0.0	0.0	179.2	44.4
=	0.0	0.0	179.6	44.3
=	0.0	0.0	180.0	44.1
=	0.0	0.0	180.4	44.1
=	0.0	0.0	180.9	44.0
=	0.0	0.0	181.3	43.9
=	0.0	0.0	181.7	43.8
=	0.0	0.0	182.0	43.8
=	0.0	0.0	182.3	43.7
=	0.0	0.0	182.7	43.6
=	0.0	0.0	183.1	43.5
=	0.0	0.0	183.5	43.4
=	0.0	0.0	183.9	43.3
=	0.0	0.0	184.4	43.2
=	0.0	0.0	184.8	43.1
=	0.0	0.0	185.1	43.0
=	0.0	0.0	185.4	42.9
=	0.0	0.0	185.8	42.9
=	0.0	0.0	186.2	42.8
=	0.0	0.0	186.6	42.8
=	0.0	0.0	187.0	42.6
=	0.0	0.0	187.3	42.5
=	0.0	0.0	187.6	42.5
=	0.0	0.0	188.0	42.4
=	0.0	0.0	188.4	42.3
=	0.0	0.0	188.8	42.2
=	0.0	0.0	189.1	42.1
=	0.0	0.0	189.5	42.0
=	0.0	0.0	189.8	42.0
=	0.0	0.0	190.1	41.9
=	0.0	0.0	190.5	41.8
=	0.0	0.0	190.8	41.8
=	0.0	0.0	191.0	41.7
=	0.0	0.0	191.2	41.7
=	0.0	0.0	191.5	41.6
=	0.0	0.0	191.7	41.6
=	0.0	0.0	192.0	41.5
=	0.0	0.0	192.4	41.4
=	0.0	0.0	192.7	41.3
=	0.0	0.0	193.1	41.3
=	0.0	0.0	193.5	41.2
=	0.0	0.0	193.8	41.1
=	0.0	0.0	194.1	41.0
=	0.0	0.0	194.3	41.0
=	0.0	0.0	194.6	40.9
=	0.0	0.0	195.1	40.9
=	0.0	0.0	195.4	40.8
=	0.0	0.0	195.7	40.7
=	0.0	0.0	196.1	40.6
=	0.0	0.0	196.4	40.5
=	0.0	0.0	196.7	40.5
=	0.0	0.0	197.1	40.4
=	0.0	0.0	197.6	40.3
=	0.0	0.0	198.0	40.2
=	0.0	0.0	198.4	40.2
=	0.0	0.0	198.7	40.1
=	0.0	0.0	199.0	40.1
=	0.0	0.0	199.4	40.0
=	0.0	0.0	199.8	39.8
=	0.0	0.0	200.2	39.7
=	0.0	0.0	200.6	39.7
=	0.0	0.0	201.0	39.6
=	0.0	0.0	201.4	39.5
=	0.0	0.0	201.8	39.4
=	0.0	0.0	202.2	39.4
=	0.0	0.0	202.5	39.3
=	0.0	0.0	202.9	39.2
=	0.0	0.0	203.3	39.1
=	0.0	0.0	203.7	39.0
=	0.0	0.0	204.1	38.9
=	0.0	0.0	204.5	38.9
=	0.0	0.0	204.9	38.8
=	0.0	0.0	205.3	38.7
=	0.0	0.0	205.6	38.6
=	0.0	0.0	205.9	38.6
=	0.0	0.0	206.4	38.5
=	0.0	0.0	206.8	38.4
=	0.0	0.0	207.2	38.3
=	0.0	0.0	207.6	38.2
=	0.0	0.0	208.0	38.1
=	0.0	0.0	208.4	38.1
=	0.0	0.0	208.8	38.0
=	0.0	0.0	209.2	37.9
=	0.0	0.0	209.7	37.8
=	0.0	0.0	209.9	37.8
=	0.0	0.0	210.3	37.7
=	0.0	0.0	210.7	37.6
=	0.0	0.0	211.0	37.5
=	0.0	0.0	211.3	37.4
=	0.0	0.0	211.7	37.3
=	0.0	0.0	212.1	37.3
=	0.0	0.0	212.5	37.2
=	0.0	0.0	212.9	37.1
=	0.0	0.0	213.3	37.1
=	0.0	0.0	213.5	37.0
=	0.0	0.0	213.9	36.9
=	0.0	0.0	214.3	36.8
=	0.0	0.0	214.6	36.8
=	0.0	0.0	214.9	36.7
=	0.0	0.0	215.3	36.6
=	0.0	0.0	215.6	36.6
=	0.0	0.0	216.0	36.5
=	0.0	0.0	216.4	36.5
=	0.0	0.0	216.6	36.4
=	0.0	0.0	217.0	36.4
=	0.0	0.0	217.4	36.3
=	0.0	0.0	217.8	36.3
=	0.0	0.0	218.2	36.2
=	0.0	0.0	218.6	36.1
=	0.0	0.0	219.1	36.0
=	0.0	0.0	219.4	35.9
=	0.0	0.0	219.9	35.9
=	0.0	0.0	220.3	35.8
=	0.0	0.0	220.7	35.7
=	0.0	0.0	221.1	35.6
=	0.0	0.0	221.5	35.6
=	0.0	0.0	221.9	35.5
=	0.0	0.0	222.4	35.4
=	0.0	0.0	222.8	35.3
=	0.0	0.0	223.2	35.2
=	0.0	0.0	223.6	35.1
=	0.0	0.0	223.8	35.1
=	0.0	0.0	224.2	35.0
=	0.0	0.0	224.6	35.0
=	0.0	0.0	225.1	34.9
=	0.0	0.0	225.4	34.8
=	0.0	0.0	225.9	34.8
=	0.0	0.0	226.3	34.7
=	0.0	0.0	226.7	34.6
=	0.0	0.0	227.1	34.5
=	0.0	0.0	227.5	34.5
=	0.0	0.0	227.9	34.4
=	0.0	0.0	228.3	34.4
=	0.0	0.0	228.7	34.3
=	0.0	0.0	229.1	34.2
=	0.0	0.0	229.5	34.1
=	0.0	0.0	229.8	34.0
=	0.0	0.0	230.2	34.0
=	0.0	0.0	230.6	33.9
=	0.0	0.0	230.9	33.8
=	0.0	0.0	231.4	33.7
=	0.0	0.0	231.8	33.7
=	0.0	0.0	232.2	33.6
=	0.0	0.0	232.6	33.5
=	0.0	0.0	233.1	33.4
=	0.0	0.0	233.4	33.4
=	0.0	0.0	233.8	33.3
=	0.0	0.0	234.3	33.3
=	0.0	0.0	234.7	33.2
=	0.0	0.0	235.1	33.1
=	0.0	0.0	235.4	33.1
=	0.0	0.0	235.7	33.1
=	0.0	0.0	236.1	33.0
=	0.0	0.0	236.5	32.9
=	0.0	0.0	237.0	32.8
=	0.0	0.0	237.3	32.7
=	0.0	0.0	237.6	32.7
=	0.0	0.0	238.0	32.7
=	0.0	0.0	238.4	32.6
=	0.0	0.0	238.8	32.5
=	0.0	0.0	239.2	32.5
=	0.0	0.0	239.6	32.4
=	0.0	0.0	240.0	32.3
=	0.0	0.0	240.4	32.2
=	0.0	0.0	240.8	32.1
=	0.0	0.0	241.2	32.1
=	0.0	0.0	241.6	32.0
=	0.0	0.0	242.0	31.9
=	0.0	0.0	242.4	31.9
=	0.0	0.0	242.9	31.8
=	0.0	0.0	243.3	31.7
=	0.0	0.0	243.7	31.6
=	0.0	0.0	244.1	31.6
=	0.0	0.0	244.5	31.5
=	0.0	0.0	244.9	31.4
=	0.0	0.0	245.3	31.4
=	0.0	0.0	245.7	31.3
=	0.0	0.0	246.1	31.3
=	0.0	0.0	246.5	31.2
=	0.0	0.0	246.9	31.2
=	0.0	0.0	247.4	31.1
=	0.0	0.0	247.8	31.0
=	0.0	0.0	248.2	31.0
=	0.0	0.0	248.6	30.9
=	0.0	0.0	249.0	30.8
=	0.0	0.0	249.4	30.8
=	0.0	0.0	249.9	30.7
=	0.0	0.0	250.2	30.7
=	0.0	0.0	250.5	30.6
=	0.0	0.0	250.9	30.6
=	0.0	0.0	251.3	30.5
=	0.0	0.0	251.5	30.5
=	0.0	0.0	251.9	30.4
=	0.0	0.0	252.3	30.3
=	0.0	0.0	252.7	30.2
=	0.0	0.0	253.2	30.2
=	0.0	0.0	253.6	30.1
=	0.0	0.0	253.9	30.1
=	0.0	0.0	254.4	30.0
=	0.0	0.0	254.8	29.9
=	0.0	0.0	255.2	29.8
=	0.0	0.0	255.6	29.8
=	0.0	0.0	255.9	29.7
=	0.0	0.0	256.2	29.7
=	0.0	0.0	256.6	29.6
=	0.0	0.0	256.9	29.6
=	0.0	0.0	257.3	29.5
=	0.0	0.0	257.7	29.5
=	0.0	0.0	257.9	29.4
=	0.0	0.0	258.3	29.4
=	0.0	0.0	258.7	29.3
=	0.0	0.0	259.1	29.3
=	0.0	0.0	259.4	29.2
=	0.0	0.0	259.7	29.2
=	0.0	0.0	260.1	29.1
=	0.0	0.0	260.5	29.1
=	0.0	0.0	260.9	29.0
=	0.0	0.0	261.3	29.0
=	0.0	0.0	261.7	28.9
=	0.0	0.0	262.0	28.9
=	0.0	0.0	262.4	28.8
=	0.0	0.0	262.7	28.8
=	0.0	0.0	263.0	28.7
=	0.0	0.0	263.4	28.7
=	0.0	0.0	263.7	28.6
=	0.0	0.0	264.0	28.6
=	0.0	0.0	264.4	28.5
=	0.0	0.0	264.8	28.5
=	0.0	0.0	265.2	28.4
=	0.0	0.0	265.6	28.3
=	0.0	0.0	265.9	28.3
=	0.0	0.0	266.2	28.2
=	0.0	0.0	266.5	28.2
=	0.0	0.0	266.7	28.2
=	0.0	0.0	267.1	28.1
=	0.0	0.0	267.4	28.1
=	0.0	0.0	267.7	28.0
=	0.0	0.0	268.1	28.0
=	0.0	0.0	268.4	27.9
=	0.0	0.0	268.7	27.9
=	0.0	0.0	269.1	27.8
=	0.0	0.0	269.4	27.8
=	0.0	0.0	269.7	27.7
=	0.0	0.0	270.2	27.7
=	0.0	0.0	270.6	27.7
=	0.0	0.0	271.0	27.6
=	0.0	0.0	271.4	27.5
=	0.0	0.0	271.8	27.5
=	0.0	0.0	272.2	27.4
=	0.0	0.0	272.6	27.3
=	0.0	0.0	273.0	27.3
=	0.0	0.0	273.4	27.2
=	0.0	0.0	273.8	27.2
=	0.0	0.0	274.2	27.1
=	0.0	0.0	274.6	27.1
=	0.0	0.0	275.0	27.0
=	0.0	0.0	275.5	27.0
=	0.0	0.0	275.9	26.9
=	0.0	0.0	276.3	26.9
=	0.0	0.0	276.7	26.8
=	0.0	0.0	277.1	26.8
=	0.0	0.0	277.5	26.7
=	0.0	0.0	277.9	26.6
=	0.0	0.0	278.3	26.5
=	0.0	0.0	278.7	26.5
=	0.0	0.0	279.1	26.5
=	0.0	0.0	279.6	26.4
=	0.0	0.0	280.0	26.4
=	0.0	0.0	280.4	26.3
=	0.0	0.0	280.8	26.2
=	0.0	0.0	281.2	26.2
=	0.0	0.0	281.6	26.1
=	0.0	0.0	282.0	26.0
=	0.0	0.0	282.4	26.0
=	0.0	0.0	282.8	25.9
=	0.0	0.0	283.3	25.9
=	0.0	0.0	283.6	25.8
=	0.0	0.0	284.1	25.8
=	0.0	0.0	284.4	25.7
=	0.0	0.0	284.7	25.7
=	0.0	0.0	285.1	25.6
=	0.0	0.0	285.5	25.6
=	0.0	0.0	285.7	25.5
=	0.0	0.0	286.1	25.5
=	0.0	0.0	286.5	25.4
=	0.0	0.0	286.9	25.4
=	0.0	0.0	287.4	25.4
=	0.0	0.0	287.7	25.3
=	0.0	0.0	288.1	25.3
=	0.0	0.0	288.5	25.2
=	0.0	0.0	288.8	25.2
=	0.0	0.0	289.2	25.1
=	0.0	0.0	289.6	25.1
=	0.0	0.0	290.0	25.0
=	0.0	0.0	290.2	25.0
=	0.0	0.0	290.4	25.0
=	0.0	0.0	290.8	24.9
=	0.0	0.0	291.1	24.9
=	0.0	0.0	291.4	24.8
=	0.0	0.0	291.7	24.8
=	0.0	0.0	291.9	24.7
=	0.0	0.0	292.2	24.7
=	0.0	0.0	292.4	24.7
=	0.0	0.0	292.6	24.7
=	0.0	0.0	292.8	24.7
=	0.0	0.0	293.1	24.6
=	0.0	0.0	293.4	24.6
=	0.0	0.0	293.8	24.5
=	0.0	0.0	294.1	24.5
=	0.0	0.0	294.4	24.5
=	0.0	0.0	294.7	24.4
=	0.0	0.0	295.0	24.4
=	0.0	0.0	295.3	24.4
=	0.0	0.0	295.6	24.3
=	0.0	0.0	296.1	24.2
=	0.0	0.0	296.4	24.2
=	0.0	0.0	296.7	24.2
=	0.0	0.0	297.1	24.1
=	0.0	0.0	297.5	24.1
=	0.0	0.0	297.7	24.1
=	0.0	0.0	298.1	24.0
=	0.0	0.0	298.5	24.0
=	0.0	0.0	298.9	23.9
=	0.0	0.0	299.2	23.9
=	0.0	0.0	299.6	23.8
=	0.0	0.0	300.0	23.8
=	0.0	0.0	300.3	23.7
=	0.0	0.0	300.8	23.7
=	0.0	0.0	301.1	23.6
=	0.0	0.0	301.4	23.6
=	0.0	0.0	301.6	23.6
=	0.0	0.0	302.0	23.5
=	0.0	0.0	302.4	23.5
=	0.0	0.0	302.7	23.5
=	0.0	0.0	303.0	23.5
=	0.0	0.0	303.4	23.4
=	0.0	0.0	303.7	23.4
=	0.0	0.0	304.0	23.3
=	0.0	0.0	304.3	23.3
=	0.0	0.0	304.5	23.3
=	0.0	0.0	304.8	23.2
=	0.0	0.0	305.2	23.2
=	0.0	0.0	305.5	23.1
=	0.0	0.0	305.8	23.1
=	0.0	0.0	306.0	23.1
=	0.0	0.0	306.3	23.1
=	0.0	0.0	306.7	23.0
=	0.0	0.0	307.0	23.0
=	0.0	0.0	307.3	22.9
=	0.0	0.0	307.8	22.9
=	0.0	0.0	308.2	22.8
=	0.0	0.0	308.6	22.8
=	0.0	0.0	308.9	22.7
=	0.0	0.0	309.2	22.7
=	0.0	0.0	309.6	22.7
=	0.0	0.0	310.0	22.6
=	0.0	0.0	310.4	22.6
=	0.0	0.0	310.7	22.6
=	0.0	0.0	311.0	22.5
=	0.0	0.0	311.4	22.5
=	0.0	0.0	311.8	22.4
=	0.0	0.0	312.1	22.4
=	0.0	0.0	312.4	22.4
=	0.0	0.0	312.8	22.4
=	0.0	0.0	313.1	22.3
=	0.0	0.0	313.5	22.3
=	0.0	0.0	313.8	22.2
=	0.0	0.0	314.1	22.2
=	0.0	0.0	314.3	22.2
=	0.0	0.0	314.7	22.2
=	0.0	0.0	315.1	22.1
=	0.0	0.0	315.5	22.0
=	0.0	0.0	316.0	21.9
=	0.0	0.0	316.3	21.9
=	0.0	0.0	316.6	21.9
=	0.0	0.0	317.0	21.9
=	0.0	0.0	317.3	21.8
=	0.0	0.0	317.6	21.8
=	0.0	0.0	318.0	21.8
=	0.0	0.0	318.3	21.7
=	0.0	0.0	318.6	21.7
=	0.0	0.0	319.0	21.7
=	0.0	0.0	319.5	21.6
=	0.0	0.0	319.8	21.6
=	0.0	0.0	320.1	21.6
=	0.0	0.0	320.4	21.5
=	0.0	0.0	320.8	21.5
=	0.0	0.0	321.3	21.4
=	0.0	0.0	321.7	21.4
=	0.0	0.0	322.1	21.3
=	0.0	0.0	322.5	21.3
=	0.0	0.0	322.8	21.3
=	0.0	0.0	323.2	21.2
=	0.0	0.0	323.5	21.2
=	0.0	0.0	323.9	21.1
=	0.0	0.0	324.2	21.1
=	0.0	0.0	324.6	21.1
=	0.0	0.0	325.0	21.0
=	0.0	0.0	325.4	21.0
=	0.0	0.0	325.8	20.9
=	0.0	0.0	326.2	20.9
=	0.0	0.0	326.6	20.8
=	0.0	0.0	327.0	20.8
=	0.0	0.0	327.2	20.8
=	0.0	0.0	327.6	20.7
=	0.0	0.0	328.0	20.7
=	0.0	0.0	328.3	20.7
=	0.0	0.0	328.7	20.6
=	0.0	0.0	329.0	20.6
=	0.0	0.0	329.3	20.6
=	0.0	0.0	329.5	20.6
=	0.0	0.0	329.9	20.5
=	0.0	0.0	330.3	20.4
=	0.0	0.0	330.6	20.4
=	0.0	0.0	330.9	20.4
=	0.0	0.0	331.3	20.3
=	0.0	0.0	331.6	20.3
=	0.0	0.0	331.9	20.3
=	0.0	0.0	332.3	20.2
=	0.0	0.0	332.7	20.2
=	0.0	0.0	333.0	20.2
=	0.0	0.0	333.4	20.2
=	0.0	0.0	333.8	20.1
=	0.0	0.0	334.1	20.1
=	0.0	0.0	334.4	20.1
=	0.0	0.0	334.7	20.0
=	0.0	0.0	335.0	20.0
=	0.0	0.0	335.3	20.0
=	0.0	0.0	335.6	19.9
=	0.0	0.0	336.0	19.9
=	0.0	0.0	336.3	19.9
=	0.0	0.0	336.6	19.8
=	0.0	0.0	337.0	19.8
=	0.0	0.0	337.3	19.7
=	0.0	0.0	337.7	19.7
=	0.0	0.0	338.1	19.7
=	0.0	0.0	338.5	19.6
=	0.0	0.0	338.7	19.6
=	0.0	0.0	339.1	19.6
=	0.0	0.0	339.5	19.6
=	0.0	0.0	339.8	19.5
=	0.0	0.0	340.2	19.5
=	0.0	0.0	340.6	19.5
=	0.0	0.0	341.0	19.4
=	0.0	0.0	341.3	19.4
=	0.0	0.0	341.6	19.4
=	0.0	0.0	342.0	19.3
=	0.0	0.0	342.4	19.3
=	0.0	0.0	342.6	19.2
=	0.0	0.0	343.0	19.2
=	0.0	0.0	343.2	19.2
=	0.0	0.0	343.5	19.1
=	0.0	0.0	343.8	19.1
=	0.0	0.0	344.3	19.1
=	0.0	0.0	344.7	19.0
=	0.0	0.0	345.1	19.0
=	0.0	0.0	345.4	19.0
=	0.0	0.0	345.8	18.9
=	0.0	0.0	346.2	18.9
=	0.0	0.0	346.6	18.9
=	0.0	0.0	347.0	18.8
=	0.0	0.0	347.4	18.8
=	0.0	0.0	348.0	18.8
:EOM # End of Measurement
#
# RFA300 ASCII Measurement Dump ( BDS format )
#
# Measurement number 	2
#
%VNR 1.0
%MOD 	RAT
%TYP 	SCN
%SCN 	DPT
%FLD 	ION
%DAT 	02-01-2012
%TIM 	12:00:00
%FSZ 	100	100
%BMT 	PHO	   8.0
%SSD 	1000
%BUP 	0
%BRD 	1000
%FSH 	1
%ASC 	0
%WEG 	15
%GPO 	0
%CPO 	0
%MEA 	5
%PRD 	0,0
%PTS 	990
%STS 	    0.0	  0.0	   0.0 # Start Scan values in mm ( X , Y , Z )
%EDS 	    0.0	   0.0	   347.8 # End Scan values in mm ( X , Y , Z )
#
#	  X      Y      Z     Dose
#
=	0.0	0.0	0.0	39.3
=	0.0	0.0	0.2	39.7
=	0.0	0.0	0.5	40.8
=	0.0	0.0	1.0	42.4
=	0.0	0.0	1.4	44.1
=	0.0	0.0	1.8	46.0
=	0.0	0.0	2.2	48.6
=	0.0	0.0	2.6	51.8
=	0.0	0.0	2.8	54.2
=	0.0	0.0	3.2	57.8
=	0.0	0.0	3.6	61.1
=	0.0	0.0	3.8	63.2
=	0.0	0.0	4.2	66.4
=	0.0	0.0	4.6	69.3
=	0.0	0.0	5.0	72.0
=	0.0	0.0	5.4	74.3
=	0.0	0.0	5.7	76.0
=	0.0	0.0	6.0	77.6
=	0.0	0.0	6.3	78.9
=	0.0	0.0	6.6	80.7
=	0.0	0.0	7.1	82.5
=	0.0	0.0	7.4	83.9
=	0.0	0.0	7.9	85.6
=	0.0	0.0	8.3	87.1
=	0.0	0.0	8.7	88.3
=	0.0	0.0	9.1	89.5
=	0.0	0.0	9.5	90.4
=	0.0	0.0	9.8	91.2
=	0.0	0.0	10.1	92.0
=	0.0	0.0	10.5	92.8
=	0.0	0.0	10.9	93.6
=	0.0	0.0	11.3	94.3
=	0.0	0.0	11.5	94.8
=	0.0	0.0	11.9	95.3
=	0.0	0.0	12.3	95.9
=	0.0	0.0	12.7	96.4
=	0.0	0.0	13.1	96.9
=	0.0	0.0	13.6	97.3
=	0.0	0.0	13.9	97.6
=	0.0	0.0	14.1	97.9
=	0.0	0.0	14.6	98.3
=	0.0	0.0	15.0	98.6
=	0.0	0.0	15.4	98.8
=	0.0	0.0	15.8	99.0
=	0.0	0.0	16.2	99.2
=	0.0	0.0	16.6	99.4
=	0.0	0.0	17.0	99.6
=	0.0	0.0	17.4	99.7
=	0.0	0.0	17.8	99.8
=	0.0	0.0	18.3	99.9
=	0.0	0.0	18.6	99.9
=	0.0	0.0	18.9	100.0
=	0.0	0.0	19.3	100.0
=	0.0	0.0	19.7	100.0
=	0.0	0.0	20.1	100.0
=	0.0	0.0	20.4	100.0
=	0.0	0.0	20.9	100.0
=	0.0	0.0	21.3	100.0
=	0.0	0.0	21.7	99.9
=	0.0	0.0	22.1	99.9
=	0.0	0.0	22.3	99.9
=	0.0	0.0	22.6	99.8
=	0.0	0.0	22.9	99.8
=	0.0	0.0	23.4	99.8
=	0.0	0.0	23.7	99.7
=	0.0	0.0	23.9	99.7
=	0.0	0.0	24.3	99.5
=	0.0	0.0	24.6	99.5
=	0.0	0.0	24.9	99.4
=	0.0	0.0	25.2	99.3
=	0.0	0.0	25.5	99.2
=	0.0	0.0	25.8	99.1
=	0.0	0.0	26.0	99.0
=	0.0	0.0	26.3	98.9
=	0.0	0.0	26.7	98.8
=	0.0	0.0	27.1	98.7
=	0.0	0.0	27.4	98.6
=	0.0	0.0	27.7	98.4
=	0.0	0.0	28.0	98.4
=	0.0	0.0	28.2	98.3
=	0.0	0.0	28.5	98.2
=	0.0	0.0	28.8	98.0
=	0.0	0.0	29.2	97.9
=	0.0	0.0	29.6	97.8
=	0.0	0.0	29.8	97.7
=	0.0	0.0	30.2	97.6
=	0.0	0.0	30.6	97.4
=	0.0	0.0	30.8	97.3
=	0.0	0.0	31.2	97.2
=	0.0	0.0	31.6	97.0
=	0.0	0.0	31.9	96.9
=	0.0	0.0	32.2	96.8
=	0.0	0.0	32.5	96.7
=	0.0	0.0	32.9	96.6
=	0.0	0.0	33.3	96.4
=	0.0	0.0	33.6	96.2
=	0.0	0.0	34.1	96.1
=	0.0	0.0	34.5	95.9
=	0.0	0.0	34.9	95.8
=	0.0	0.0	35.3	95.6
=	0.0	0.0	35.7	95.4
=	0.0	0.0	36.1	95.3
=	0.0	0.0	36.6	95.1
=	0.0	0.0	36.8	95.1
=	0.0	0.0	37.1	95.0
=	0.0	0.0	37.5	94.8
=	0.0	0.0	37.8	94.7
=	0.0	0.0	38.2	94.5
=	0.0	0.0	38.6	94.4
=	0.0	0.0	38.9	94.2
=	0.0	0.0	39.2	94.0
=	0.0	0.0	39.6	93.9
=	0.0	0.0	39.9	93.8
=	0.0	0.0	40.2	93.7
=	0.0	0.0	40.5	93.6
=	0.0	0.0	40.8	93.5
=	0.0	0.0	41.2	93.2
=	0.0	0.0	41.5	93.1
=	0.0	0.0	41.8	93.0
=	0.0	0.0	42.1	92.9
=	0.0	0.0	42.6	92.7
=	0.0	0.0	43.0	92.6
=	0.0	0.0	43.3	92.5
=	0.0	0.0	43.6	92.3
=	0.0	0.0	43.9	92.1
=	0.0	0.0	44.3	92.0
=	0.0	0.0	44.5	91.9
=	0.0	0.0	44.8	91.8
=	0.0	0.0	45.0	91.6
=	0.0	0.0	45.3	91.5
=	0.0	0.0	45.5	91.5
=	0.0	0.0	45.7	91.5
=	0.0	0.0	46.0	91.4
=	0.0	0.0	46.5	91.2
=	0.0	0.0	46.8	90.9
=	0.0	0.0	47.1	90.8
=	0.0	0.0	47.5	90.7
=	0.0	0.0	47.9	90.6
=	0.0	0.0	48.3	90.4
=	0.0	0.0	48.6	90.3
=	0.0	0.0	48.9	90.2
=	0.0	0.0	49.3	90.0
=	0.0	0.0	49.7	89.9
=	0.0	0.0	50.0	89.8
=	0.0	0.0	50.3	89.7
=	0.0	0.0	50.6	89.6
=	0.0	0.0	51.0	89.4
=	0.0	0.0	51.3	89.2
=	0.0	0.0	51.6	89.1
=	0.0	0.0	52.0	89.0
=	0.0	0.0	52.3	88.8
=	0.0	0.0	52.7	88.7
=	0.0	0.0	53.1	88.6
=	0.0	0.0	53.5	88.6
=	0.0	0.0	53.8	88.4
=	0.0	0.0	54.1	88.2
=	0.0	0.0	54.5	88.0
=	0.0	0.0	54.8	87.9
=	0.0	0.0	55.2	87.8
=	0.0	0.0	55.6	87.7
=	0.0	0.0	56.0	87.5
=	0.0	0.0	56.4	87.3
=	0.0	0.0	56.7	87.2
=	0.0	0.0	57.0	87.1
=	0.0	0.0	57.3	87.0
=	0.0	0.0	57.7	86.8
=	0.0	0.0	58.1	86.6
=	0.0	0.0	58.5	86.4
=	0.0	0.0	58.9	86.3
=	0.0	0.0	59.2	86.3
=	0.0	0.0	59.5	86.1
=	0.0	0.0	60.0	86.0
=	0.0	0.0	60.3	85.9
=	0.0	0.0	60.6	85.6
=	0.0	0.0	61.0	85.5
=	0.0	0.0	61.3	85.4
=	0.0	0.0	61.6	85.3
=	0.0	0.0	62.0	85.1
=	0.0	0.0	62.3	85.0
=	0.0	0.0	62.6	84.9
=	0.0	0.0	63.0	84.7
=	0.0	0.0	63.3	84.6
=	0.0	0.0	63.7	84.5
=	0.0	0.0	64.0	84.3
=	0.0	0.0	64.2	84.3
=	0.0	0.0	64.5	84.2
=	0.0	0.0	64.8	84.1
=	0.0	0.0	65.1	84.0
=	0.0	0.0	65.5	83.9
=	0.0	0.0	65.8	83.7
=	0.0	0.0	66.1	83.6
=	0.0	0.0	66.4	83.5
=	0.0	0.0	66.7	83.4
=	0.0	0.0	67.0	83.3
=	0.0	0.0	67.4	83.1
=	0.0	0.0	67.8	82.9
=	0.0	0.0	68.2	82.8
=	0.0	0.0	68.6	82.7
=	0.0	0.0	69.0	82.5
=	0.0	0.0	69.4	82.3
=	0.0	0.0	69.8	82.1
=	0.0	0.0	70.1	82.0
=	0.0	0.0	70.5	81.9
=	0.0	0.0	70.9	81.8
=	0.0	0.0	71.3	81.7
=	0.0	0.0	71.5	81.6
=	0.0	0.0	71.9	81.4
=	0.0	0.0	72.3	81.3
=	0.0	0.0	72.7	81.1
=	0.0	0.0	73.1	81.0
=	0.0	0.0	73.5	80.8
=	0.0	0.0	74.0	80.6
=	0.0	0.0	74.3	80.4
=	0.0	0.0	74.8	80.3
=	0.0	0.0	75.2	80.2
=	0.0	0.0	75.4	80.1
=	0.0	0.0	75.8	80.0
=	0.0	0.0	76.2	79.8
=	0.0	0.0	76.5	79.7
=	0.0	0.0	76.8	79.6
=	0.0	0.0	77.2	79.4
=	0.0	0.0	77.5	79.3
=	0.0	0.0	77.8	79.1
=	0.0	0.0	78.2	78.9
=	0.0	0.0	78.5	78.9
=	0.0	0.0	78.9	78.7
=	0.0	0.0	79.3	78.6
=	0.0	0.0	79.7	78.5
=	0.0	0.0	80.1	78.2
=	0.0	0.0	80.5	78.1
=	0.0	0.0	80.7	78.0
=	0.0	0.0	81.1	77.9
=	0.0	0.0	81.5	77.9
=	0.0	0.0	81.8	77.7
=	0.0	0.0	82.2	77.6
=	0.0	0.0	82.4	77.5
=	0.0	0.0	82.8	77.4
=	0.0	0.0	83.2	77.2
=	0.0	0.0	83.6	77.0
=	0.0	0.0	83.9	77.0
=	0.0	0.0	84.2	76.9
=	0.0	0.0	84.6	76.8
=	0.0	0.0	85.0	76.7
=	0.0	0.0	85.3	76.5
=	0.0	0.0	85.7	76.4
=	0.0	0.0	86.1	76.3
=	0.0	0.0	86.5	76.0
=	0.0	0.0	86.8	75.8
=	0.0	0.0	87.1	75.8
=	0.0	0.0	87.3	75.7
=	0.0	0.0	87.7	75.6
=	0.0	0.0	88.1	75.5
=	0.0	0.0	88.4	75.4
=	0.0	0.0	88.7	75.3
=	0.0	0.0	89.1	75.2
=	0.0	0.0	89.6	75.1
=	0.0	0.0	89.9	74.9
=	0.0	0.0	90.2	74.8
=	0.0	0.0	90.6	74.6
=	0.0	0.0	91.0	74.5
=	0.0	0.0	91.4	74.3
=	0.0	0.0	91.8	74.2
=	0.0	0.0	92.2	74.1
=	0.0	0.0	92.7	73.9
=	0.0	0.0	93.1	73.7
=	0.0	0.0	93.5	73.6
=	0.0	0.0	93.9	73.5
=	0.0	0.0	94.3	73.3
=	0.0	0.0	94.7	73.2
=	0.0	0.0	95.1	73.1
=	0.0	0.0	95.6	73.0
=	0.0	0.0	96.0	72.9
=	0.0	0.0	96.4	72.7
=	0.0	0.0	96.8	72.5
=	0.0	0.0	97.2	72.4
=	0.0	0.0	97.6	72.2
=	0.0	0.0	98.0	72.1
=	0.0	0.0	98.4	72.0
=	0.0	0.0	98.8	71.8
=	0.0	0.0	99.2	71.7
=	0.0	0.0	99.6	71.5
=	0.0	0.0	100.1	71.3
=	0.0	0.0	100.3	71.2
=	0.0	0.0	100.7	71.1
=	0.0	0.0	101.1	70.9
=	0.0	0.0	101.4	70.9
=	0.0	0.0	101.7	70.8
=	0.0	0.0	102.1	70.7
=	0.0	0.0	102.4	70.6
=	0.0	0.0	102.7	70.5
=	0.0	0.0	103.1	70.4
=	0.0	0.0	103.5	70.3
=	0.0	0.0	104.0	70.1
=	0.0	0.0	104.4	69.9
=	0.0	0.0	104.8	69.9
=	0.0	0.0	105.2	69.7
=	0.0	0.0	105.6	69.5
=	0.0	0.0	105.9	69.4
=	0.0	0.0	106.2	69.3
=	0.0	0.0	106.6	69.2
=	0.0	0.0	106.9	69.0
=	0.0	0.0	107.2	68.9
=	0.0	0.0	107.7	68.8
=	0.0	0.0	108.0	68.7
=	0.0	0.0	108.2	68.6
=	0.0	0.0	108.6	68.5
=	0.0	0.0	109.0	68.4
=	0.0	0.0	109.3	68.3
=	0.0	0.0	109.6	68.3
=	0.0	0.0	109.9	68.2
=	0.0	0.0	110.1	68.1
=	0.0	0.0	110.4	67.9
=	0.0	0.0	110.7	67.8
=	0.0	0.0	111.0	67.7
=	0.0	0.0	111.3	67.6
=	0.0	0.0	111.7	67.5
=	0.0	0.0	111.9	67.4
=	0.0	0.0	112.3	67.3
=	0.0	0.0	112.6	67.2
=	0.0	0.0	112.9	67.1
=	0.0	0.0	113.3	67.0
=	0.0	0.0	113.5	66.9
=	0.0	0.0	113.9	66.8
=	0.0	0.0	114.3	66.7
=	0.0	0.0	114.6	66.6
=	0.0	0.0	114.9	66.6
=	0.0	0.0	115.3	66.4
=	0.0	0.0	115.7	66.3
=	0.0	0.0	116.1	66.1
=	0.0	0.0	116.3	66.0
=	0.0	0.0	116.7	65.9
=	0.0	0.0	117.1	65.8
=	0.0	0.0	117.4	65.8
=	0.0	0.0	117.8	65.6
=	0.0	0.0	118.1	65.4
=	0.0	0.0	118.4	65.3
=	0.0	0.0	118.7	65.2
=	0.0	0.0	119.1	65.1
=	0.0	0.0	119.4	65.0
=	0.0	0.0	119.7	64.9
=	0.0	0.0	120.0	64.9
=	0.0	0.0	120.4	64.8
=	0.0	0.0	120.8	64.7
=	0.0	0.0	121.2	64.6
=	0.0	0.0	121.5	64.4
=	0.0	0.0	121.9	64.3
=	0.0	0.0	122.3	64.1
=	0.0	0.0	122.6	64.0
=	0.0	0.0	123.0	64.0
=	0.0	0.0	123.2	63.9
=	0.0	0.0	123.6	63.8
=	0.0	0.0	124.0	63.7
=	0.0	0.0	124.2	63.6
=	0.0	0.0	124.6	63.5
=	0.0	0.0	125.0	63.3
=	0.0	0.0	125.4	63.2
=	0.0	0.0	125.8	63.1
=	0.0	0.0	126.2	62.9
=	0.0	0.0	126.6	62.8
=	0.0	0.0	127.0	62.6
=	0.0	0.0	127.3	62.6
=	0.0	0.0	127.7	62.4
=	0.0	0.0	128.1	62.3
=	0.0	0.0	128.5	62.3
=	0.0	0.0	128.7	62.2
=	0.0	0.0	129.1	62.1
=	0.0	0.0	129.3	62.0
=	0.0	0.0	129.6	61.9
=	0.0	0.0	130.0	61.8
=	0.0	0.0	130.3	61.7
=	0.0	0.0	130.7	61.6
=	0.0	0.0	130.9	61.6
=	0.0	0.0	131.4	61.4
=	0.0	0.0	131.7	61.3
=	0.0	0.0	132.0	61.2
=	0.0	0.0	132.4	61.1
=	0.0	0.0	132.7	61.0
=	0.0	0.0	133.0	60.9
=	0.0	0.0	133.2	60.8
=	0.0	0.0	133.6	60.7
=	0.0	0.0	133.8	60.6
=	0.0	0.0	134.1	60.5
=	0.0	0.0	134.4	60.4
=	0.0	0.0	134.8	60.3
=	0.0	0.0	135.0	60.3
=	0.0	0.0	135.4	60.2
=	0.0	0.0	135.8	60.1
=	0.0	0.0	136.1	60.1
=	0.0	0.0	136.5	59.9
=	0.0	0.0	136.9	59.7
=	0.0	0.0	137.2	59.6
=	0.0	0.0	137.5	59.5
=	0.0	0.0	137.8	59.5
=	0.0	0.0	138.1	59.4
=	0.0	0.0	138.5	59.3
=	0.0	0.0	138.8	59.2
=	0.0	0.0	139.1	59.1
=	0.0	0.0	139.5	59.0
=	0.0	0.0	139.8	58.9
=	0.0	0.0	140.1	58.8
=	0.0	0.0	140.6	58.7
=	0.0	0.0	141.0	58.5
=	0.0	0.0	141.4	58.4
=	0.0	0.0	141.7	58.3
=	0.0	0.0	142.0	58.2
=	0.0	0.0	142.4	58.2
=	0.0	0.0	142.8	58.1
=	0.0	0.0	143.2	58.0
=	0.0	0.0	143.5	57.9
=	0.0	0.0	143.8	57.7
=	0.0	0.0	144.2	57.6
=	0.0	0.0	144.5	57.5
=	0.0	0.0	144.9	57.4
=	0.0	0.0	145.3	57.3
=	0.0	0.0	145.7	57.2
=	0.0	0.0	146.1	57.1
=	0.0	0.0	146.5	57.0
=	0.0	0.0	146.9	56.9
=	0.0	0.0	147.3	56.8
=	0.0	0.0	147.7	56.7
=	0.0	0.0	148.0	56.6
=	0.0	0.0	148.4	56.5
=	0.0	0.0	148.8	56.4
=	0.0	0.0	149.0	56.3
=	0.0	0.0	149.4	56.2
=	0.0	0.0	149.8	56.1
=	0.0	0.0	150.0	56.1
=	0.0	0.0	150.4	56.0
=	0.0	0.0	150.8	55.9
=	0.0	0.0	151.1	55.8
=	0.0	0.0	151.5	55.7
=	0.0	0.0	151.9	55.5
=	0.0	0.0	152.2	55.3
=	0.0	0.0	152.5	55.3
=	0.0	0.0	152.9	55.2
=	0.0	0.0	153.3	55.1
=	0.0	0.0	153.5	55.1
=	0.0	0.0	153.9	55.0
=	0.0	0.0	154.3	54.9
=	0.0	0.0	154.5	54.8
=	0.0	0.0	154.9	54.7
=	0.0	0.0	155.3	54.7
=	0.0	0.0	155.6	54.6
=	0.0	0.0	155.9	54.5
=	0.0	0.0	156.2	54.4
=	0.0	0.0	156.4	54.3
=	0.0	0.0	156.7	54.2
=	0.0	0.0	157.1	54.1
=	0.0	0.0	157.4	54.1
=	0.0	0.0	157.8	54.0
=	0.0	0.0	158.2	53.9
=	0.0	0.0	158.5	53.8
=	0.0	0.0	158.8	53.7
=	0.0	0.0	159.1	53.6
=	0.0	0.0	159.4	53.5
=	0.0	0.0	159.8	53.4
=	0.0	0.0	160.1	53.3
=	0.0	0.0	160.4	53.2
=	0.0	0.0	160.8	53.1
=	0.0	0.0	161.1	53.1
=	0.0	0.0	161.5	53.0
=	0.0	0.0	161.9	52.8
=	0.0	0.0	162.3	52.7
=	0.0	0.0	162.5	52.7
=	0.0	0.0	162.9	52.6
=	0.0	0.0	163.2	52.5
=	0.0	0.0	163.6	52.5
=	0.0	0.0	163.9	52.4
=	0.0	0.0	164.3	52.3
=	0.0	0.0	164.7	52.1
=	0.0	0.0	165.1	52.0
=	0.0	0.0	165.4	52.0
=	0.0	0.0	165.7	52.0
=	0.0	0.0	165.9	51.9
