:MSR 	25	 # No. of measurement in file
:SYS BDS 0   # Beam Data Scanner System
#
# RFA300 ASCII Measurement Dump ( BDS format )
#
# Measurement number 	1
#
%VNR 1.0
%MOD 	RAT
%TYP 	SCN
%SCN 	PRO
%FLD 	ION
%DAT 	02-01-2012
%TIM 	12:00:00
%FSZ 	040	040
%BMT 	PHO	   8.0
%SSD 	1000
%BUP 	0
%BRD 	1000
%FSH 	1
%ASC 	0
%WEG 	15
%GPO 	0
%CPO 	0
%MEA 	6
%PRD 	20,0
%PTS 	503
%STS 	    -90.2	  0.0	   20.0 # Start Scan values in mm ( X , Y , Z )
%EDS 	    90.3	   0.0	   20.0 # End Scan values in mm ( X , Y , Z )
#
#	  X      Y      Z     Dose
#
=	-90.2	0.0	20.0	0.7
=	-89.8	0.0	20.0	0.7
=	-89.4	0.0	20.0	0.7
=	-89.0	0.0	20.0	0.7
=	-88.6	0.0	20.0	0.7
=	-88.4	0.0	20.0	0.7
=	-88.0	0.0	20.0	0.7
=	-87.5	0.0	20.0	0.7
=	-87.2	0.0	20.0	0.7
=	-86.8	0.0	20.0	0.7
=	-86.4	0.0	20.0	0.7
=	-86.1	0.0	20.0	0.7
=	-85.9	0.0	20.0	0.7
=	-85.7	0.0	20.0	0.7
=	-85.3	0.0	20.0	0.7
=	-84.9	0.0	20.0	0.7
=	-84.6	0.0	20.0	0.7
=	-84.3	0.0	20.0	0.7
=	-83.9	0.0	20.0	0.7
=	-83.6	0.0	20.0	0.7
=	-83.3	0.0	20.0	0.7
=	-82.9	0.0	20.0	0.7
=	-82.6	0.0	20.0	0.7
=	-82.2	0.0	20.0	0.8
=	-81.8	0.0	20.0	0.8
=	-81.5	0.0	20.0	0.8
=	-81.1	0.0	20.0	0.8
=	-80.7	0.0	20.0	0.8
=	-80.3	0.0	20.0	0.8
=	-79.9	0.0	20.0	0.8
=	-79.5	0.0	20.0	0.8
=	-79.1	0.0	20.0	0.8
=	-78.6	0.0	20.0	0.8
=	-78.2	0.0	20.0	0.8
=	-78.0	0.0	20.0	0.8
=	-77.6	0.0	20.0	0.8
=	-77.2	0.0	20.0	0.8
=	-76.8	0.0	20.0	0.8
=	-76.4	0.0	20.0	0.8
=	-76.0	0.0	20.0	0.8
=	-75.6	0.0	20.0	0.8
=	-75.1	0.0	20.0	0.8
=	-74.7	0.0	20.0	0.8
=	-74.3	0.0	20.0	0.8
=	-74.1	0.0	20.0	0.8
=	-73.7	0.0	20.0	0.8
=	-73.3	0.0	20.0	0.8
=	-73.0	0.0	20.0	0.8
=	-72.7	0.0	20.0	0.8
=	-72.4	0.0	20.0	0.8
=	-72.0	0.0	20.0	0.8
=	-71.7	0.0	20.0	0.8
=	-71.5	0.0	20.0	0.8
=	-71.3	0.0	20.0	0.8
=	-71.0	0.0	20.0	0.8
=	-70.7	0.0	20.0	0.8
=	-70.2	0.0	20.0	0.8
=	-69.8	0.0	20.0	0.8
=	-69.4	0.0	20.0	0.8
=	-69.0	0.0	20.0	0.8
=	-68.6	0.0	20.0	0.8
=	-68.1	0.0	20.0	0.9
=	-67.7	0.0	20.0	0.9
=	-67.3	0.0	20.0	0.9
=	-66.9	0.0	20.0	0.9
=	-66.5	0.0	20.0	0.9
=	-66.2	0.0	20.0	0.9
=	-65.9	0.0	20.0	0.9
=	-65.5	0.0	20.0	0.9
=	-65.1	0.0	20.0	0.9
=	-64.8	0.0	20.0	0.9
=	-64.4	0.0	20.0	0.9
=	-64.0	0.0	20.0	0.9
=	-63.6	0.0	20.0	0.9
=	-63.3	0.0	20.0	0.9
=	-63.1	0.0	20.0	0.9
=	-62.8	0.0	20.0	0.9
=	-62.5	0.0	20.0	0.9
=	-62.1	0.0	20.0	0.9
=	-61.8	0.0	20.0	0.9
=	-61.6	0.0	20.0	0.9
=	-61.3	0.0	20.0	0.9
=	-61.1	0.0	20.0	0.9
=	-60.8	0.0	20.0	0.9
=	-60.4	0.0	20.0	0.9
=	-60.0	0.0	20.0	0.9
=	-59.6	0.0	20.0	0.9
=	-59.3	0.0	20.0	1.0
=	-58.9	0.0	20.0	1.0
=	-58.5	0.0	20.0	1.0
=	-58.1	0.0	20.0	1.0
=	-57.7	0.0	20.0	1.0
=	-57.4	0.0	20.0	1.0
=	-57.1	0.0	20.0	1.0
=	-56.7	0.0	20.0	1.0
=	-56.3	0.0	20.0	1.0
=	-55.8	0.0	20.0	1.0
=	-55.5	0.0	20.0	1.0
=	-55.2	0.0	20.0	1.0
=	-54.9	0.0	20.0	1.0
=	-54.6	0.0	20.0	1.1
=	-54.2	0.0	20.0	1.1
=	-53.9	0.0	20.0	1.1
=	-53.5	0.0	20.0	1.1
=	-53.2	0.0	20.0	1.1
=	-52.9	0.0	20.0	1.1
=	-52.6	0.0	20.0	1.1
=	-52.2	0.0	20.0	1.1
=	-51.9	0.0	20.0	1.1
=	-51.6	0.0	20.0	1.1
=	-51.2	0.0	20.0	1.1
=	-50.8	0.0	20.0	1.1
=	-50.6	0.0	20.0	1.1
=	-50.3	0.0	20.0	1.1
=	-50.0	0.0	20.0	1.1
=	-49.7	0.0	20.0	1.2
=	-49.4	0.0	20.0	1.2
=	-49.0	0.0	20.0	1.2
=	-48.7	0.0	20.0	1.2
=	-48.3	0.0	20.0	1.2
=	-47.8	0.0	20.0	1.2
=	-47.6	0.0	20.0	1.2
=	-47.3	0.0	20.0	1.3
=	-47.0	0.0	20.0	1.3
=	-46.6	0.0	20.0	1.3
=	-46.3	0.0	20.0	1.3
=	-46.0	0.0	20.0	1.3
=	-45.5	0.0	20.0	1.3
=	-45.1	0.0	20.0	1.3
=	-44.7	0.0	20.0	1.4
=	-44.3	0.0	20.0	1.4
=	-43.9	0.0	20.0	1.4
=	-43.5	0.0	20.0	1.4
=	-43.0	0.0	20.0	1.5
=	-42.6	0.0	20.0	1.5
=	-42.2	0.0	20.0	1.5
=	-41.8	0.0	20.0	1.5
=	-41.4	0.0	20.0	1.5
=	-40.9	0.0	20.0	1.6
=	-40.6	0.0	20.0	1.6
=	-40.3	0.0	20.0	1.6
=	-39.9	0.0	20.0	1.6
=	-39.5	0.0	20.0	1.7
=	-39.1	0.0	20.0	1.7
=	-38.7	0.0	20.0	1.7
=	-38.4	0.0	20.0	1.7
=	-38.1	0.0	20.0	1.8
=	-37.7	0.0	20.0	1.8
=	-37.4	0.0	20.0	1.8
=	-37.1	0.0	20.0	1.8
=	-36.6	0.0	20.0	1.9
=	-36.2	0.0	20.0	1.9
=	-35.9	0.0	20.0	2.0
=	-35.6	0.0	20.0	2.0
=	-35.3	0.0	20.0	2.0
=	-35.1	0.0	20.0	2.1
=	-34.8	0.0	20.0	2.1
=	-34.4	0.0	20.0	2.2
=	-34.0	0.0	20.0	2.2
=	-33.8	0.0	20.0	2.3
=	-33.4	0.0	20.0	2.3
=	-33.0	0.0	20.0	2.4
=	-32.7	0.0	20.0	2.4
=	-32.4	0.0	20.0	2.5
=	-31.9	0.0	20.0	2.6
=	-31.5	0.0	20.0	2.7
=	-31.2	0.0	20.0	2.8
=	-30.8	0.0	20.0	2.9
=	-30.4	0.0	20.0	3.1
=	-30.0	0.0	20.0	3.3
=	-29.6	0.0	20.0	3.4
=	-29.2	0.0	20.0	3.6
=	-28.8	0.0	20.0	3.9
=	-28.4	0.0	20.0	4.1
=	-28.0	0.0	20.0	4.5
=	-27.6	0.0	20.0	4.8
=	-27.2	0.0	20.0	5.3
=	-26.9	0.0	20.0	5.6
=	-26.6	0.0	20.0	6.1
=	-26.1	0.0	20.0	6.8
=	-25.7	0.0	20.0	7.5
=	-25.4	0.0	20.0	8.3
=	-25.2	0.0	20.0	9.0
=	-24.9	0.0	20.0	9.8
=	-24.5	0.0	20.0	11.1
=	-24.1	0.0	20.0	12.8
=	-23.7	0.0	20.0	15.1
=	-23.4	0.0	20.0	16.8
=	-23.1	0.0	20.0	18.9
=	-22.7	0.0	20.0	22.1
=	-22.3	0.0	20.0	25.4
=	-21.9	0.0	20.0	29.7
=	-21.5	0.0	20.0	33.8
=	-21.2	0.0	20.0	36.9
=	-20.8	0.0	20.0	41.5
=	-20.5	0.0	20.0	45.2
=	-20.3	0.0	20.0	47.7
=	-20.1	0.0	20.0	50.5
=	-19.8	0.0	20.0	54.3
=	-19.3	0.0	20.0	60.3
=	-18.8	0.0	20.0	65.7
=	-18.4	0.0	20.0	70.3
=	-18.1	0.0	20.0	73.2
=	-17.8	0.0	20.0	76.1
=	-17.5	0.0	20.0	79.5
=	-17.2	0.0	20.0	81.5
=	-16.8	0.0	20.0	85.0
=	-16.4	0.0	20.0	87.8
=	-16.0	0.0	20.0	90.3
=	-15.6	0.0	20.0	92.3
=	-15.2	0.0	20.0	93.7
=	-14.8	0.0	20.0	95.1
=	-14.4	0.0	20.0	96.1
=	-14.0	0.0	20.0	96.7
=	-13.7	0.0	20.0	97.3
=	-13.4	0.0	20.0	97.8
=	-13.1	0.0	20.0	98.2
=	-12.8	0.0	20.0	98.6
=	-12.5	0.0	20.0	98.8
=	-12.1	0.0	20.0	99.1
=	-11.8	0.0	20.0	99.4
=	-11.4	0.0	20.0	99.7
=	-11.0	0.0	20.0	99.9
=	-10.5	0.0	20.0	100.0
=	-10.1	0.0	20.0	100.1
=	-9.7	0.0	20.0	100.2
=	-9.3	0.0	20.0	100.3
=	-8.9	0.0	20.0	100.3
=	-8.7	0.0	20.0	100.4
=	-8.4	0.0	20.0	100.4
=	-8.1	0.0	20.0	100.4
=	-7.7	0.0	20.0	100.4
=	-7.5	0.0	20.0	100.4
=	-7.1	0.0	20.0	100.4
=	-6.8	0.0	20.0	100.5
=	-6.5	0.0	20.0	100.5
=	-6.3	0.0	20.0	100.5
=	-6.0	0.0	20.0	100.5
=	-5.7	0.0	20.0	100.5
=	-5.3	0.0	20.0	100.4
=	-4.9	0.0	20.0	100.4
=	-4.5	0.0	20.0	100.4
=	-4.2	0.0	20.0	100.4
=	-3.8	0.0	20.0	100.4
=	-3.5	0.0	20.0	100.3
=	-3.3	0.0	20.0	100.3
=	-3.0	0.0	20.0	100.3
=	-2.8	0.0	20.0	100.3
=	-2.5	0.0	20.0	100.2
=	-2.0	0.0	20.0	100.2
=	-1.6	0.0	20.0	100.2
=	-1.3	0.0	20.0	100.1
=	-0.8	0.0	20.0	100.1
=	-0.4	0.0	20.0	100.1
=	0.0	0.0	20.0	100.0
=	0.4	0.0	20.0	100.0
=	0.8	0.0	20.0	99.9
=	1.2	0.0	20.0	99.9
=	1.6	0.0	20.0	99.8
=	1.9	0.0	20.0	99.8
=	2.2	0.0	20.0	99.7
=	2.5	0.0	20.0	99.7
=	2.8	0.0	20.0	99.7
=	3.2	0.0	20.0	99.6
=	3.6	0.0	20.0	99.6
=	3.9	0.0	20.0	99.6
=	4.3	0.0	20.0	99.5
=	4.6	0.0	20.0	99.4
=	4.9	0.0	20.0	99.4
=	5.3	0.0	20.0	99.3
=	5.7	0.0	20.0	99.2
=	5.9	0.0	20.0	99.1
=	6.3	0.0	20.0	99.0
=	6.7	0.0	20.0	99.0
=	7.1	0.0	20.0	98.9
=	7.4	0.0	20.0	98.8
=	7.7	0.0	20.0	98.7
=	8.1	0.0	20.0	98.6
=	8.5	0.0	20.0	98.5
=	8.8	0.0	20.0	98.4
=	9.1	0.0	20.0	98.3
=	9.3	0.0	20.0	98.1
=	9.6	0.0	20.0	98.0
=	10.0	0.0	20.0	97.8
=	10.4	0.0	20.0	97.7
=	10.6	0.0	20.0	97.5
=	10.9	0.0	20.0	97.4
=	11.2	0.0	20.0	97.1
=	11.6	0.0	20.0	96.8
=	12.0	0.0	20.0	96.4
=	12.4	0.0	20.0	96.0
=	12.8	0.0	20.0	95.6
=	13.2	0.0	20.0	95.1
=	13.6	0.0	20.0	94.3
=	14.0	0.0	20.0	93.5
=	14.4	0.0	20.0	92.6
=	14.7	0.0	20.0	92.0
=	15.0	0.0	20.0	91.0
=	15.3	0.0	20.0	90.1
=	15.6	0.0	20.0	88.5
=	16.0	0.0	20.0	86.6
=	16.5	0.0	20.0	84.0
=	16.9	0.0	20.0	81.1
=	17.2	0.0	20.0	77.9
=	17.7	0.0	20.0	74.2
=	18.0	0.0	20.0	70.4
=	18.3	0.0	20.0	67.7
=	18.7	0.0	20.0	63.2
=	19.1	0.0	20.0	58.9
=	19.5	0.0	20.0	53.9
=	19.9	0.0	20.0	49.2
=	20.2	0.0	20.0	46.0
=	20.5	0.0	20.0	42.6
=	20.9	0.0	20.0	37.9
=	21.3	0.0	20.0	33.3
=	21.7	0.0	20.0	28.9
=	22.0	0.0	20.0	26.5
=	22.3	0.0	20.0	23.5
=	22.7	0.0	20.0	20.3
=	23.2	0.0	20.0	17.2
=	23.6	0.0	20.0	14.6
=	24.0	0.0	20.0	12.6
=	24.4	0.0	20.0	10.8
=	24.8	0.0	20.0	9.5
=	25.1	0.0	20.0	8.4
=	25.5	0.0	20.0	7.6
=	25.8	0.0	20.0	7.0
=	26.2	0.0	20.0	6.4
=	26.5	0.0	20.0	5.8
=	26.8	0.0	20.0	5.5
=	27.2	0.0	20.0	5.0
=	27.6	0.0	20.0	4.6
=	28.0	0.0	20.0	4.1
=	28.5	0.0	20.0	3.9
=	28.9	0.0	20.0	3.7
=	29.2	0.0	20.0	3.5
=	29.4	0.0	20.0	3.4
=	29.8	0.0	20.0	3.2
=	30.2	0.0	20.0	3.0
=	30.6	0.0	20.0	2.9
=	31.0	0.0	20.0	2.8
=	31.4	0.0	20.0	2.6
=	31.7	0.0	20.0	2.5
=	32.0	0.0	20.0	2.5
=	32.4	0.0	20.0	2.4
=	32.7	0.0	20.0	2.3
=	33.0	0.0	20.0	2.3
=	33.3	0.0	20.0	2.2
=	33.7	0.0	20.0	2.2
=	33.9	0.0	20.0	2.1
=	34.2	0.0	20.0	2.1
=	34.5	0.0	20.0	2.1
=	34.9	0.0	20.0	2.0
=	35.2	0.0	20.0	2.0
=	35.5	0.0	20.0	1.9
=	36.0	0.0	20.0	1.9
=	36.2	0.0	20.0	1.8
=	36.6	0.0	20.0	1.8
=	37.0	0.0	20.0	1.8
=	37.4	0.0	20.0	1.8
=	37.8	0.0	20.0	1.7
=	38.2	0.0	20.0	1.7
=	38.6	0.0	20.0	1.7
=	38.9	0.0	20.0	1.6
=	39.3	0.0	20.0	1.6
=	39.7	0.0	20.0	1.6
=	40.1	0.0	20.0	1.5
=	40.5	0.0	20.0	1.5
=	40.9	0.0	20.0	1.5
=	41.2	0.0	20.0	1.5
=	41.6	0.0	20.0	1.5
=	42.0	0.0	20.0	1.4
=	42.4	0.0	20.0	1.4
=	42.8	0.0	20.0	1.4
=	43.2	0.0	20.0	1.4
=	43.6	0.0	20.0	1.3
=	44.0	0.0	20.0	1.3
=	44.5	0.0	20.0	1.3
=	44.8	0.0	20.0	1.3
=	45.1	0.0	20.0	1.3
=	45.4	0.0	20.0	1.3
=	45.8	0.0	20.0	1.2
=	46.1	0.0	20.0	1.2
=	46.5	0.0	20.0	1.2
=	46.8	0.0	20.0	1.2
=	47.1	0.0	20.0	1.2
=	47.5	0.0	20.0	1.2
=	47.8	0.0	20.0	1.2
=	48.1	0.0	20.0	1.2
=	48.4	0.0	20.0	1.1
=	48.7	0.0	20.0	1.1
=	49.0	0.0	20.0	1.1
=	49.4	0.0	20.0	1.1
=	49.8	0.0	20.0	1.1
=	50.2	0.0	20.0	1.1
=	50.6	0.0	20.0	1.1
=	51.0	0.0	20.0	1.1
=	51.3	0.0	20.0	1.1
=	51.6	0.0	20.0	1.1
=	52.1	0.0	20.0	1.1
=	52.5	0.0	20.0	1.1
=	52.9	0.0	20.0	1.0
=	53.3	0.0	20.0	1.0
=	53.7	0.0	20.0	1.0
=	54.0	0.0	20.0	1.0
=	54.4	0.0	20.0	1.0
=	54.7	0.0	20.0	1.0
=	55.1	0.0	20.0	1.0
=	55.4	0.0	20.0	1.0
=	55.7	0.0	20.0	1.0
=	56.1	0.0	20.0	1.0
=	56.5	0.0	20.0	0.9
=	56.9	0.0	20.0	0.9
=	57.3	0.0	20.0	0.9
=	57.6	0.0	20.0	0.9
=	57.9	0.0	20.0	0.9
=	58.2	0.0	20.0	0.9
=	58.6	0.0	20.0	0.9
=	59.0	0.0	20.0	0.9
=	59.2	0.0	20.0	0.9
=	59.6	0.0	20.0	0.9
=	59.9	0.0	20.0	0.9
=	60.2	0.0	20.0	0.9
=	60.6	0.0	20.0	0.9
=	60.9	0.0	20.0	0.9
=	61.4	0.0	20.0	0.9
=	61.7	0.0	20.0	0.9
=	62.2	0.0	20.0	0.9
=	62.6	0.0	20.0	0.9
=	63.0	0.0	20.0	0.9
=	63.5	0.0	20.0	0.9
=	63.9	0.0	20.0	0.9
=	64.3	0.0	20.0	0.8
=	64.7	0.0	20.0	0.8
=	65.1	0.0	20.0	0.8
=	65.4	0.0	20.0	0.8
=	65.7	0.0	20.0	0.8
=	66.2	0.0	20.0	0.8
=	66.6	0.0	20.0	0.8
=	67.0	0.0	20.0	0.8
=	67.3	0.0	20.0	0.8
=	67.6	0.0	20.0	0.8
=	68.0	0.0	20.0	0.8
=	68.4	0.0	20.0	0.8
=	68.8	0.0	20.0	0.8
=	69.3	0.0	20.0	0.8
=	69.7	0.0	20.0	0.8
=	70.1	0.0	20.0	0.8
=	70.4	0.0	20.0	0.8
=	70.9	0.0	20.0	0.8
=	71.3	0.0	20.0	0.8
=	71.5	0.0	20.0	0.8
=	71.9	0.0	20.0	0.8
=	72.3	0.0	20.0	0.8
=	72.7	0.0	20.0	0.8
=	73.1	0.0	20.0	0.8
=	73.4	0.0	20.0	0.8
=	73.7	0.0	20.0	0.8
=	74.0	0.0	20.0	0.8
=	74.3	0.0	20.0	0.8
=	74.7	0.0	20.0	0.7
=	75.2	0.0	20.0	0.7
=	75.5	0.0	20.0	0.7
=	76.0	0.0	20.0	0.7
=	76.4	0.0	20.0	0.7
=	76.8	0.0	20.0	0.7
=	77.2	0.0	20.0	0.7
=	77.6	0.0	20.0	0.7
=	78.0	0.0	20.0	0.7
=	78.5	0.0	20.0	0.7
=	78.7	0.0	20.0	0.7
=	79.1	0.0	20.0	0.7
=	79.5	0.0	20.0	0.7
=	79.9	0.0	20.0	0.7
=	80.2	0.0	20.0	0.7
=	80.5	0.0	20.0	0.7
=	81.0	0.0	20.0	0.7
=	81.4	0.0	20.0	0.7
=	81.7	0.0	20.0	0.7
=	82.0	0.0	20.0	0.7
=	82.4	0.0	20.0	0.7
=	82.8	0.0	20.0	0.7
=	83.2	0.0	20.0	0.7
=	83.6	0.0	20.0	0.7
=	84.0	0.0	20.0	0.7
=	84.4	0.0	20.0	0.7
=	84.8	0.0	20.0	0.7
=	85.2	0.0	20.0	0.7
=	85.7	0.0	20.0	0.7
=	86.0	0.0	20.0	0.7
=	86.3	0.0	20.0	0.7
=	86.7	0.0	20.0	0.7
=	87.1	0.0	20.0	0.7
=	87.4	0.0	20.0	0.7
=	87.6	0.0	20.0	0.7
=	87.9	0.0	20.0	0.7
=	88.3	0.0	20.0	0.7
=	88.6	0.0	20.0	0.7
=	89.0	0.0	20.0	0.7
=	89.3	0.0	20.0	0.7
=	89.6	0.0	20.0	0.6
=	90.0	0.0	20.0	0.7
=	90.3	0.0	20.0	0.7
:EOM # End of Measurement
#
# RFA300 ASCII Measurement Dump ( BDS format )
#
# Measurement number 	2
#
%VNR 1.0
%MOD 	RAT
%TYP 	SCN
%SCN 	PRO
%FLD 	ION
%DAT 	02-01-2012
%TIM 	12:00:00
%FSZ 	040	040
%BMT 	PHO	   8.0
%SSD 	1000
%BUP 	0
%BRD 	1000
%FSH 	1
%ASC 	0
%WEG 	15
%GPO 	0
%CPO 	0
%MEA 	6
%PRD 	50,0
%PTS 	528
%STS 	    -94.2	  0.0	   50.0 # Start Scan values in mm ( X , Y , Z )
%EDS 	    94.2	   0.0	   50.0 # End Scan values in mm ( X , Y , Z )
#
#	  X      Y      Z     Dose
#
=	-94.2	0.0	50.0	0.8
=	-93.8	0.0	50.0	0.7
=	-93.5	0.0	50.0	0.7
=	-93.2	0.0	50.0	0.7
=	-92.8	0.0	50.0	0.7
=	-92.5	0.0	50.0	0.7
=	-92.2	0.0	50.0	0.7
=	-91.7	0.0	50.0	0.7
=	-91.4	0.0	50.0	0.7
=	-91.0	0.0	50.0	0.7
=	-90.8	0.0	50.0	0.7
=	-90.5	0.0	50.0	0.7
=	-90.2	0.0	50.0	0.7
=	-89.7	0.0	50.0	0.7
=	-89.3	0.0	50.0	0.7
=	-89.0	0.0	50.0	0.7
=	-88.7	0.0	50.0	0.7
=	-88.3	0.0	50.0	0.7
=	-87.8	0.0	50.0	0.7
=	-87.6	0.0	50.0	0.8
=	-87.2	0.0	50.0	0.8
=	-86.8	0.0	50.0	0.8
=	-86.4	0.0	50.0	0.8
=	-86.1	0.0	50.0	0.8
=	-85.8	0.0	50.0	0.8
=	-85.6	0.0	50.0	0.8
=	-85.2	0.0	50.0	0.8
=	-84.9	0.0	50.0	0.8
=	-84.5	0.0	50.0	0.8
=	-84.2	0.0	50.0	0.8
=	-84.0	0.0	50.0	0.8
=	-83.5	0.0	50.0	0.8
=	-83.1	0.0	50.0	0.8
=	-82.7	0.0	50.0	0.8
=	-82.3	0.0	50.0	0.8
=	-81.9	0.0	50.0	0.8
=	-81.4	0.0	50.0	0.8
=	-81.0	0.0	50.0	0.8
=	-80.6	0.0	50.0	0.8
=	-80.2	0.0	50.0	0.8
=	-79.9	0.0	50.0	0.8
=	-79.5	0.0	50.0	0.8
=	-79.2	0.0	50.0	0.8
=	-78.9	0.0	50.0	0.8
=	-78.6	0.0	50.0	0.8
=	-78.2	0.0	50.0	0.8
=	-77.8	0.0	50.0	0.8
=	-77.4	0.0	50.0	0.8
=	-76.9	0.0	50.0	0.8
=	-76.5	0.0	50.0	0.8
=	-76.1	0.0	50.0	0.8
=	-75.7	0.0	50.0	0.8
=	-75.2	0.0	50.0	0.8
=	-74.8	0.0	50.0	0.8
=	-74.4	0.0	50.0	0.8
=	-74.0	0.0	50.0	0.8
=	-73.6	0.0	50.0	0.8
=	-73.2	0.0	50.0	0.9
=	-72.8	0.0	50.0	0.9
=	-72.6	0.0	50.0	0.9
=	-72.2	0.0	50.0	0.9
=	-71.7	0.0	50.0	0.9
=	-71.4	0.0	50.0	0.9
=	-71.1	0.0	50.0	0.9
=	-70.7	0.0	50.0	0.9
=	-70.4	0.0	50.0	0.9
=	-70.1	0.0	50.0	0.9
=	-69.7	0.0	50.0	0.9
=	-69.3	0.0	50.0	0.9
=	-68.9	0.0	50.0	0.9
=	-68.5	0.0	50.0	0.9
=	-68.0	0.0	50.0	0.9
=	-67.7	0.0	50.0	0.9
=	-67.2	0.0	50.0	0.9
=	-66.8	0.0	50.0	0.9
=	-66.6	0.0	50.0	0.9
=	-66.2	0.0	50.0	1.0
=	-65.7	0.0	50.0	1.0
=	-65.3	0.0	50.0	1.0
=	-64.9	0.0	50.0	1.0
=	-64.5	0.0	50.0	1.0
=	-64.2	0.0	50.0	1.0
=	-63.7	0.0	50.0	1.0
=	-63.3	0.0	50.0	1.0
=	-63.1	0.0	50.0	1.0
=	-62.7	0.0	50.0	1.0
=	-62.3	0.0	50.0	1.0
=	-62.0	0.0	50.0	1.0
=	-61.7	0.0	50.0	1.0
=	-61.3	0.0	50.0	1.0
=	-61.0	0.0	50.0	1.0
=	-60.6	0.0	50.0	1.1
=	-60.2	0.0	50.0	1.1
=	-59.8	0.0	50.0	1.1
=	-59.5	0.0	50.0	1.1
=	-59.3	0.0	50.0	1.1
=	-59.0	0.0	50.0	1.1
=	-58.6	0.0	50.0	1.1
=	-58.2	0.0	50.0	1.1
=	-57.8	0.0	50.0	1.1
=	-57.6	0.0	50.0	1.1
=	-57.3	0.0	50.0	1.1
=	-57.0	0.0	50.0	1.1
=	-56.7	0.0	50.0	1.1
=	-56.5	0.0	50.0	1.2
=	-56.2	0.0	50.0	1.2
=	-55.9	0.0	50.0	1.2
=	-55.5	0.0	50.0	1.2
=	-55.2	0.0	50.0	1.2
=	-54.9	0.0	50.0	1.2
=	-54.5	0.0	50.0	1.2
=	-54.1	0.0	50.0	1.2
=	-53.6	0.0	50.0	1.2
=	-53.3	0.0	50.0	1.3
=	-53.0	0.0	50.0	1.3
=	-52.6	0.0	50.0	1.3
=	-52.2	0.0	50.0	1.3
=	-52.0	0.0	50.0	1.3
=	-51.6	0.0	50.0	1.3
=	-51.2	0.0	50.0	1.3
=	-50.8	0.0	50.0	1.4
=	-50.5	0.0	50.0	1.4
=	-50.1	0.0	50.0	1.4
=	-49.7	0.0	50.0	1.4
=	-49.3	0.0	50.0	1.4
=	-49.1	0.0	50.0	1.4
=	-48.7	0.0	50.0	1.4
=	-48.4	0.0	50.0	1.5
=	-48.1	0.0	50.0	1.5
=	-47.8	0.0	50.0	1.5
=	-47.5	0.0	50.0	1.5
=	-47.1	0.0	50.0	1.5
=	-46.7	0.0	50.0	1.6
=	-46.3	0.0	50.0	1.6
=	-46.0	0.0	50.0	1.6
=	-45.6	0.0	50.0	1.6
=	-45.3	0.0	50.0	1.6
=	-44.9	0.0	50.0	1.6
=	-44.6	0.0	50.0	1.7
=	-44.1	0.0	50.0	1.7
=	-43.7	0.0	50.0	1.7
=	-43.3	0.0	50.0	1.8
=	-42.9	0.0	50.0	1.8
=	-42.5	0.0	50.0	1.9
=	-42.0	0.0	50.0	1.9
=	-41.7	0.0	50.0	1.9
=	-41.2	0.0	50.0	1.9
=	-40.8	0.0	50.0	2.0
=	-40.4	0.0	50.0	2.0
=	-40.0	0.0	50.0	2.1
=	-39.6	0.0	50.0	2.1
=	-39.1	0.0	50.0	2.2
=	-38.7	0.0	50.0	2.2
=	-38.3	0.0	50.0	2.2
=	-38.0	0.0	50.0	2.3
=	-37.7	0.0	50.0	2.3
=	-37.3	0.0	50.0	2.4
=	-36.9	0.0	50.0	2.4
=	-36.6	0.0	50.0	2.5
=	-36.3	0.0	50.0	2.5
=	-36.0	0.0	50.0	2.6
=	-35.6	0.0	50.0	2.6
=	-35.3	0.0	50.0	2.7
=	-35.0	0.0	50.0	2.7
=	-34.6	0.0	50.0	2.9
=	-34.2	0.0	50.0	3.0
=	-33.8	0.0	50.0	3.1
=	-33.5	0.0	50.0	3.1
=	-33.1	0.0	50.0	3.2
=	-32.7	0.0	50.0	3.4
=	-32.3	0.0	50.0	3.5
=	-31.9	0.0	50.0	3.7
=	-31.5	0.0	50.0	3.8
=	-31.1	0.0	50.0	4.0
=	-30.7	0.0	50.0	4.2
=	-30.5	0.0	50.0	4.3
=	-30.1	0.0	50.0	4.6
=	-29.7	0.0	50.0	4.8
=	-29.5	0.0	50.0	5.0
=	-29.3	0.0	50.0	5.2
=	-28.9	0.0	50.0	5.4
=	-28.6	0.0	50.0	5.7
=	-28.3	0.0	50.0	6.1
=	-27.9	0.0	50.0	6.5
=	-27.5	0.0	50.0	7.1
=	-27.1	0.0	50.0	7.8
=	-26.6	0.0	50.0	8.5
=	-26.2	0.0	50.0	9.4
=	-25.8	0.0	50.0	10.6
=	-25.4	0.0	50.0	11.8
=	-25.1	0.0	50.0	12.9
=	-24.7	0.0	50.0	14.6
=	-24.3	0.0	50.0	16.6
=	-24.0	0.0	50.0	18.5
=	-23.7	0.0	50.0	20.7
=	-23.3	0.0	50.0	23.6
=	-23.0	0.0	50.0	25.5
=	-22.8	0.0	50.0	27.4
=	-22.6	0.0	50.0	29.7
=	-22.2	0.0	50.0	33.4
=	-21.9	0.0	50.0	36.9
=	-21.4	0.0	50.0	42.0
=	-21.0	0.0	50.0	46.1
=	-20.7	0.0	50.0	50.1
=	-20.3	0.0	50.0	54.2
=	-20.0	0.0	50.0	58.2
=	-19.7	0.0	50.0	61.4
=	-19.4	0.0	50.0	64.7
=	-19.1	0.0	50.0	68.4
=	-18.7	0.0	50.0	72.1
=	-18.3	0.0	50.0	76.0
=	-17.9	0.0	50.0	79.6
=	-17.7	0.0	50.0	81.8
=	-17.3	0.0	50.0	84.5
=	-17.1	0.0	50.0	86.3
=	-16.8	0.0	50.0	88.0
=	-16.5	0.0	50.0	89.5
=	-16.1	0.0	50.0	91.2
=	-15.7	0.0	50.0	93.0
=	-15.4	0.0	50.0	94.1
=	-14.9	0.0	50.0	95.2
=	-14.5	0.0	50.0	95.9
=	-14.2	0.0	50.0	96.6
=	-13.9	0.0	50.0	97.1
=	-13.5	0.0	50.0	97.5
=	-13.1	0.0	50.0	97.9
=	-12.9	0.0	50.0	98.2
=	-12.5	0.0	50.0	98.5
=	-12.2	0.0	50.0	98.7
=	-11.8	0.0	50.0	98.9
=	-11.5	0.0	50.0	99.1
=	-11.1	0.0	50.0	99.4
=	-10.6	0.0	50.0	99.6
=	-10.2	0.0	50.0	99.7
=	-9.8	0.0	50.0	99.8
=	-9.4	0.0	50.0	99.9
=	-9.1	0.0	50.0	100.0
=	-8.6	0.0	50.0	100.1
=	-8.4	0.0	50.0	100.1
=	-8.0	0.0	50.0	100.2
=	-7.6	0.0	50.0	100.3
=	-7.2	0.0	50.0	100.3
=	-6.9	0.0	50.0	100.3
=	-6.6	0.0	50.0	100.3
=	-6.2	0.0	50.0	100.3
=	-6.0	0.0	50.0	100.3
=	-5.7	0.0	50.0	100.3
=	-5.5	0.0	50.0	100.3
=	-5.2	0.0	50.0	100.3
=	-4.8	0.0	50.0	100.3
=	-4.4	0.0	50.0	100.3
=	-4.2	0.0	50.0	100.3
=	-3.8	0.0	50.0	100.3
=	-3.4	0.0	50.0	100.3
=	-3.1	0.0	50.0	100.2
=	-2.8	0.0	50.0	100.2
=	-2.3	0.0	50.0	100.2
=	-1.9	0.0	50.0	100.2
=	-1.5	0.0	50.0	100.1
=	-1.1	0.0	50.0	100.1
=	-0.7	0.0	50.0	100.1
=	-0.3	0.0	50.0	100.0
=	0.0	0.0	50.0	100.0
=	0.1	0.0	50.0	100.0
=	0.5	0.0	50.0	99.9
=	0.7	0.0	50.0	99.9
=	1.2	0.0	50.0	99.9
=	1.5	0.0	50.0	99.8
=	1.9	0.0	50.0	99.8
=	2.2	0.0	50.0	99.8
=	2.6	0.0	50.0	99.7
=	2.8	0.0	50.0	99.6
=	3.1	0.0	50.0	99.6
=	3.5	0.0	50.0	99.5
=	3.8	0.0	50.0	99.4
=	4.2	0.0	50.0	99.4
=	4.5	0.0	50.0	99.3
=	5.0	0.0	50.0	99.2
=	5.4	0.0	50.0	99.1
=	5.8	0.0	50.0	99.0
=	6.2	0.0	50.0	99.0
=	6.6	0.0	50.0	98.8
=	7.0	0.0	50.0	98.7
=	7.4	0.0	50.0	98.6
=	7.7	0.0	50.0	98.5
=	8.0	0.0	50.0	98.5
=	8.3	0.0	50.0	98.4
=	8.6	0.0	50.0	98.2
=	9.0	0.0	50.0	98.1
=	9.3	0.0	50.0	97.9
=	9.6	0.0	50.0	97.7
=	10.0	0.0	50.0	97.5
=	10.3	0.0	50.0	97.3
=	10.6	0.0	50.0	97.2
=	11.0	0.0	50.0	96.9
=	11.5	0.0	50.0	96.7
=	11.8	0.0	50.0	96.3
=	12.3	0.0	50.0	95.9
=	12.6	0.0	50.0	95.6
=	12.9	0.0	50.0	95.2
=	13.3	0.0	50.0	94.8
=	13.7	0.0	50.0	94.1
=	14.0	0.0	50.0	93.6
=	14.3	0.0	50.0	93.0
=	14.7	0.0	50.0	92.2
=	15.1	0.0	50.0	91.0
=	15.3	0.0	50.0	90.3
=	15.7	0.0	50.0	89.3
=	16.1	0.0	50.0	87.5
=	16.5	0.0	50.0	85.4
=	16.9	0.0	50.0	83.2
=	17.4	0.0	50.0	80.5
=	17.7	0.0	50.0	77.4
=	18.0	0.0	50.0	75.3
=	18.3	0.0	50.0	72.4
=	18.5	0.0	50.0	70.5
=	18.9	0.0	50.0	66.6
=	19.2	0.0	50.0	64.0
=	19.4	0.0	50.0	61.3
=	19.8	0.0	50.0	57.9
=	20.1	0.0	50.0	54.4
=	20.4	0.0	50.0	50.4
=	20.8	0.0	50.0	46.5
=	21.0	0.0	50.0	43.9
=	21.4	0.0	50.0	39.6
=	21.8	0.0	50.0	35.1
=	22.2	0.0	50.0	31.5
=	22.6	0.0	50.0	27.3
=	23.1	0.0	50.0	23.7
=	23.4	0.0	50.0	20.8
=	23.8	0.0	50.0	18.2
=	24.2	0.0	50.0	15.8
=	24.7	0.0	50.0	13.7
=	25.0	0.0	50.0	12.5
=	25.2	0.0	50.0	11.5
=	25.5	0.0	50.0	10.5
=	25.8	0.0	50.0	9.8
=	26.1	0.0	50.0	9.1
=	26.5	0.0	50.0	8.3
=	26.8	0.0	50.0	7.7
=	27.1	0.0	50.0	7.2
=	27.4	0.0	50.0	6.7
=	27.9	0.0	50.0	6.2
=	28.1	0.0	50.0	5.9
=	28.5	0.0	50.0	5.5
=	28.8	0.0	50.0	5.2
=	29.1	0.0	50.0	5.0
=	29.5	0.0	50.0	4.7
=	29.9	0.0	50.0	4.4
=	30.3	0.0	50.0	4.2
=	30.8	0.0	50.0	4.0
=	31.1	0.0	50.0	3.8
=	31.6	0.0	50.0	3.6
=	32.0	0.0	50.0	3.5
=	32.3	0.0	50.0	3.4
=	32.6	0.0	50.0	3.3
=	33.0	0.0	50.0	3.1
=	33.4	0.0	50.0	3.0
=	33.6	0.0	50.0	2.9
=	34.0	0.0	50.0	2.8
=	34.4	0.0	50.0	2.8
=	34.7	0.0	50.0	2.7
=	35.1	0.0	50.0	2.6
=	35.5	0.0	50.0	2.6
=	35.7	0.0	50.0	2.5
=	36.0	0.0	50.0	2.5
=	36.2	0.0	50.0	2.5
=	36.6	0.0	50.0	2.4
=	36.9	0.0	50.0	2.3
=	37.2	0.0	50.0	2.3
=	37.5	0.0	50.0	2.2
=	37.8	0.0	50.0	2.2
=	38.2	0.0	50.0	2.1
=	38.5	0.0	50.0	2.1
=	38.8	0.0	50.0	2.1
=	39.2	0.0	50.0	2.0
=	39.5	0.0	50.0	2.0
=	39.7	0.0	50.0	2.0
=	40.0	0.0	50.0	2.0
=	40.3	0.0	50.0	1.9
=	40.6	0.0	50.0	1.9
=	40.9	0.0	50.0	1.9
=	41.2	0.0	50.0	1.9
=	41.6	0.0	50.0	1.8
=	42.0	0.0	50.0	1.8
=	42.3	0.0	50.0	1.8
=	42.6	0.0	50.0	1.8
=	42.9	0.0	50.0	1.7
=	43.3	0.0	50.0	1.7
=	43.6	0.0	50.0	1.7
=	43.9	0.0	50.0	1.7
=	44.4	0.0	50.0	1.6
=	44.8	0.0	50.0	1.6
=	45.1	0.0	50.0	1.6
=	45.4	0.0	50.0	1.5
=	45.8	0.0	50.0	1.5
=	46.2	0.0	50.0	1.5
=	46.6	0.0	50.0	1.5
=	47.0	0.0	50.0	1.5
=	47.3	0.0	50.0	1.5
=	47.6	0.0	50.0	1.4
=	47.9	0.0	50.0	1.4
=	48.2	0.0	50.0	1.4
=	48.5	0.0	50.0	1.4
=	48.7	0.0	50.0	1.4
=	49.1	0.0	50.0	1.4
=	49.5	0.0	50.0	1.3
=	49.8	0.0	50.0	1.3
=	50.2	0.0	50.0	1.3
=	50.5	0.0	50.0	1.3
=	50.9	0.0	50.0	1.3
=	51.2	0.0	50.0	1.3
=	51.5	0.0	50.0	1.3
=	52.0	0.0	50.0	1.3
=	52.3	0.0	50.0	1.2
=	52.7	0.0	50.0	1.2
=	53.1	0.0	50.0	1.2
=	53.6	0.0	50.0	1.2
=	54.0	0.0	50.0	1.2
=	54.3	0.0	50.0	1.2
=	54.6	0.0	50.0	1.2
=	55.1	0.0	50.0	1.1
=	55.5	0.0	50.0	1.1
=	55.7	0.0	50.0	1.1
=	56.1	0.0	50.0	1.1
=	56.5	0.0	50.0	1.1
=	56.9	0.0	50.0	1.1
=	57.1	0.0	50.0	1.1
=	57.4	0.0	50.0	1.1
=	57.6	0.0	50.0	1.1
=	57.9	0.0	50.0	1.1
=	58.2	0.0	50.0	1.1
=	58.4	0.0	50.0	1.1
=	58.7	0.0	50.0	1.1
=	59.1	0.0	50.0	1.0
=	59.5	0.0	50.0	1.0
=	59.9	0.0	50.0	1.0
=	60.3	0.0	50.0	1.0
=	60.8	0.0	50.0	1.0
=	61.2	0.0	50.0	1.0
=	61.5	0.0	50.0	1.0
=	61.8	0.0	50.0	1.0
=	62.2	0.0	50.0	1.0
=	62.7	0.0	50.0	1.0
=	63.1	0.0	50.0	1.0
=	63.5	0.0	50.0	0.9
=	63.9	0.0	50.0	0.9
=	64.3	0.0	50.0	0.9
=	64.7	0.0	50.0	0.9
=	65.1	0.0	50.0	0.9
=	65.5	0.0	50.0	0.9
=	65.8	0.0	50.0	0.9
=	66.2	0.0	50.0	0.9
=	66.6	0.0	50.0	0.9
=	67.0	0.0	50.0	0.9
=	67.2	0.0	50.0	0.9
=	67.6	0.0	50.0	0.9
=	67.9	0.0	50.0	0.9
=	68.4	0.0	50.0	0.9
=	68.8	0.0	50.0	0.9
=	69.2	0.0	50.0	0.9
=	69.6	0.0	50.0	0.9
=	70.1	0.0	50.0	0.9
=	70.5	0.0	50.0	0.9
=	70.9	0.0	50.0	0.8
=	71.3	0.0	50.0	0.8
=	71.7	0.0	50.0	0.8
=	72.2	0.0	50.0	0.8
=	72.6	0.0	50.0	0.8
=	73.0	0.0	50.0	0.8
=	73.4	0.0	50.0	0.8
=	73.8	0.0	50.0	0.8
=	74.2	0.0	50.0	0.8
=	74.6	0.0	50.0	0.8
=	75.0	0.0	50.0	0.8
=	75.3	0.0	50.0	0.8
=	75.7	0.0	50.0	0.8
=	76.1	0.0	50.0	0.8
=	76.3	0.0	50.0	0.8
=	76.7	0.0	50.0	0.8
=	77.1	0.0	50.0	0.8
=	77.6	0.0	50.0	0.8
=	78.0	0.0	50.0	0.8
=	78.4	0.0	50.0	0.8
=	78.7	0.0	50.0	0.8
=	79.0	0.0	50.0	0.8
=	79.4	0.0	50.0	0.8
=	79.8	0.0	50.0	0.8
=	80.1	0.0	50.0	0.8
=	80.4	0.0	50.0	0.8
=	80.8	0.0	50.0	0.8
=	81.2	0.0	50.0	0.8
=	81.6	0.0	50.0	0.7
=	81.9	0.0	50.0	0.7
=	82.3	0.0	50.0	0.7
=	82.7	0.0	50.0	0.7
=	83.1	0.0	50.0	0.7
=	83.5	0.0	50.0	0.7
=	83.9	0.0	50.0	0.7
=	84.3	0.0	50.0	0.7
=	84.8	0.0	50.0	0.7
=	85.1	0.0	50.0	0.7
=	85.6	0.0	50.0	0.7
=	86.0	0.0	50.0	0.7
=	86.4	0.0	50.0	0.7
=	86.8	0.0	50.0	0.7
=	87.1	0.0	50.0	0.7
=	87.3	0.0	50.0	0.7
=	87.6	0.0	50.0	0.7
=	88.0	0.0	50.0	0.7
=	88.3	0.0	50.0	0.7
=	88.6	0.0	50.0	0.7
=	89.0	0.0	50.0	0.7
=	89.4	0.0	50.0	0.7
=	89.7	0.0	50.0	0.7
=	90.0	0.0	50.0	0.7
=	90.4	0.0	50.0	0.7
=	90.7	0.0	50.0	0.7
=	91.1	0.0	50.0	0.7
=	91.5	0.0	50.0	0.7
=	91.9	0.0	50.0	0.7
=	92.3	0.0	50.0	0.7
=	92.6	0.0	50.0	0.7
=	92.9	0.0	50.0	0.7
=	93.3	0.0	50.0	0.7
=	93.6	0.0	50.0	0.7
=	93.9	0.0	50.0	0.7
=	94.2	0.0	50.0	0.7
:EOM # End of Measurement
#
# RFA300 ASCII Measurement Dump ( BDS format )
#
# Measurement number 	3
#
%VNR 1.0
%MOD 	RAT
%TYP 	SCN
%SCN 	PRO
%FLD 	ION
%DAT 	02-01-2012
%TIM 	12:00:00
%FSZ 	040	040
%BMT 	PHO	   8.0
%SSD 	1000
%BUP 	0
%BRD 	1000
%FSH 	1
%ASC 	0
%WEG 	15
%GPO 	0
%CPO 	0
%MEA 	6
%PRD 	100,0
%PTS 	534
%STS 	    -98.9	  0.0	   100.0 # Start Scan values in mm ( X , Y , Z )
%EDS 	    98.9	   0.0	   100.0 # End Scan values in mm ( X , Y , Z )
#
#	  X      Y      Z     Dose
#
=	-98.9	0.0	100.0	0.9
=	-98.4	0.0	100.0	0.9
=	-98.0	0.0	100.0	0.9
=	-97.6	0.0	100.0	0.9
=	-97.2	0.0	100.0	0.9
=	-96.9	0.0	100.0	0.9
=	-96.6	0.0	100.0	0.9
=	-96.2	0.0	100.0	0.9
=	-95.9	0.0	100.0	0.9
=	-95.5	0.0	100.0	0.9
=	-95.2	0.0	100.0	0.9
=	-94.8	0.0	100.0	0.9
=	-94.4	0.0	100.0	0.9
=	-94.2	0.0	100.0	0.9
=	-93.9	0.0	100.0	0.9
=	-93.5	0.0	100.0	0.9
=	-93.0	0.0	100.0	0.9
=	-92.6	0.0	100.0	0.9
=	-92.1	0.0	100.0	0.9
=	-91.7	0.0	100.0	0.9
=	-91.3	0.0	100.0	0.9
=	-91.1	0.0	100.0	0.9
=	-90.7	0.0	100.0	0.9
=	-90.3	0.0	100.0	0.9
=	-89.8	0.0	100.0	0.9
=	-89.6	0.0	100.0	1.0
=	-89.1	0.0	100.0	0.9
=	-88.9	0.0	100.0	1.0
=	-88.5	0.0	100.0	1.0
=	-88.2	0.0	100.0	1.0
=	-87.9	0.0	100.0	1.0
=	-87.7	0.0	100.0	1.0
=	-87.2	0.0	100.0	1.0
=	-87.0	0.0	100.0	1.0
=	-86.8	0.0	100.0	1.0
=	-86.5	0.0	100.0	1.0
=	-86.2	0.0	100.0	1.0
=	-85.8	0.0	100.0	1.0
=	-85.4	0.0	100.0	1.0
=	-84.9	0.0	100.0	1.0
=	-84.5	0.0	100.0	1.0
=	-84.2	0.0	100.0	1.0
=	-83.9	0.0	100.0	1.0
=	-83.5	0.0	100.0	1.0
=	-83.2	0.0	100.0	1.0
=	-82.9	0.0	100.0	1.0
=	-82.4	0.0	100.0	1.1
=	-82.0	0.0	100.0	1.1
=	-81.6	0.0	100.0	1.1
=	-81.2	0.0	100.0	1.1
=	-80.8	0.0	100.0	1.1
=	-80.3	0.0	100.0	1.1
=	-79.9	0.0	100.0	1.1
=	-79.5	0.0	100.0	1.1
=	-79.1	0.0	100.0	1.1
=	-78.7	0.0	100.0	1.1
=	-78.3	0.0	100.0	1.1
=	-78.0	0.0	100.0	1.1
=	-77.7	0.0	100.0	1.1
=	-77.3	0.0	100.0	1.1
=	-76.9	0.0	100.0	1.1
=	-76.5	0.0	100.0	1.1
=	-76.1	0.0	100.0	1.1
=	-75.6	0.0	100.0	1.2
=	-75.2	0.0	100.0	1.2
=	-74.8	0.0	100.0	1.2
=	-74.4	0.0	100.0	1.2
=	-74.0	0.0	100.0	1.2
=	-73.5	0.0	100.0	1.2
=	-73.1	0.0	100.0	1.2
=	-72.7	0.0	100.0	1.2
=	-72.3	0.0	100.0	1.2
=	-72.1	0.0	100.0	1.2
=	-71.7	0.0	100.0	1.2
=	-71.3	0.0	100.0	1.2
=	-70.9	0.0	100.0	1.2
=	-70.6	0.0	100.0	1.2
=	-70.3	0.0	100.0	1.3
=	-69.9	0.0	100.0	1.3
=	-69.5	0.0	100.0	1.3
=	-69.0	0.0	100.0	1.3
=	-68.6	0.0	100.0	1.3
=	-68.2	0.0	100.0	1.3
=	-67.8	0.0	100.0	1.3
=	-67.4	0.0	100.0	1.3
=	-67.0	0.0	100.0	1.3
=	-66.6	0.0	100.0	1.3
=	-66.1	0.0	100.0	1.3
=	-65.8	0.0	100.0	1.4
=	-65.5	0.0	100.0	1.4
=	-65.1	0.0	100.0	1.4
=	-64.7	0.0	100.0	1.4
=	-64.3	0.0	100.0	1.4
=	-64.0	0.0	100.0	1.4
=	-63.7	0.0	100.0	1.4
=	-63.2	0.0	100.0	1.5
=	-62.8	0.0	100.0	1.5
=	-62.4	0.0	100.0	1.5
=	-62.0	0.0	100.0	1.5
=	-61.6	0.0	100.0	1.5
=	-61.2	0.0	100.0	1.5
=	-60.8	0.0	100.0	1.6
=	-60.4	0.0	100.0	1.6
=	-59.9	0.0	100.0	1.6
=	-59.6	0.0	100.0	1.6
=	-59.1	0.0	100.0	1.6
=	-58.8	0.0	100.0	1.6
=	-58.4	0.0	100.0	1.6
=	-58.0	0.0	100.0	1.6
=	-57.6	0.0	100.0	1.7
=	-57.3	0.0	100.0	1.7
=	-56.9	0.0	100.0	1.7
=	-56.6	0.0	100.0	1.7
=	-56.3	0.0	100.0	1.7
=	-55.9	0.0	100.0	1.7
=	-55.4	0.0	100.0	1.8
=	-55.1	0.0	100.0	1.8
=	-54.6	0.0	100.0	1.8
=	-54.2	0.0	100.0	1.8
=	-53.8	0.0	100.0	1.8
=	-53.4	0.0	100.0	1.9
=	-53.0	0.0	100.0	1.9
=	-52.6	0.0	100.0	1.9
=	-52.2	0.0	100.0	1.9
=	-51.7	0.0	100.0	2.0
=	-51.3	0.0	100.0	2.0
=	-51.0	0.0	100.0	2.0
=	-50.7	0.0	100.0	2.0
=	-50.3	0.0	100.0	2.1
=	-49.9	0.0	100.0	2.1
=	-49.5	0.0	100.0	2.1
=	-49.1	0.0	100.0	2.2
=	-48.7	0.0	100.0	2.2
=	-48.3	0.0	100.0	2.2
=	-48.0	0.0	100.0	2.3
=	-47.7	0.0	100.0	2.3
=	-47.3	0.0	100.0	2.3
=	-46.9	0.0	100.0	2.3
=	-46.6	0.0	100.0	2.4
=	-46.3	0.0	100.0	2.4
=	-45.8	0.0	100.0	2.5
=	-45.4	0.0	100.0	2.5
=	-45.0	0.0	100.0	2.5
=	-44.6	0.0	100.0	2.6
=	-44.2	0.0	100.0	2.6
=	-43.8	0.0	100.0	2.7
=	-43.4	0.0	100.0	2.7
=	-43.1	0.0	100.0	2.7
=	-42.7	0.0	100.0	2.8
=	-42.5	0.0	100.0	2.8
=	-42.1	0.0	100.0	2.8
=	-41.7	0.0	100.0	2.9
=	-41.2	0.0	100.0	3.0
=	-40.8	0.0	100.0	3.0
=	-40.4	0.0	100.0	3.1
=	-40.0	0.0	100.0	3.1
=	-39.6	0.0	100.0	3.2
=	-39.2	0.0	100.0	3.2
=	-38.8	0.0	100.0	3.3
=	-38.3	0.0	100.0	3.4
=	-38.1	0.0	100.0	3.5
=	-37.8	0.0	100.0	3.5
=	-37.3	0.0	100.0	3.6
=	-37.0	0.0	100.0	3.7
=	-36.7	0.0	100.0	3.7
=	-36.4	0.0	100.0	3.8
=	-36.1	0.0	100.0	3.9
=	-35.7	0.0	100.0	4.0
=	-35.3	0.0	100.0	4.1
=	-34.9	0.0	100.0	4.2
=	-34.4	0.0	100.0	4.3
=	-34.0	0.0	100.0	4.5
=	-33.6	0.0	100.0	4.7
=	-33.2	0.0	100.0	4.8
=	-32.8	0.0	100.0	5.0
=	-32.5	0.0	100.0	5.1
=	-32.2	0.0	100.0	5.2
=	-31.8	0.0	100.0	5.4
=	-31.4	0.0	100.0	5.7
=	-31.1	0.0	100.0	5.9
=	-30.9	0.0	100.0	6.0
=	-30.6	0.0	100.0	6.3
=	-30.1	0.0	100.0	6.6
=	-29.7	0.0	100.0	7.0
=	-29.5	0.0	100.0	7.3
=	-29.1	0.0	100.0	7.7
=	-28.7	0.0	100.0	8.2
=	-28.3	0.0	100.0	8.8
=	-27.9	0.0	100.0	9.5
=	-27.6	0.0	100.0	10.1
=	-27.2	0.0	100.0	10.9
=	-26.9	0.0	100.0	11.7
=	-26.6	0.0	100.0	12.6
=	-26.3	0.0	100.0	13.4
=	-26.0	0.0	100.0	14.7
=	-25.5	0.0	100.0	16.7
=	-25.1	0.0	100.0	19.1
=	-24.7	0.0	100.0	21.4
=	-24.3	0.0	100.0	24.6
=	-23.9	0.0	100.0	27.7
=	-23.5	0.0	100.0	31.0
=	-23.1	0.0	100.0	35.0
=	-22.7	0.0	100.0	38.8
=	-22.4	0.0	100.0	41.7
=	-22.0	0.0	100.0	45.9
=	-21.7	0.0	100.0	49.8
=	-21.2	0.0	100.0	54.5
=	-20.8	0.0	100.0	59.2
=	-20.5	0.0	100.0	62.5
=	-20.2	0.0	100.0	65.8
=	-19.8	0.0	100.0	70.0
=	-19.6	0.0	100.0	72.5
=	-19.2	0.0	100.0	75.7
=	-18.8	0.0	100.0	79.2
=	-18.4	0.0	100.0	82.2
=	-18.0	0.0	100.0	84.9
=	-17.6	0.0	100.0	86.9
=	-17.3	0.0	100.0	88.6
=	-17.0	0.0	100.0	90.1
=	-16.6	0.0	100.0	91.7
=	-16.4	0.0	100.0	92.5
=	-16.0	0.0	100.0	93.4
=	-15.5	0.0	100.0	94.7
=	-15.2	0.0	100.0	95.5
=	-14.7	0.0	100.0	96.2
=	-14.3	0.0	100.0	96.7
=	-14.0	0.0	100.0	97.0
=	-13.7	0.0	100.0	97.6
=	-13.3	0.0	100.0	98.0
=	-13.0	0.0	100.0	98.2
=	-12.7	0.0	100.0	98.5
=	-12.3	0.0	100.0	98.7
=	-12.0	0.0	100.0	98.9
=	-11.7	0.0	100.0	99.1
=	-11.3	0.0	100.0	99.4
=	-11.0	0.0	100.0	99.5
=	-10.7	0.0	100.0	99.6
=	-10.4	0.0	100.0	99.6
=	-10.1	0.0	100.0	99.7
=	-9.8	0.0	100.0	99.7
=	-9.3	0.0	100.0	99.8
=	-9.0	0.0	100.0	99.9
=	-8.7	0.0	100.0	100.0
=	-8.3	0.0	100.0	100.1
=	-7.9	0.0	100.0	100.1
=	-7.5	0.0	100.0	100.2
=	-7.1	0.0	100.0	100.2
=	-6.6	0.0	100.0	100.3
=	-6.2	0.0	100.0	100.3
=	-5.8	0.0	100.0	100.3
=	-5.5	0.0	100.0	100.3
=	-5.2	0.0	100.0	100.3
=	-4.9	0.0	100.0	100.3
=	-4.7	0.0	100.0	100.3
=	-4.4	0.0	100.0	100.2
=	-4.0	0.0	100.0	100.2
=	-3.7	0.0	100.0	100.2
=	-3.4	0.0	100.0	100.2
=	-3.0	0.0	100.0	100.2
=	-2.6	0.0	100.0	100.2
=	-2.3	0.0	100.0	100.1
=	-2.0	0.0	100.0	100.1
=	-1.6	0.0	100.0	100.1
=	-1.2	0.0	100.0	100.1
=	-0.8	0.0	100.0	100.1
=	-0.3	0.0	100.0	100.0
=	0.0	0.0	100.0	100.0
=	0.3	0.0	100.0	100.0
=	0.7	0.0	100.0	99.9
=	1.1	0.0	100.0	99.9
=	1.4	0.0	100.0	99.8
=	1.9	0.0	100.0	99.8
=	2.3	0.0	100.0	99.7
=	2.7	0.0	100.0	99.7
=	3.1	0.0	100.0	99.6
=	3.5	0.0	100.0	99.5
=	3.9	0.0	100.0	99.4
=	4.3	0.0	100.0	99.4
=	4.6	0.0	100.0	99.3
=	5.0	0.0	100.0	99.3
=	5.4	0.0	100.0	99.2
=	5.7	0.0	100.0	99.2
=	6.0	0.0	100.0	99.1
=	6.2	0.0	100.0	99.0
=	6.5	0.0	100.0	98.9
=	6.7	0.0	100.0	98.9
=	7.1	0.0	100.0	98.8
=	7.4	0.0	100.0	98.7
=	7.8	0.0	100.0	98.6
=	8.1	0.0	100.0	98.5
=	8.4	0.0	100.0	98.4
=	8.8	0.0	100.0	98.3
=	9.2	0.0	100.0	98.2
=	9.6	0.0	100.0	98.1
=	10.0	0.0	100.0	97.8
=	10.4	0.0	100.0	97.7
=	10.7	0.0	100.0	97.5
=	11.1	0.0	100.0	97.2
=	11.4	0.0	100.0	97.0
=	11.8	0.0	100.0	96.8
=	12.2	0.0	100.0	96.5
=	12.4	0.0	100.0	96.3
=	12.7	0.0	100.0	96.0
=	13.0	0.0	100.0	95.8
=	13.4	0.0	100.0	95.4
=	13.8	0.0	100.0	94.8
=	14.2	0.0	100.0	94.4
=	14.6	0.0	100.0	93.9
=	14.9	0.0	100.0	93.3
=	15.3	0.0	100.0	92.6
=	15.7	0.0	100.0	91.8
=	15.9	0.0	100.0	91.2
=	16.3	0.0	100.0	90.0
=	16.7	0.0	100.0	88.6
=	17.1	0.0	100.0	87.3
=	17.5	0.0	100.0	85.2
=	17.9	0.0	100.0	82.9
=	18.3	0.0	100.0	80.4
=	18.8	0.0	100.0	77.1
=	19.1	0.0	100.0	74.4
=	19.4	0.0	100.0	72.3
