:MSR 	5	 # No. of measurement in file
:SYS BDS 0   # Beam Data Scanner System
#
# RFA300 ASCII Measurement Dump ( BDS format )
#
# Measurement number 	1
#
%VNR 1.0
%MOD 	RAT
%TYP 	SCN
%SCN 	PRO
%FLD 	ION
%DAT 	02-03-2012
%TIM 	12:00:00
%FSZ 	400	300
%BMT 	PHO	   8.0
%SSD 	1000
%BUP 	0
%BRD 	1000
%FSH 	1
%ASC 	0
%WEG 	15
%GPO 	0
%CPO 	0
%MEA 	6
%PRD 	20,0
%PTS 	731
%STS 	    -273.8	  0.0	   20.0 # Start Scan values in mm ( X , Y , Z )
%EDS 	    273.8	   0.0	   20.0 # End Scan values in mm ( X , Y , Z )
#
#	  X      Y      Z     Dose
#
=	-273.8	0.0	20.0	6.8
=	-273.2	0.0	20.0	6.8
=	-272.5	0.0	20.0	6.9
=	-271.7	0.0	20.0	6.9
=	-271.0	0.0	20.0	6.9
=	-270.2	0.0	20.0	7.0
=	-269.5	0.0	20.0	7.0
=	-268.7	0.0	20.0	7.0
=	-267.8	0.0	20.0	7.1
=	-266.6	0.0	20.0	7.1
=	-265.8	0.0	20.0	7.2
=	-265.0	0.0	20.0	7.2
=	-264.2	0.0	20.0	7.3
=	-263.5	0.0	20.0	7.3
=	-262.8	0.0	20.0	7.4
=	-262.1	0.0	20.0	7.4
=	-261.6	0.0	20.0	7.4
=	-261.1	0.0	20.0	7.5
=	-260.6	0.0	20.0	7.5
=	-260.1	0.0	20.0	7.5
=	-259.6	0.0	20.0	7.6
=	-259.1	0.0	20.0	7.6
=	-258.5	0.0	20.0	7.6
=	-258.1	0.0	20.0	7.6
=	-257.5	0.0	20.0	7.7
=	-257.0	0.0	20.0	7.7
=	-256.5	0.0	20.0	7.7
=	-256.0	0.0	20.0	7.8
=	-255.5	0.0	20.0	7.8
=	-255.0	0.0	20.0	7.9
=	-254.5	0.0	20.0	7.9
=	-254.0	0.0	20.0	7.9
=	-253.5	0.0	20.0	7.9
=	-253.0	0.0	20.0	8.0
=	-252.5	0.0	20.0	8.0
=	-252.0	0.0	20.0	8.1
=	-251.5	0.0	20.0	8.1
=	-251.0	0.0	20.0	8.2
=	-250.5	0.0	20.0	8.2
=	-250.0	0.0	20.0	8.2
=	-249.5	0.0	20.0	8.3
=	-249.0	0.0	20.0	8.4
=	-248.5	0.0	20.0	8.4
=	-248.0	0.0	20.0	8.4
=	-247.3	0.0	20.0	8.5
=	-246.6	0.0	20.0	8.5
=	-245.8	0.0	20.0	8.6
=	-245.1	0.0	20.0	8.7
=	-244.4	0.0	20.0	8.7
=	-243.6	0.0	20.0	8.8
=	-242.8	0.0	20.0	8.9
=	-242.1	0.0	20.0	8.9
=	-241.3	0.0	20.0	9.0
=	-240.6	0.0	20.0	9.1
=	-239.8	0.0	20.0	9.2
=	-239.1	0.0	20.0	9.2
=	-238.4	0.0	20.0	9.3
=	-237.6	0.0	20.0	9.4
=	-236.8	0.0	20.0	9.4
=	-236.0	0.0	20.0	9.5
=	-234.9	0.0	20.0	9.6
=	-234.0	0.0	20.0	9.7
=	-233.3	0.0	20.0	9.8
=	-232.5	0.0	20.0	9.9
=	-231.8	0.0	20.0	10.0
=	-231.0	0.0	20.0	10.1
=	-230.3	0.0	20.0	10.2
=	-229.5	0.0	20.0	10.3
=	-228.8	0.0	20.0	10.4
=	-228.0	0.0	20.0	10.5
=	-227.3	0.0	20.0	10.6
=	-226.5	0.0	20.0	10.7
=	-225.8	0.0	20.0	10.8
=	-225.0	0.0	20.0	10.9
=	-224.3	0.0	20.0	11.0
=	-223.5	0.0	20.0	11.2
=	-222.7	0.0	20.0	11.3
=	-222.0	0.0	20.0	11.4
=	-221.2	0.0	20.0	11.5
=	-220.4	0.0	20.0	11.6
=	-219.7	0.0	20.0	11.7
=	-218.6	0.0	20.0	12.0
=	-217.3	0.0	20.0	12.3
=	-216.4	0.0	20.0	12.5
=	-215.1	0.0	20.0	12.9
=	-214.2	0.0	20.0	13.3
=	-213.2	0.0	20.0	13.8
=	-212.4	0.0	20.0	14.3
=	-211.1	0.0	20.0	15.7
=	-209.6	0.0	20.0	18.3
=	-208.2	0.0	20.0	22.5
=	-207.2	0.0	20.0	27.0
=	-206.4	0.0	20.0	32.1
=	-205.1	0.0	20.0	41.8
=	-203.6	0.0	20.0	55.1
=	-202.0	0.0	20.0	68.6
=	-200.5	0.0	20.0	80.0
=	-199.0	0.0	20.0	87.9
=	-197.5	0.0	20.0	92.4
=	-196.0	0.0	20.0	94.8
=	-194.5	0.0	20.0	96.0
=	-193.0	0.0	20.0	96.8
=	-191.5	0.0	20.0	97.3
=	-190.0	0.0	20.0	97.7
=	-188.5	0.0	20.0	98.0
=	-186.9	0.0	20.0	98.3
=	-185.4	0.0	20.0	98.5
=	-183.9	0.0	20.0	98.7
=	-182.4	0.0	20.0	98.8
=	-180.9	0.0	20.0	99.0
=	-180.0	0.0	20.0	99.1
=	-179.2	0.0	20.0	99.1
=	-178.4	0.0	20.0	99.2
=	-177.7	0.0	20.0	99.3
=	-177.0	0.0	20.0	99.3
=	-176.2	0.0	20.0	99.4
=	-175.4	0.0	20.0	99.4
=	-174.7	0.0	20.0	99.4
=	-173.9	0.0	20.0	99.5
=	-173.2	0.0	20.0	99.5
=	-172.4	0.0	20.0	99.6
=	-171.6	0.0	20.0	99.6
=	-170.9	0.0	20.0	99.6
=	-170.1	0.0	20.0	99.7
=	-169.4	0.0	20.0	99.7
=	-168.6	0.0	20.0	99.7
=	-167.9	0.0	20.0	99.7
=	-167.1	0.0	20.0	99.8
=	-166.4	0.0	20.0	99.8
=	-165.6	0.0	20.0	99.9
=	-164.8	0.0	20.0	99.9
=	-164.1	0.0	20.0	100.0
=	-163.3	0.0	20.0	100.0
=	-162.6	0.0	20.0	100.0
=	-161.9	0.0	20.0	100.0
=	-161.0	0.0	20.0	100.1
=	-160.5	0.0	20.0	100.1
=	-160.0	0.0	20.0	100.1
=	-159.5	0.0	20.0	100.1
=	-159.0	0.0	20.0	100.1
=	-158.3	0.0	20.0	100.2
=	-157.6	0.0	20.0	100.2
=	-156.8	0.0	20.0	100.2
=	-156.1	0.0	20.0	100.2
=	-155.6	0.0	20.0	100.2
=	-155.0	0.0	20.0	100.3
=	-154.5	0.0	20.0	100.3
=	-153.8	0.0	20.0	100.3
=	-153.1	0.0	20.0	100.3
=	-152.6	0.0	20.0	100.3
=	-152.1	0.0	20.0	100.3
=	-151.6	0.0	20.0	100.3
=	-151.2	0.0	20.0	100.3
=	-150.6	0.0	20.0	100.4
=	-150.1	0.0	20.0	100.4
=	-149.6	0.0	20.0	100.4
=	-149.1	0.0	20.0	100.4
=	-148.6	0.0	20.0	100.4
=	-148.1	0.0	20.0	100.5
=	-147.6	0.0	20.0	100.5
=	-146.9	0.0	20.0	100.5
=	-146.4	0.0	20.0	100.5
=	-145.9	0.0	20.0	100.5
=	-145.2	0.0	20.0	100.5
=	-144.5	0.0	20.0	100.5
=	-143.7	0.0	20.0	100.5
=	-143.0	0.0	20.0	100.5
=	-142.2	0.0	20.0	100.6
=	-141.5	0.0	20.0	100.6
=	-140.7	0.0	20.0	100.7
=	-140.0	0.0	20.0	100.7
=	-139.2	0.0	20.0	100.7
=	-138.4	0.0	20.0	100.7
=	-137.6	0.0	20.0	100.7
=	-136.9	0.0	20.0	100.7
=	-136.1	0.0	20.0	100.8
=	-135.4	0.0	20.0	100.7
=	-134.6	0.0	20.0	100.8
=	-133.9	0.0	20.0	100.8
=	-133.1	0.0	20.0	100.8
=	-132.4	0.0	20.0	100.8
=	-131.6	0.0	20.0	100.8
=	-130.9	0.0	20.0	100.8
=	-130.1	0.0	20.0	100.8
=	-129.4	0.0	20.0	100.8
=	-128.6	0.0	20.0	100.8
=	-127.8	0.0	20.0	100.8
=	-127.0	0.0	20.0	100.8
=	-126.3	0.0	20.0	100.8
=	-125.5	0.0	20.0	100.8
=	-124.8	0.0	20.0	100.9
=	-124.0	0.0	20.0	100.9
=	-123.2	0.0	20.0	100.9
=	-122.5	0.0	20.0	100.9
=	-121.7	0.0	20.0	100.9
=	-120.9	0.0	20.0	100.9
=	-120.4	0.0	20.0	100.9
=	-119.7	0.0	20.0	100.9
=	-118.9	0.0	20.0	100.9
=	-118.2	0.0	20.0	100.9
=	-117.4	0.0	20.0	100.9
=	-116.6	0.0	20.0	100.9
=	-115.9	0.0	20.0	100.9
=	-115.1	0.0	20.0	100.9
=	-114.4	0.0	20.0	100.9
=	-113.6	0.0	20.0	100.9
=	-112.9	0.0	20.0	100.9
=	-112.1	0.0	20.0	100.9
=	-111.3	0.0	20.0	100.9
=	-110.6	0.0	20.0	100.9
=	-109.8	0.0	20.0	101.0
=	-109.0	0.0	20.0	101.0
=	-108.3	0.0	20.0	100.9
=	-107.5	0.0	20.0	100.9
=	-106.8	0.0	20.0	100.9
=	-105.6	0.0	20.0	101.0
=	-104.1	0.0	20.0	101.0
=	-102.9	0.0	20.0	101.0
=	-101.5	0.0	20.0	101.0
=	-100.0	0.0	20.0	101.0
=	-98.5	0.0	20.0	101.0
=	-97.0	0.0	20.0	101.0
=	-95.5	0.0	20.0	101.0
=	-94.3	0.0	20.0	101.0
=	-93.0	0.0	20.0	101.0
=	-91.8	0.0	20.0	101.0
=	-91.0	0.0	20.0	101.0
=	-90.2	0.0	20.0	100.9
=	-89.5	0.0	20.0	100.9
=	-88.7	0.0	20.0	100.9
=	-87.4	0.0	20.0	100.9
=	-86.0	0.0	20.0	100.9
=	-84.9	0.0	20.0	100.9
=	-83.7	0.0	20.0	100.9
=	-83.0	0.0	20.0	100.9
=	-82.2	0.0	20.0	100.9
=	-81.5	0.0	20.0	100.9
=	-80.8	0.0	20.0	101.0
=	-80.2	0.0	20.0	101.0
=	-79.6	0.0	20.0	100.9
=	-79.1	0.0	20.0	100.9
=	-78.6	0.0	20.0	100.9
=	-77.9	0.0	20.0	100.9
=	-77.4	0.0	20.0	100.9
=	-76.9	0.0	20.0	100.9
=	-76.4	0.0	20.0	100.9
=	-75.9	0.0	20.0	100.9
=	-75.3	0.0	20.0	100.9
=	-74.8	0.0	20.0	100.9
=	-74.2	0.0	20.0	100.9
=	-73.5	0.0	20.0	100.9
=	-73.0	0.0	20.0	100.9
=	-72.4	0.0	20.0	100.9
=	-71.7	0.0	20.0	100.9
=	-71.2	0.0	20.0	100.9
=	-70.6	0.0	20.0	100.9
=	-70.1	0.0	20.0	100.9
=	-69.6	0.0	20.0	100.9
=	-69.1	0.0	20.0	100.9
=	-68.4	0.0	20.0	100.9
=	-67.9	0.0	20.0	100.9
=	-67.4	0.0	20.0	100.9
=	-66.8	0.0	20.0	100.9
=	-66.3	0.0	20.0	100.9
=	-65.6	0.0	20.0	100.9
=	-64.9	0.0	20.0	100.8
=	-64.4	0.0	20.0	100.8
=	-63.9	0.0	20.0	100.8
=	-63.3	0.0	20.0	100.8
=	-62.7	0.0	20.0	100.8
=	-62.2	0.0	20.0	100.8
=	-61.7	0.0	20.0	100.8
=	-61.1	0.0	20.0	100.8
=	-60.3	0.0	20.0	100.8
=	-59.5	0.0	20.0	100.8
=	-58.8	0.0	20.0	100.8
=	-58.0	0.0	20.0	100.8
=	-57.3	0.0	20.0	100.8
=	-56.5	0.0	20.0	100.8
=	-55.8	0.0	20.0	100.8
=	-55.0	0.0	20.0	100.8
=	-54.3	0.0	20.0	100.8
=	-53.5	0.0	20.0	100.7
=	-52.8	0.0	20.0	100.7
=	-52.2	0.0	20.0	100.7
=	-51.5	0.0	20.0	100.7
=	-50.7	0.0	20.0	100.7
=	-50.0	0.0	20.0	100.7
=	-49.2	0.0	20.0	100.7
=	-48.5	0.0	20.0	100.7
=	-47.9	0.0	20.0	100.7
=	-47.2	0.0	20.0	100.7
=	-46.4	0.0	20.0	100.7
=	-45.7	0.0	20.0	100.7
=	-44.9	0.0	20.0	100.7
=	-44.1	0.0	20.0	100.6
=	-43.4	0.0	20.0	100.6
=	-42.8	0.0	20.0	100.6
=	-42.2	0.0	20.0	100.6
=	-41.4	0.0	20.0	100.6
=	-40.9	0.0	20.0	100.6
=	-40.1	0.0	20.0	100.5
=	-39.4	0.0	20.0	100.5
=	-38.6	0.0	20.0	100.5
=	-37.9	0.0	20.0	100.5
=	-37.1	0.0	20.0	100.5
=	-36.3	0.0	20.0	100.5
=	-35.6	0.0	20.0	100.5
=	-34.8	0.0	20.0	100.5
=	-34.1	0.0	20.0	100.5
=	-33.3	0.0	20.0	100.4
=	-32.6	0.0	20.0	100.4
=	-32.1	0.0	20.0	100.4
=	-31.5	0.0	20.0	100.4
=	-30.9	0.0	20.0	100.4
=	-30.4	0.0	20.0	100.4
=	-29.8	0.0	20.0	100.4
=	-29.2	0.0	20.0	100.4
=	-28.7	0.0	20.0	100.4
=	-28.0	0.0	20.0	100.3
=	-27.3	0.0	20.0	100.3
=	-26.5	0.0	20.0	100.3
=	-25.8	0.0	20.0	100.3
=	-25.1	0.0	20.0	100.3
=	-24.5	0.0	20.0	100.3
=	-24.0	0.0	20.0	100.3
=	-23.5	0.0	20.0	100.3
=	-23.0	0.0	20.0	100.3
=	-22.5	0.0	20.0	100.2
=	-22.0	0.0	20.0	100.2
=	-21.4	0.0	20.0	100.2
=	-20.7	0.0	20.0	100.2
=	-20.1	0.0	20.0	100.2
=	-19.6	0.0	20.0	100.2
=	-19.1	0.0	20.0	100.2
=	-18.6	0.0	20.0	100.2
=	-18.1	0.0	20.0	100.1
=	-17.7	0.0	20.0	100.1
=	-17.1	0.0	20.0	100.1
=	-16.6	0.0	20.0	100.1
=	-15.9	0.0	20.0	100.1
=	-15.2	0.0	20.0	100.1
=	-14.4	0.0	20.0	100.1
=	-13.9	0.0	20.0	100.1
=	-13.2	0.0	20.0	100.1
=	-12.4	0.0	20.0	100.1
=	-11.9	0.0	20.0	100.1
=	-11.4	0.0	20.0	100.1
=	-10.7	0.0	20.0	100.1
=	-10.2	0.0	20.0	100.1
=	-9.7	0.0	20.0	100.1
=	-9.0	0.0	20.0	100.1
=	-8.5	0.0	20.0	100.0
=	-7.9	0.0	20.0	100.0
=	-7.2	0.0	20.0	100.0
=	-6.7	0.0	20.0	100.0
=	-6.2	0.0	20.0	100.0
=	-5.3	0.0	20.0	100.0
=	-4.7	0.0	20.0	99.9
=	-4.2	0.0	20.0	99.9
=	-3.7	0.0	20.0	100.0
=	-3.1	0.0	20.0	100.0
=	-2.3	0.0	20.0	100.0
=	-1.6	0.0	20.0	100.0
=	-0.8	0.0	20.0	100.0
=	0.0	0.0	20.0	100.0
=	0.8	0.0	20.0	100.0
=	1.6	0.0	20.0	100.0
=	2.3	0.0	20.0	100.0
=	3.1	0.0	20.0	100.0
=	3.7	0.0	20.0	100.0
=	4.2	0.0	20.0	99.9
=	4.7	0.0	20.0	99.9
=	5.3	0.0	20.0	100.0
=	6.2	0.0	20.0	100.0
=	6.7	0.0	20.0	100.0
=	7.2	0.0	20.0	100.0
=	7.9	0.0	20.0	100.0
=	8.5	0.0	20.0	100.0
=	9.0	0.0	20.0	100.1
=	9.7	0.0	20.0	100.1
=	10.2	0.0	20.0	100.1
=	10.7	0.0	20.0	100.1
=	11.4	0.0	20.0	100.1
=	11.9	0.0	20.0	100.1
=	12.4	0.0	20.0	100.1
=	13.2	0.0	20.0	100.1
=	13.9	0.0	20.0	100.1
=	14.4	0.0	20.0	100.1
=	15.2	0.0	20.0	100.1
=	15.9	0.0	20.0	100.1
=	16.6	0.0	20.0	100.1
=	17.1	0.0	20.0	100.1
=	17.7	0.0	20.0	100.1
=	18.1	0.0	20.0	100.1
=	18.6	0.0	20.0	100.2
=	19.1	0.0	20.0	100.2
=	19.6	0.0	20.0	100.2
=	20.1	0.0	20.0	100.2
=	20.7	0.0	20.0	100.2
=	21.4	0.0	20.0	100.2
=	22.0	0.0	20.0	100.2
=	22.5	0.0	20.0	100.2
=	23.0	0.0	20.0	100.3
=	23.5	0.0	20.0	100.3
=	24.0	0.0	20.0	100.3
=	24.5	0.0	20.0	100.3
=	25.1	0.0	20.0	100.3
=	25.8	0.0	20.0	100.3
=	26.5	0.0	20.0	100.3
=	27.3	0.0	20.0	100.3
=	28.0	0.0	20.0	100.3
=	28.7	0.0	20.0	100.4
=	29.2	0.0	20.0	100.4
=	29.8	0.0	20.0	100.4
=	30.4	0.0	20.0	100.4
=	30.9	0.0	20.0	100.4
=	31.5	0.0	20.0	100.4
=	32.1	0.0	20.0	100.4
=	32.6	0.0	20.0	100.4
=	33.3	0.0	20.0	100.4
=	34.1	0.0	20.0	100.5
=	34.8	0.0	20.0	100.5
=	35.6	0.0	20.0	100.5
=	36.3	0.0	20.0	100.5
=	37.1	0.0	20.0	100.5
=	37.9	0.0	20.0	100.5
=	38.6	0.0	20.0	100.5
=	39.4	0.0	20.0	100.5
=	40.1	0.0	20.0	100.5
=	40.9	0.0	20.0	100.6
=	41.4	0.0	20.0	100.6
=	42.2	0.0	20.0	100.6
=	42.8	0.0	20.0	100.6
=	43.4	0.0	20.0	100.6
=	44.1	0.0	20.0	100.6
=	44.9	0.0	20.0	100.7
=	45.7	0.0	20.0	100.7
=	46.4	0.0	20.0	100.7
=	47.2	0.0	20.0	100.7
=	47.9	0.0	20.0	100.7
=	48.5	0.0	20.0	100.7
=	49.2	0.0	20.0	100.7
=	50.0	0.0	20.0	100.7
=	50.7	0.0	20.0	100.7
=	51.5	0.0	20.0	100.7
=	52.2	0.0	20.0	100.7
=	52.8	0.0	20.0	100.7
=	53.5	0.0	20.0	100.7
=	54.3	0.0	20.0	100.8
=	55.0	0.0	20.0	100.8
=	55.8	0.0	20.0	100.8
=	56.5	0.0	20.0	100.8
=	57.3	0.0	20.0	100.8
=	58.0	0.0	20.0	100.8
=	58.8	0.0	20.0	100.8
=	59.5	0.0	20.0	100.8
=	60.3	0.0	20.0	100.8
=	61.1	0.0	20.0	100.8
=	61.7	0.0	20.0	100.8
=	62.2	0.0	20.0	100.8
=	62.7	0.0	20.0	100.8
=	63.3	0.0	20.0	100.8
=	63.9	0.0	20.0	100.8
=	64.4	0.0	20.0	100.8
=	64.9	0.0	20.0	100.8
=	65.6	0.0	20.0	100.9
=	66.3	0.0	20.0	100.9
=	66.8	0.0	20.0	100.9
=	67.4	0.0	20.0	100.9
=	67.9	0.0	20.0	100.9
=	68.4	0.0	20.0	100.9
=	69.1	0.0	20.0	100.9
=	69.6	0.0	20.0	100.9
=	70.1	0.0	20.0	100.9
=	70.6	0.0	20.0	100.9
=	71.2	0.0	20.0	100.9
=	71.7	0.0	20.0	100.9
=	72.4	0.0	20.0	100.9
=	73.0	0.0	20.0	100.9
=	73.5	0.0	20.0	100.9
=	74.2	0.0	20.0	100.9
=	74.8	0.0	20.0	100.9
=	75.3	0.0	20.0	100.9
=	75.9	0.0	20.0	100.9
=	76.4	0.0	20.0	100.9
=	76.9	0.0	20.0	100.9
=	77.4	0.0	20.0	100.9
=	77.9	0.0	20.0	100.9
=	78.6	0.0	20.0	100.9
=	79.1	0.0	20.0	100.9
=	79.6	0.0	20.0	100.9
=	80.2	0.0	20.0	101.0
=	80.8	0.0	20.0	101.0
=	81.5	0.0	20.0	100.9
=	82.2	0.0	20.0	100.9
=	83.0	0.0	20.0	100.9
=	83.7	0.0	20.0	100.9
=	84.9	0.0	20.0	100.9
=	86.0	0.0	20.0	100.9
=	87.4	0.0	20.0	100.9
=	88.7	0.0	20.0	100.9
=	89.5	0.0	20.0	100.9
=	90.2	0.0	20.0	100.9
=	91.0	0.0	20.0	101.0
=	91.8	0.0	20.0	101.0
=	93.0	0.0	20.0	101.0
=	94.3	0.0	20.0	101.0
=	95.5	0.0	20.0	101.0
=	97.0	0.0	20.0	101.0
=	98.5	0.0	20.0	101.0
=	100.0	0.0	20.0	101.0
=	101.5	0.0	20.0	101.0
=	102.9	0.0	20.0	101.0
=	104.1	0.0	20.0	101.0
=	105.6	0.0	20.0	101.0
=	106.8	0.0	20.0	100.9
=	107.5	0.0	20.0	100.9
=	108.3	0.0	20.0	100.9
=	109.0	0.0	20.0	101.0
=	109.8	0.0	20.0	101.0
=	110.6	0.0	20.0	100.9
=	111.3	0.0	20.0	100.9
=	112.1	0.0	20.0	100.9
=	112.9	0.0	20.0	100.9
=	113.6	0.0	20.0	100.9
=	114.4	0.0	20.0	100.9
=	115.1	0.0	20.0	100.9
=	115.9	0.0	20.0	100.9
=	116.6	0.0	20.0	100.9
=	117.4	0.0	20.0	100.9
=	118.2	0.0	20.0	100.9
=	118.9	0.0	20.0	100.9
=	119.7	0.0	20.0	100.9
=	120.4	0.0	20.0	100.9
=	120.9	0.0	20.0	100.9
=	121.7	0.0	20.0	100.9
=	122.5	0.0	20.0	100.9
=	123.2	0.0	20.0	100.9
=	124.0	0.0	20.0	100.9
=	124.8	0.0	20.0	100.9
=	125.5	0.0	20.0	100.8
=	126.3	0.0	20.0	100.8
=	127.0	0.0	20.0	100.8
=	127.8	0.0	20.0	100.8
=	128.6	0.0	20.0	100.8
=	129.4	0.0	20.0	100.8
=	130.1	0.0	20.0	100.8
=	130.9	0.0	20.0	100.8
=	131.6	0.0	20.0	100.8
=	132.4	0.0	20.0	100.8
=	133.1	0.0	20.0	100.8
=	133.9	0.0	20.0	100.8
=	134.6	0.0	20.0	100.8
=	135.4	0.0	20.0	100.7
=	136.1	0.0	20.0	100.8
=	136.9	0.0	20.0	100.7
=	137.6	0.0	20.0	100.7
=	138.4	0.0	20.0	100.7
=	139.2	0.0	20.0	100.7
=	140.0	0.0	20.0	100.7
=	140.7	0.0	20.0	100.7
=	141.5	0.0	20.0	100.6
=	142.2	0.0	20.0	100.6
=	143.0	0.0	20.0	100.5
=	143.7	0.0	20.0	100.5
=	144.5	0.0	20.0	100.5
=	145.2	0.0	20.0	100.5
=	145.9	0.0	20.0	100.5
=	146.4	0.0	20.0	100.5
=	146.9	0.0	20.0	100.5
=	147.6	0.0	20.0	100.5
=	148.1	0.0	20.0	100.5
=	148.6	0.0	20.0	100.4
=	149.1	0.0	20.0	100.4
=	149.6	0.0	20.0	100.4
=	150.1	0.0	20.0	100.4
=	150.6	0.0	20.0	100.4
=	151.2	0.0	20.0	100.3
=	151.6	0.0	20.0	100.3
=	152.1	0.0	20.0	100.3
=	152.6	0.0	20.0	100.3
=	153.1	0.0	20.0	100.3
=	153.8	0.0	20.0	100.3
=	154.5	0.0	20.0	100.3
=	155.0	0.0	20.0	100.3
=	155.6	0.0	20.0	100.2
=	156.1	0.0	20.0	100.2
=	156.8	0.0	20.0	100.2
=	157.6	0.0	20.0	100.2
=	158.3	0.0	20.0	100.2
=	159.0	0.0	20.0	100.1
=	159.5	0.0	20.0	100.1
=	160.0	0.0	20.0	100.1
=	160.5	0.0	20.0	100.1
=	161.0	0.0	20.0	100.1
=	161.9	0.0	20.0	100.0
=	162.6	0.0	20.0	100.0
=	163.3	0.0	20.0	100.0
=	164.1	0.0	20.0	100.0
=	164.8	0.0	20.0	99.9
=	165.6	0.0	20.0	99.9
=	166.4	0.0	20.0	99.8
=	167.1	0.0	20.0	99.8
=	167.9	0.0	20.0	99.7
=	168.6	0.0	20.0	99.7
=	169.4	0.0	20.0	99.7
=	170.1	0.0	20.0	99.7
=	170.9	0.0	20.0	99.6
=	171.6	0.0	20.0	99.6
=	172.4	0.0	20.0	99.6
=	173.2	0.0	20.0	99.5
=	173.9	0.0	20.0	99.5
=	174.7	0.0	20.0	99.4
=	175.4	0.0	20.0	99.4
=	176.2	0.0	20.0	99.4
=	177.0	0.0	20.0	99.3
=	177.7	0.0	20.0	99.3
=	178.4	0.0	20.0	99.2
=	179.2	0.0	20.0	99.1
=	180.0	0.0	20.0	99.1
=	180.9	0.0	20.0	99.0
=	182.4	0.0	20.0	98.8
=	183.9	0.0	20.0	98.7
=	185.4	0.0	20.0	98.5
=	186.9	0.0	20.0	98.3
=	188.5	0.0	20.0	98.0
=	190.0	0.0	20.0	97.7
=	191.5	0.0	20.0	97.3
=	193.0	0.0	20.0	96.8
=	194.5	0.0	20.0	96.0
=	196.0	0.0	20.0	94.8
=	197.5	0.0	20.0	92.4
=	199.0	0.0	20.0	87.9
=	200.5	0.0	20.0	80.0
=	202.0	0.0	20.0	68.6
=	203.6	0.0	20.0	55.1
=	205.1	0.0	20.0	41.8
=	206.4	0.0	20.0	32.1
=	207.2	0.0	20.0	27.0
=	208.2	0.0	20.0	22.5
=	209.6	0.0	20.0	18.3
=	211.1	0.0	20.0	15.7
=	212.4	0.0	20.0	14.3
=	213.2	0.0	20.0	13.8
=	214.2	0.0	20.0	13.3
=	215.1	0.0	20.0	12.9
=	216.4	0.0	20.0	12.5
=	217.3	0.0	20.0	12.3
=	218.6	0.0	20.0	12.0
=	219.7	0.0	20.0	11.7
=	220.4	0.0	20.0	11.6
=	221.2	0.0	20.0	11.5
=	222.0	0.0	20.0	11.4
=	222.7	0.0	20.0	11.3
=	223.5	0.0	20.0	11.2
=	224.3	0.0	20.0	11.0
=	225.0	0.0	20.0	10.9
=	225.8	0.0	20.0	10.8
=	226.5	0.0	20.0	10.7
=	227.3	0.0	20.0	10.6
=	228.0	0.0	20.0	10.5
=	228.8	0.0	20.0	10.4
=	229.5	0.0	20.0	10.3
=	230.3	0.0	20.0	10.2
=	231.0	0.0	20.0	10.1
=	231.8	0.0	20.0	10.0
=	232.5	0.0	20.0	9.9
=	233.3	0.0	20.0	9.8
=	234.0	0.0	20.0	9.7
=	234.9	0.0	20.0	9.6
=	236.0	0.0	20.0	9.5
=	236.8	0.0	20.0	9.4
=	237.6	0.0	20.0	9.4
=	238.4	0.0	20.0	9.3
=	239.1	0.0	20.0	9.2
=	239.8	0.0	20.0	9.2
=	240.6	0.0	20.0	9.1
=	241.3	0.0	20.0	9.0
=	242.1	0.0	20.0	8.9
=	242.8	0.0	20.0	8.9
=	243.6	0.0	20.0	8.8
=	244.4	0.0	20.0	8.7
=	245.1	0.0	20.0	8.7
=	245.8	0.0	20.0	8.6
=	246.6	0.0	20.0	8.5
=	247.3	0.0	20.0	8.5
=	248.0	0.0	20.0	8.4
=	248.5	0.0	20.0	8.4
=	249.0	0.0	20.0	8.4
=	249.5	0.0	20.0	8.3
=	250.0	0.0	20.0	8.2
=	250.5	0.0	20.0	8.2
=	251.0	0.0	20.0	8.2
=	251.5	0.0	20.0	8.1
=	252.0	0.0	20.0	8.1
=	252.5	0.0	20.0	8.0
=	253.0	0.0	20.0	8.0
=	253.5	0.0	20.0	7.9
=	254.0	0.0	20.0	7.9
=	254.5	0.0	20.0	7.9
=	255.0	0.0	20.0	7.9
=	255.5	0.0	20.0	7.8
=	256.0	0.0	20.0	7.8
=	256.5	0.0	20.0	7.7
=	257.0	0.0	20.0	7.7
=	257.5	0.0	20.0	7.7
=	258.1	0.0	20.0	7.6
=	258.5	0.0	20.0	7.6
=	259.1	0.0	20.0	7.6
=	259.6	0.0	20.0	7.6
=	260.1	0.0	20.0	7.5
=	260.6	0.0	20.0	7.5
=	261.1	0.0	20.0	7.5
=	261.6	0.0	20.0	7.4
=	262.1	0.0	20.0	7.4
=	262.8	0.0	20.0	7.4
=	263.5	0.0	20.0	7.3
=	264.2	0.0	20.0	7.3
=	265.0	0.0	20.0	7.2
=	265.8	0.0	20.0	7.2
=	266.6	0.0	20.0	7.1
=	267.8	0.0	20.0	7.1
=	268.7	0.0	20.0	7.0
=	269.5	0.0	20.0	7.0
=	270.2	0.0	20.0	7.0
=	271.0	0.0	20.0	6.9
=	271.7	0.0	20.0	6.9
=	272.5	0.0	20.0	6.9
=	273.2	0.0	20.0	6.8
=	273.8	0.0	20.0	6.8
:EOM # End of Measurement
#
# RFA300 ASCII Measurement Dump ( BDS format )
#
# Measurement number 	2
#
%VNR 1.0
%MOD 	RAT
%TYP 	SCN
%SCN 	PRO
%FLD 	ION
%DAT 	02-03-2012
%TIM 	12:00:00
%FSZ 	400	300
%BMT 	PHO	   8.0
%SSD 	1000
%BUP 	0
%BRD 	1000
%FSH 	1
%ASC 	0
%WEG 	15
%GPO 	0
%CPO 	0
%MEA 	6
%PRD 	50,0
%PTS 	782
%STS 	    -283.2	  0.0	   50.0 # Start Scan values in mm ( X , Y , Z )
%EDS 	    283.0	   0.0	   50.0 # End Scan values in mm ( X , Y , Z )
#
#	  X      Y      Z     Dose
#
=	-283.2	0.0	50.0	6.8
=	-282.5	0.0	50.0	6.8
=	-281.8	0.0	50.0	6.8
=	-281.2	0.0	50.0	6.9
=	-280.5	0.0	50.0	6.9
=	-279.9	0.0	50.0	6.9
=	-279.2	0.0	50.0	7.0
=	-278.5	0.0	50.0	7.0
=	-277.7	0.0	50.0	7.0
=	-276.9	0.0	50.0	7.1
=	-276.2	0.0	50.0	7.1
=	-275.4	0.0	50.0	7.2
=	-274.7	0.0	50.0	7.2
=	-273.9	0.0	50.0	7.3
=	-273.3	0.0	50.0	7.3
=	-272.8	0.0	50.0	7.4
=	-272.3	0.0	50.0	7.4
=	-271.7	0.0	50.0	7.4
=	-271.2	0.0	50.0	7.5
=	-270.7	0.0	50.0	7.5
=	-270.3	0.0	50.0	7.5
=	-269.7	0.0	50.0	7.5
=	-269.2	0.0	50.0	7.6
=	-268.7	0.0	50.0	7.6
=	-268.2	0.0	50.0	7.6
=	-267.4	0.0	50.0	7.7
=	-266.6	0.0	50.0	7.8
=	-265.9	0.0	50.0	7.8
=	-265.1	0.0	50.0	7.9
=	-264.4	0.0	50.0	7.9
=	-263.6	0.0	50.0	8.0
=	-262.9	0.0	50.0	8.0
=	-262.1	0.0	50.0	8.1
=	-261.3	0.0	50.0	8.1
=	-259.8	0.0	50.0	8.3
=	-258.3	0.0	50.0	8.4
=	-256.8	0.0	50.0	8.5
=	-255.3	0.0	50.0	8.7
=	-254.4	0.0	50.0	8.8
=	-253.6	0.0	50.0	8.8
=	-252.6	0.0	50.0	8.9
=	-251.8	0.0	50.0	9.0
=	-251.3	0.0	50.0	9.1
=	-250.6	0.0	50.0	9.1
=	-250.0	0.0	50.0	9.2
=	-249.3	0.0	50.0	9.3
=	-248.6	0.0	50.0	9.4
=	-248.1	0.0	50.0	9.4
=	-247.6	0.0	50.0	9.4
=	-247.1	0.0	50.0	9.5
=	-246.5	0.0	50.0	9.6
=	-245.7	0.0	50.0	9.7
=	-245.0	0.0	50.0	9.8
=	-244.2	0.0	50.0	9.8
=	-243.5	0.0	50.0	9.9
=	-242.7	0.0	50.0	10.0
=	-242.0	0.0	50.0	10.1
=	-241.2	0.0	50.0	10.2
=	-240.4	0.0	50.0	10.3
=	-239.7	0.0	50.0	10.4
=	-238.9	0.0	50.0	10.5
=	-238.2	0.0	50.0	10.6
=	-237.6	0.0	50.0	10.7
=	-236.9	0.0	50.0	10.8
=	-236.2	0.0	50.0	10.9
=	-235.4	0.0	50.0	11.1
=	-234.7	0.0	50.0	11.2
=	-233.9	0.0	50.0	11.3
=	-233.1	0.0	50.0	11.4
=	-232.4	0.0	50.0	11.5
=	-231.6	0.0	50.0	11.7
=	-230.9	0.0	50.0	11.8
=	-230.1	0.0	50.0	11.9
=	-229.4	0.0	50.0	12.1
=	-228.6	0.0	50.0	12.2
=	-227.9	0.0	50.0	12.4
=	-227.1	0.0	50.0	12.5
=	-226.4	0.0	50.0	12.7
=	-225.6	0.0	50.0	12.9
=	-224.9	0.0	50.0	13.1
=	-224.1	0.0	50.0	13.3
=	-223.4	0.0	50.0	13.5
=	-222.6	0.0	50.0	13.7
=	-221.8	0.0	50.0	14.0
=	-221.1	0.0	50.0	14.3
=	-220.3	0.0	50.0	14.6
=	-219.6	0.0	50.0	15.1
=	-218.8	0.0	50.0	15.6
=	-218.1	0.0	50.0	16.2
=	-217.5	0.0	50.0	16.9
=	-216.8	0.0	50.0	17.6
=	-216.3	0.0	50.0	18.5
=	-215.6	0.0	50.0	19.9
=	-215.1	0.0	50.0	21.2
=	-214.6	0.0	50.0	22.6
=	-213.8	0.0	50.0	25.6
=	-213.0	0.0	50.0	29.1
=	-212.3	0.0	50.0	33.3
=	-211.7	0.0	50.0	36.8
=	-211.1	0.0	50.0	41.5
=	-210.6	0.0	50.0	45.3
=	-210.0	0.0	50.0	49.6
=	-209.4	0.0	50.0	54.8
=	-208.7	0.0	50.0	60.0
=	-208.2	0.0	50.0	64.3
=	-207.7	0.0	50.0	68.1
=	-207.1	0.0	50.0	73.0
=	-206.5	0.0	50.0	76.4
=	-206.0	0.0	50.0	79.2
=	-205.5	0.0	50.0	81.6
=	-205.0	0.0	50.0	83.8
=	-204.5	0.0	50.0	85.6
=	-204.0	0.0	50.0	87.2
=	-203.5	0.0	50.0	88.4
=	-203.0	0.0	50.0	89.4
=	-202.5	0.0	50.0	90.2
=	-202.0	0.0	50.0	90.9
=	-201.3	0.0	50.0	91.7
=	-200.8	0.0	50.0	92.1
=	-200.2	0.0	50.0	92.6
=	-199.5	0.0	50.0	93.2
=	-198.8	0.0	50.0	93.6
=	-198.3	0.0	50.0	93.8
=	-197.8	0.0	50.0	94.0
=	-197.3	0.0	50.0	94.3
=	-196.7	0.0	50.0	94.5
=	-196.0	0.0	50.0	94.7
=	-195.2	0.0	50.0	95.0
=	-194.6	0.0	50.0	95.1
=	-194.0	0.0	50.0	95.2
=	-193.4	0.0	50.0	95.4
=	-192.7	0.0	50.0	95.6
=	-192.0	0.0	50.0	95.8
=	-191.5	0.0	50.0	95.9
=	-191.0	0.0	50.0	96.0
=	-190.5	0.0	50.0	96.1
=	-190.0	0.0	50.0	96.2
=	-189.2	0.0	50.0	96.3
=	-188.6	0.0	50.0	96.4
=	-188.1	0.0	50.0	96.4
=	-187.5	0.0	50.0	96.6
=	-186.7	0.0	50.0	96.6
=	-186.0	0.0	50.0	96.7
=	-185.4	0.0	50.0	96.8
=	-184.9	0.0	50.0	96.9
=	-184.2	0.0	50.0	97.0
=	-183.4	0.0	50.0	97.1
=	-182.7	0.0	50.0	97.2
=	-182.1	0.0	50.0	97.3
=	-181.4	0.0	50.0	97.4
=	-180.6	0.0	50.0	97.5
=	-179.9	0.0	50.0	97.5
=	-179.1	0.0	50.0	97.5
=	-178.4	0.0	50.0	97.6
=	-177.9	0.0	50.0	97.7
=	-177.4	0.0	50.0	97.7
=	-176.6	0.0	50.0	97.8
=	-175.9	0.0	50.0	97.8
=	-175.2	0.0	50.0	97.9
=	-174.6	0.0	50.0	97.9
=	-174.0	0.0	50.0	98.0
=	-173.5	0.0	50.0	98.0
=	-172.9	0.0	50.0	98.1
=	-172.1	0.0	50.0	98.2
=	-171.3	0.0	50.0	98.2
=	-170.6	0.0	50.0	98.2
=	-170.0	0.0	50.0	98.3
=	-169.4	0.0	50.0	98.3
=	-168.8	0.0	50.0	98.4
=	-168.0	0.0	50.0	98.4
=	-167.2	0.0	50.0	98.5
=	-166.5	0.0	50.0	98.5
=	-165.6	0.0	50.0	98.6
=	-164.3	0.0	50.0	98.6
=	-162.7	0.0	50.0	98.7
=	-161.6	0.0	50.0	98.8
=	-160.2	0.0	50.0	98.8
=	-159.3	0.0	50.0	98.9
=	-158.5	0.0	50.0	98.9
=	-157.8	0.0	50.0	98.9
=	-157.0	0.0	50.0	99.0
=	-156.2	0.0	50.0	99.0
=	-155.5	0.0	50.0	99.0
=	-154.7	0.0	50.0	99.1
=	-154.0	0.0	50.0	99.1
=	-153.2	0.0	50.0	99.2
=	-152.4	0.0	50.0	99.2
=	-151.6	0.0	50.0	99.2
=	-150.9	0.0	50.0	99.2
=	-150.1	0.0	50.0	99.2
=	-149.3	0.0	50.0	99.3
=	-148.6	0.0	50.0	99.3
=	-147.9	0.0	50.0	99.3
=	-147.1	0.0	50.0	99.4
=	-146.4	0.0	50.0	99.4
=	-145.5	0.0	50.0	99.4
=	-144.8	0.0	50.0	99.5
=	-144.0	0.0	50.0	99.5
=	-143.3	0.0	50.0	99.5
=	-142.5	0.0	50.0	99.6
=	-141.7	0.0	50.0	99.6
=	-140.9	0.0	50.0	99.6
=	-140.2	0.0	50.0	99.7
=	-139.4	0.0	50.0	99.7
=	-138.7	0.0	50.0	99.7
=	-137.9	0.0	50.0	99.7
=	-137.2	0.0	50.0	99.8
=	-136.4	0.0	50.0	99.8
=	-135.7	0.0	50.0	99.8
=	-134.9	0.0	50.0	99.8
=	-134.2	0.0	50.0	99.8
=	-133.4	0.0	50.0	99.8
=	-132.6	0.0	50.0	99.8
=	-131.8	0.0	50.0	99.8
=	-131.1	0.0	50.0	99.9
=	-130.3	0.0	50.0	99.9
=	-129.6	0.0	50.0	99.9
=	-128.8	0.0	50.0	99.9
=	-128.1	0.0	50.0	99.9
=	-127.3	0.0	50.0	99.9
=	-126.6	0.0	50.0	99.9
=	-125.8	0.0	50.0	100.0
=	-125.1	0.0	50.0	100.0
=	-124.3	0.0	50.0	100.0
=	-123.6	0.0	50.0	100.0
=	-122.8	0.0	50.0	100.0
=	-122.1	0.0	50.0	100.1
=	-121.3	0.0	50.0	100.1
=	-120.6	0.0	50.0	100.0
=	-119.8	0.0	50.0	100.1
=	-119.1	0.0	50.0	100.1
=	-118.3	0.0	50.0	100.1
=	-117.5	0.0	50.0	100.1
=	-116.8	0.0	50.0	100.1
=	-116.0	0.0	50.0	100.1
=	-115.3	0.0	50.0	100.2
=	-114.5	0.0	50.0	100.2
=	-113.7	0.0	50.0	100.2
=	-113.0	0.0	50.0	100.2
=	-112.2	0.0	50.0	100.2
=	-111.5	0.0	50.0	100.2
=	-110.7	0.0	50.0	100.2
=	-110.2	0.0	50.0	100.2
=	-109.4	0.0	50.0	100.2
=	-108.9	0.0	50.0	100.2
=	-108.4	0.0	50.0	100.3
=	-107.7	0.0	50.0	100.3
=	-107.0	0.0	50.0	100.3
=	-106.4	0.0	50.0	100.3
=	-105.7	0.0	50.0	100.3
=	-105.2	0.0	50.0	100.3
=	-104.4	0.0	50.0	100.3
=	-103.7	0.0	50.0	100.3
=	-102.9	0.0	50.0	100.3
=	-102.1	0.0	50.0	100.3
=	-101.4	0.0	50.0	100.3
=	-100.6	0.0	50.0	100.3
=	-99.9	0.0	50.0	100.3
=	-99.1	0.0	50.0	100.3
=	-98.3	0.0	50.0	100.4
=	-97.6	0.0	50.0	100.4
=	-96.8	0.0	50.0	100.4
=	-96.1	0.0	50.0	100.4
=	-95.3	0.0	50.0	100.4
=	-94.6	0.0	50.0	100.4
=	-93.8	0.0	50.0	100.4
=	-93.1	0.0	50.0	100.4
=	-92.3	0.0	50.0	100.4
=	-91.6	0.0	50.0	100.4
=	-90.8	0.0	50.0	100.5
=	-90.1	0.0	50.0	100.5
=	-89.3	0.0	50.0	100.5
=	-88.5	0.0	50.0	100.5
=	-88.0	0.0	50.0	100.5
=	-87.5	0.0	50.0	100.5
=	-87.0	0.0	50.0	100.5
=	-86.5	0.0	50.0	100.5
=	-85.7	0.0	50.0	100.5
=	-85.1	0.0	50.0	100.5
=	-84.6	0.0	50.0	100.5
=	-84.1	0.0	50.0	100.5
=	-83.6	0.0	50.0	100.5
=	-83.1	0.0	50.0	100.5
=	-82.6	0.0	50.0	100.5
=	-82.1	0.0	50.0	100.5
=	-81.6	0.0	50.0	100.5
=	-81.0	0.0	50.0	100.5
=	-80.4	0.0	50.0	100.5
=	-79.7	0.0	50.0	100.5
=	-79.0	0.0	50.0	100.5
=	-78.2	0.0	50.0	100.5
=	-77.7	0.0	50.0	100.5
=	-77.2	0.0	50.0	100.5
=	-76.5	0.0	50.0	100.5
=	-75.8	0.0	50.0	100.5
=	-75.0	0.0	50.0	100.5
=	-74.2	0.0	50.0	100.5
=	-73.4	0.0	50.0	100.5
=	-72.6	0.0	50.0	100.5
=	-71.6	0.0	50.0	100.5
=	-70.8	0.0	50.0	100.5
=	-69.3	0.0	50.0	100.5
=	-68.4	0.0	50.0	100.5
=	-67.2	0.0	50.0	100.5
=	-65.7	0.0	50.0	100.5
=	-64.8	0.0	50.0	100.5
=	-64.0	0.0	50.0	100.5
=	-63.3	0.0	50.0	100.5
=	-62.2	0.0	50.0	100.5
=	-61.0	0.0	50.0	100.5
=	-60.2	0.0	50.0	100.5
=	-59.3	0.0	50.0	100.5
=	-58.5	0.0	50.0	100.5
=	-57.7	0.0	50.0	100.5
=	-56.9	0.0	50.0	100.5
=	-56.2	0.0	50.0	100.5
=	-55.4	0.0	50.0	100.5
=	-54.6	0.0	50.0	100.4
=	-53.9	0.0	50.0	100.4
=	-53.1	0.0	50.0	100.4
=	-52.3	0.0	50.0	100.5
=	-51.5	0.0	50.0	100.5
=	-50.8	0.0	50.0	100.5
=	-50.0	0.0	50.0	100.5
=	-49.3	0.0	50.0	100.5
=	-48.5	0.0	50.0	100.5
=	-47.8	0.0	50.0	100.5
=	-47.0	0.0	50.0	100.4
=	-46.3	0.0	50.0	100.4
=	-45.5	0.0	50.0	100.4
=	-44.8	0.0	50.0	100.4
=	-44.0	0.0	50.0	100.4
=	-43.3	0.0	50.0	100.4
=	-42.4	0.0	50.0	100.4
=	-41.7	0.0	50.0	100.4
=	-40.9	0.0	50.0	100.4
=	-40.1	0.0	50.0	100.4
=	-39.0	0.0	50.0	100.4
=	-37.9	0.0	50.0	100.4
=	-37.2	0.0	50.0	100.4
=	-36.0	0.0	50.0	100.4
=	-34.5	0.0	50.0	100.3
=	-33.0	0.0	50.0	100.3
=	-31.5	0.0	50.0	100.3
=	-30.6	0.0	50.0	100.3
=	-29.8	0.0	50.0	100.3
=	-29.0	0.0	50.0	100.3
=	-28.2	0.0	50.0	100.3
=	-27.5	0.0	50.0	100.3
=	-26.7	0.0	50.0	100.2
=	-26.0	0.0	50.0	100.2
=	-25.2	0.0	50.0	100.2
=	-24.5	0.0	50.0	100.2
=	-23.7	0.0	50.0	100.2
=	-23.0	0.0	50.0	100.2
=	-22.3	0.0	50.0	100.2
=	-21.7	0.0	50.0	100.2
=	-21.2	0.0	50.0	100.2
=	-20.5	0.0	50.0	100.2
=	-20.0	0.0	50.0	100.2
=	-19.5	0.0	50.0	100.2
=	-18.7	0.0	50.0	100.2
=	-18.1	0.0	50.0	100.2
=	-17.6	0.0	50.0	100.2
=	-17.1	0.0	50.0	100.2
=	-16.6	0.0	50.0	100.1
=	-16.0	0.0	50.0	100.1
=	-15.2	0.0	50.0	100.1
=	-14.7	0.0	50.0	100.1
=	-14.2	0.0	50.0	100.1
=	-13.7	0.0	50.0	100.1
=	-13.2	0.0	50.0	100.1
=	-12.7	0.0	50.0	100.1
=	-12.2	0.0	50.0	100.1
=	-11.7	0.0	50.0	100.1
=	-11.2	0.0	50.0	100.1
=	-10.7	0.0	50.0	100.0
=	-9.9	0.0	50.0	100.0
=	-9.1	0.0	50.0	100.0
=	-8.4	0.0	50.0	100.0
=	-7.6	0.0	50.0	100.0
=	-6.9	0.0	50.0	100.0
=	-6.1	0.0	50.0	100.0
=	-5.4	0.0	50.0	100.0
=	-4.6	0.0	50.0	100.0
=	-3.9	0.0	50.0	100.0
=	-3.1	0.0	50.0	100.0
=	-2.4	0.0	50.0	100.0
=	-1.6	0.0	50.0	100.0
=	-0.9	0.0	50.0	100.0
=	-0.1	0.0	50.0	100.0
=	0.0	0.0	50.0	100.0
=	0.6	0.0	50.0	100.0
=	1.4	0.0	50.0	100.0
=	2.1	0.0	50.0	100.0
=	2.9	0.0	50.0	100.0
=	3.6	0.0	50.0	100.0
=	4.4	0.0	50.0	100.0
=	5.1	0.0	50.0	100.0
=	5.9	0.0	50.0	100.0
=	6.6	0.0	50.0	100.0
=	7.4	0.0	50.0	100.0
=	8.2	0.0	50.0	100.0
=	8.9	0.0	50.0	100.0
=	9.6	0.0	50.0	100.0
=	10.5	0.0	50.0	100.0
=	11.0	0.0	50.0	100.0
=	11.5	0.0	50.0	100.1
=	12.0	0.0	50.0	100.1
=	12.5	0.0	50.0	100.1
=	13.1	0.0	50.0	100.1
=	13.6	0.0	50.0	100.1
=	14.1	0.0	50.0	100.1
=	14.6	0.0	50.0	100.1
=	15.1	0.0	50.0	100.1
=	15.7	0.0	50.0	100.1
=	16.4	0.0	50.0	100.1
=	17.0	0.0	50.0	100.1
=	17.4	0.0	50.0	100.2
=	17.9	0.0	50.0	100.2
=	18.5	0.0	50.0	100.2
=	19.2	0.0	50.0	100.2
=	19.8	0.0	50.0	100.2
=	20.3	0.0	50.0	100.2
=	21.0	0.0	50.0	100.2
=	21.5	0.0	50.0	100.2
=	22.2	0.0	50.0	100.2
=	22.7	0.0	50.0	100.2
=	23.5	0.0	50.0	100.2
=	24.2	0.0	50.0	100.2
=	25.0	0.0	50.0	100.2
=	25.7	0.0	50.0	100.2
=	26.5	0.0	50.0	100.2
=	27.2	0.0	50.0	100.2
=	28.0	0.0	50.0	100.3
=	28.7	0.0	50.0	100.3
=	29.5	0.0	50.0	100.3
=	30.3	0.0	50.0	100.3
=	31.1	0.0	50.0	100.3
=	32.5	0.0	50.0	100.3
=	34.0	0.0	50.0	100.3
=	35.5	0.0	50.0	100.4
=	36.9	0.0	50.0	100.4
=	37.7	0.0	50.0	100.4
=	38.6	0.0	50.0	100.4
=	39.7	0.0	50.0	100.4
=	40.7	0.0	50.0	100.4
=	41.4	0.0	50.0	100.4
=	42.2	0.0	50.0	100.4
=	43.0	0.0	50.0	100.4
=	43.8	0.0	50.0	100.4
=	44.5	0.0	50.0	100.4
=	45.3	0.0	50.0	100.4
=	46.0	0.0	50.0	100.4
=	46.8	0.0	50.0	100.4
=	47.5	0.0	50.0	100.4
=	48.3	0.0	50.0	100.5
=	49.0	0.0	50.0	100.5
=	49.8	0.0	50.0	100.5
=	50.5	0.0	50.0	100.5
=	51.3	0.0	50.0	100.5
=	52.1	0.0	50.0	100.5
=	52.8	0.0	50.0	100.5
=	53.6	0.0	50.0	100.4
=	54.4	0.0	50.0	100.4
=	55.1	0.0	50.0	100.4
=	55.9	0.0	50.0	100.5
=	56.7	0.0	50.0	100.5
=	57.4	0.0	50.0	100.5
=	58.2	0.0	50.0	100.5
=	58.9	0.0	50.0	100.5
=	59.9	0.0	50.0	100.5
=	60.7	0.0	50.0	100.5
=	61.7	0.0	50.0	100.5
=	63.0	0.0	50.0	100.5
=	63.8	0.0	50.0	100.5
=	64.5	0.0	50.0	100.5
=	65.3	0.0	50.0	100.5
=	66.7	0.0	50.0	100.5
=	68.1	0.0	50.0	100.5
=	68.9	0.0	50.0	100.5
=	70.3	0.0	50.0	100.5
=	71.4	0.0	50.0	100.5
=	72.3	0.0	50.0	100.5
=	73.2	0.0	50.0	100.5
=	73.9	0.0	50.0	100.5
=	74.7	0.0	50.0	100.5
=	75.5	0.0	50.0	100.5
=	76.2	0.0	50.0	100.5
=	77.0	0.0	50.0	100.5
=	77.5	0.0	50.0	100.5
=	78.0	0.0	50.0	100.5
=	78.7	0.0	50.0	100.5
=	79.5	0.0	50.0	100.5
=	80.2	0.0	50.0	100.5
=	80.8	0.0	50.0	100.5
=	81.4	0.0	50.0	100.5
=	81.9	0.0	50.0	100.5
=	82.5	0.0	50.0	100.5
=	82.9	0.0	50.0	100.5
=	83.4	0.0	50.0	100.5
=	83.9	0.0	50.0	100.5
=	84.5	0.0	50.0	100.5
=	85.0	0.0	50.0	100.5
=	85.5	0.0	50.0	100.5
=	86.2	0.0	50.0	100.5
=	86.8	0.0	50.0	100.5
=	87.3	0.0	50.0	100.5
=	87.8	0.0	50.0	100.5
=	88.3	0.0	50.0	100.5
=	89.0	0.0	50.0	100.5
=	89.8	0.0	50.0	100.5
=	90.6	0.0	50.0	100.5
=	91.3	0.0	50.0	100.4
=	92.1	0.0	50.0	100.4
=	92.8	0.0	50.0	100.4
=	93.6	0.0	50.0	100.4
=	94.3	0.0	50.0	100.4
=	95.1	0.0	50.0	100.4
=	95.8	0.0	50.0	100.4
=	96.6	0.0	50.0	100.4
=	97.3	0.0	50.0	100.4
=	98.1	0.0	50.0	100.4
=	98.8	0.0	50.0	100.3
=	99.6	0.0	50.0	100.3
=	100.4	0.0	50.0	100.3
=	101.1	0.0	50.0	100.3
=	101.9	0.0	50.0	100.3
=	102.6	0.0	50.0	100.3
=	103.4	0.0	50.0	100.3
=	104.2	0.0	50.0	100.3
=	104.9	0.0	50.0	100.3
=	105.5	0.0	50.0	100.3
=	106.2	0.0	50.0	100.3
=	106.9	0.0	50.0	100.3
=	107.4	0.0	50.0	100.3
=	108.2	0.0	50.0	100.3
=	108.7	0.0	50.0	100.2
=	109.2	0.0	50.0	100.2
=	109.9	0.0	50.0	100.2
=	110.6	0.0	50.0	100.2
=	111.2	0.0	50.0	100.2
=	112.0	0.0	50.0	100.2
=	112.7	0.0	50.0	100.2
=	113.5	0.0	50.0	100.2
=	114.2	0.0	50.0	100.2
=	115.0	0.0	50.0	100.2
=	115.8	0.0	50.0	100.2
=	116.5	0.0	50.0	100.1
=	117.2	0.0	50.0	100.1
=	118.0	0.0	50.0	100.1
