:MSR 	5	 # No. of measurement in file
:SYS BDS 0   # Beam Data Scanner System
#
# RFA300 ASCII Measurement Dump ( BDS format )
#
# Measurement number 	1
#
%VNR 1.0
%MOD 	RAT
%TYP 	SCN
%SCN 	PRO
%FLD 	ION
%DAT 	02-03-2012
%TIM 	12:00:00
%FSZ 	400	300
%BMT 	PHO	   8.0
%SSD 	1000
%BUP 	0
%BRD 	1000
%FSH 	1
%ASC 	0
%WEG 	15
%GPO 	0
%CPO 	0
%MEA 	6
%PRD 	20,0
%PTS 	731
%STS 	    0.0	  -273.8	   20.0 # Start Scan values in mm ( X , Y , Z )
%EDS 	    0.0	   273.8	   20.0 # End Scan values in mm ( X , Y , Z )
#
#	  X      Y      Z     Dose
#
=	0.0	-273.8	20.0	6.8
=	0.0	-273.2	20.0	6.8
=	0.0	-272.5	20.0	6.9
=	0.0	-271.7	20.0	6.9
=	0.0	-271.0	20.0	6.9
=	0.0	-270.2	20.0	7.0
=	0.0	-269.5	20.0	7.0
=	0.0	-268.7	20.0	7.0
=	0.0	-267.8	20.0	7.1
=	0.0	-266.6	20.0	7.1
=	0.0	-265.8	20.0	7.2
=	0.0	-265.0	20.0	7.2
=	0.0	-264.2	20.0	7.3
=	0.0	-263.5	20.0	7.3
=	0.0	-262.8	20.0	7.4
=	0.0	-262.1	20.0	7.4
=	0.0	-261.6	20.0	7.4
=	0.0	-261.1	20.0	7.5
=	0.0	-260.6	20.0	7.5
=	0.0	-260.1	20.0	7.5
=	0.0	-259.6	20.0	7.6
=	0.0	-259.1	20.0	7.6
=	0.0	-258.5	20.0	7.6
=	0.0	-258.1	20.0	7.6
=	0.0	-257.5	20.0	7.7
=	0.0	-257.0	20.0	7.7
=	0.0	-256.5	20.0	7.7
=	0.0	-256.0	20.0	7.8
=	0.0	-255.5	20.0	7.8
=	0.0	-255.0	20.0	7.9
=	0.0	-254.5	20.0	7.9
=	0.0	-254.0	20.0	7.9
=	0.0	-253.5	20.0	7.9
=	0.0	-253.0	20.0	8.0
=	0.0	-252.5	20.0	8.0
=	0.0	-252.0	20.0	8.1
=	0.0	-251.5	20.0	8.1
=	0.0	-251.0	20.0	8.2
=	0.0	-250.5	20.0	8.2
=	0.0	-250.0	20.0	8.2
=	0.0	-249.5	20.0	8.3
=	0.0	-249.0	20.0	8.4
=	0.0	-248.5	20.0	8.4
=	0.0	-248.0	20.0	8.4
=	0.0	-247.3	20.0	8.5
=	0.0	-246.6	20.0	8.5
=	0.0	-245.8	20.0	8.6
=	0.0	-245.1	20.0	8.7
=	0.0	-244.4	20.0	8.7
=	0.0	-243.6	20.0	8.8
=	0.0	-242.8	20.0	8.9
=	0.0	-242.1	20.0	8.9
=	0.0	-241.3	20.0	9.0
=	0.0	-240.6	20.0	9.1
=	0.0	-239.8	20.0	9.2
=	0.0	-239.1	20.0	9.2
=	0.0	-238.4	20.0	9.3
=	0.0	-237.6	20.0	9.4
=	0.0	-236.8	20.0	9.4
=	0.0	-236.0	20.0	9.5
=	0.0	-234.9	20.0	9.6
=	0.0	-234.0	20.0	9.7
=	0.0	-233.3	20.0	9.8
=	0.0	-232.5	20.0	9.9
=	0.0	-231.8	20.0	10.0
=	0.0	-231.0	20.0	10.1
=	0.0	-230.3	20.0	10.2
=	0.0	-229.5	20.0	10.3
=	0.0	-228.8	20.0	10.4
=	0.0	-228.0	20.0	10.5
=	0.0	-227.3	20.0	10.6
=	0.0	-226.5	20.0	10.7
=	0.0	-225.8	20.0	10.8
=	0.0	-225.0	20.0	10.9
=	0.0	-224.3	20.0	11.0
=	0.0	-223.5	20.0	11.2
=	0.0	-222.7	20.0	11.3
=	0.0	-222.0	20.0	11.4
=	0.0	-221.2	20.0	11.5
=	0.0	-220.4	20.0	11.6
=	0.0	-219.7	20.0	11.7
=	0.0	-218.6	20.0	12.0
=	0.0	-217.3	20.0	12.3
=	0.0	-216.4	20.0	12.5
=	0.0	-215.1	20.0	12.9
=	0.0	-214.2	20.0	13.3
=	0.0	-213.2	20.0	13.8
=	0.0	-212.4	20.0	14.3
=	0.0	-211.1	20.0	15.7
=	0.0	-209.6	20.0	18.3
=	0.0	-208.2	20.0	22.5
=	0.0	-207.2	20.0	27.0
=	0.0	-206.4	20.0	32.1
=	0.0	-205.1	20.0	41.8
=	0.0	-203.6	20.0	55.1
=	0.0	-202.0	20.0	68.6
=	0.0	-200.5	20.0	80.0
=	0.0	-199.0	20.0	87.9
=	0.0	-197.5	20.0	92.4
=	0.0	-196.0	20.0	94.8
=	0.0	-194.5	20.0	96.0
=	0.0	-193.0	20.0	96.8
=	0.0	-191.5	20.0	97.3
=	0.0	-190.0	20.0	97.7
=	0.0	-188.5	20.0	98.0
=	0.0	-186.9	20.0	98.3
=	0.0	-185.4	20.0	98.5
=	0.0	-183.9	20.0	98.7
=	0.0	-182.4	20.0	98.8
=	0.0	-180.9	20.0	99.0
=	0.0	-180.0	20.0	99.1
=	0.0	-179.2	20.0	99.1
=	0.0	-178.4	20.0	99.2
=	0.0	-177.7	20.0	99.3
=	0.0	-177.0	20.0	99.3
=	0.0	-176.2	20.0	99.4
=	0.0	-175.4	20.0	99.4
=	0.0	-174.7	20.0	99.4
=	0.0	-173.9	20.0	99.5
=	0.0	-173.2	20.0	99.5
=	0.0	-172.4	20.0	99.6
=	0.0	-171.6	20.0	99.6
=	0.0	-170.9	20.0	99.6
=	0.0	-170.1	20.0	99.7
=	0.0	-169.4	20.0	99.7
=	0.0	-168.6	20.0	99.7
=	0.0	-167.9	20.0	99.7
=	0.0	-167.1	20.0	99.8
=	0.0	-166.4	20.0	99.8
=	0.0	-165.6	20.0	99.9
=	0.0	-164.8	20.0	99.9
=	0.0	-164.1	20.0	100.0
=	0.0	-163.3	20.0	100.0
=	0.0	-162.6	20.0	100.0
=	0.0	-161.9	20.0	100.0
=	0.0	-161.0	20.0	100.1
=	0.0	-160.5	20.0	100.1
=	0.0	-160.0	20.0	100.1
=	0.0	-159.5	20.0	100.1
=	0.0	-159.0	20.0	100.1
=	0.0	-158.3	20.0	100.2
=	0.0	-157.6	20.0	100.2
=	0.0	-156.8	20.0	100.2
=	0.0	-156.1	20.0	100.2
=	0.0	-155.6	20.0	100.2
=	0.0	-155.0	20.0	100.3
=	0.0	-154.5	20.0	100.3
=	0.0	-153.8	20.0	100.3
=	0.0	-153.1	20.0	100.3
=	0.0	-152.6	20.0	100.3
=	0.0	-152.1	20.0	100.3
=	0.0	-151.6	20.0	100.3
=	0.0	-151.2	20.0	100.3
=	0.0	-150.6	20.0	100.4
=	0.0	-150.1	20.0	100.4
=	0.0	-149.6	20.0	100.4
=	0.0	-149.1	20.0	100.4
=	0.0	-148.6	20.0	100.4
=	0.0	-148.1	20.0	100.5
=	0.0	-147.6	20.0	100.5
=	0.0	-146.9	20.0	100.5
=	0.0	-146.4	20.0	100.5
=	0.0	-145.9	20.0	100.5
=	0.0	-145.2	20.0	100.5
=	0.0	-144.5	20.0	100.5
=	0.0	-143.7	20.0	100.5
=	0.0	-143.0	20.0	100.5
=	0.0	-142.2	20.0	100.6
=	0.0	-141.5	20.0	100.6
=	0.0	-140.7	20.0	100.7
=	0.0	-140.0	20.0	100.7
=	0.0	-139.2	20.0	100.7
=	0.0	-138.4	20.0	100.7
=	0.0	-137.6	20.0	100.7
=	0.0	-136.9	20.0	100.7
=	0.0	-136.1	20.0	100.8
=	0.0	-135.4	20.0	100.7
=	0.0	-134.6	20.0	100.8
=	0.0	-133.9	20.0	100.8
=	0.0	-133.1	20.0	100.8
=	0.0	-132.4	20.0	100.8
=	0.0	-131.6	20.0	100.8
=	0.0	-130.9	20.0	100.8
=	0.0	-130.1	20.0	100.8
=	0.0	-129.4	20.0	100.8
=	0.0	-128.6	20.0	100.8
=	0.0	-127.8	20.0	100.8
=	0.0	-127.0	20.0	100.8
=	0.0	-126.3	20.0	100.8
=	0.0	-125.5	20.0	100.8
=	0.0	-124.8	20.0	100.9
=	0.0	-124.0	20.0	100.9
=	0.0	-123.2	20.0	100.9
=	0.0	-122.5	20.0	100.9
=	0.0	-121.7	20.0	100.9
=	0.0	-120.9	20.0	100.9
=	0.0	-120.4	20.0	100.9
=	0.0	-119.7	20.0	100.9
=	0.0	-118.9	20.0	100.9
=	0.0	-118.2	20.0	100.9
=	0.0	-117.4	20.0	100.9
=	0.0	-116.6	20.0	100.9
=	0.0	-115.9	20.0	100.9
=	0.0	-115.1	20.0	100.9
=	0.0	-114.4	20.0	100.9
=	0.0	-113.6	20.0	100.9
=	0.0	-112.9	20.0	100.9
=	0.0	-112.1	20.0	100.9
=	0.0	-111.3	20.0	100.9
=	0.0	-110.6	20.0	100.9
=	0.0	-109.8	20.0	101.0
=	0.0	-109.0	20.0	101.0
=	0.0	-108.3	20.0	100.9
=	0.0	-107.5	20.0	100.9
=	0.0	-106.8	20.0	100.9
=	0.0	-105.6	20.0	101.0
=	0.0	-104.1	20.0	101.0
=	0.0	-102.9	20.0	101.0
=	0.0	-101.5	20.0	101.0
=	0.0	-100.0	20.0	101.0
=	0.0	-98.5	20.0	101.0
=	0.0	-97.0	20.0	101.0
=	0.0	-95.5	20.0	101.0
=	0.0	-94.3	20.0	101.0
=	0.0	-93.0	20.0	101.0
=	0.0	-91.8	20.0	101.0
=	0.0	-91.0	20.0	101.0
=	0.0	-90.2	20.0	100.9
=	0.0	-89.5	20.0	100.9
=	0.0	-88.7	20.0	100.9
=	0.0	-87.4	20.0	100.9
=	0.0	-86.0	20.0	100.9
=	0.0	-84.9	20.0	100.9
=	0.0	-83.7	20.0	100.9
=	0.0	-83.0	20.0	100.9
=	0.0	-82.2	20.0	100.9
=	0.0	-81.5	20.0	100.9
=	0.0	-80.8	20.0	101.0
=	0.0	-80.2	20.0	101.0
=	0.0	-79.6	20.0	100.9
=	0.0	-79.1	20.0	100.9
=	0.0	-78.6	20.0	100.9
=	0.0	-77.9	20.0	100.9
=	0.0	-77.4	20.0	100.9
=	0.0	-76.9	20.0	100.9
=	0.0	-76.4	20.0	100.9
=	0.0	-75.9	20.0	100.9
=	0.0	-75.3	20.0	100.9
=	0.0	-74.8	20.0	100.9
=	0.0	-74.2	20.0	100.9
=	0.0	-73.5	20.0	100.9
=	0.0	-73.0	20.0	100.9
=	0.0	-72.4	20.0	100.9
=	0.0	-71.7	20.0	100.9
=	0.0	-71.2	20.0	100.9
=	0.0	-70.6	20.0	100.9
=	0.0	-70.1	20.0	100.9
=	0.0	-69.6	20.0	100.9
=	0.0	-69.1	20.0	100.9
=	0.0	-68.4	20.0	100.9
=	0.0	-67.9	20.0	100.9
=	0.0	-67.4	20.0	100.9
=	0.0	-66.8	20.0	100.9
=	0.0	-66.3	20.0	100.9
=	0.0	-65.6	20.0	100.9
=	0.0	-64.9	20.0	100.8
=	0.0	-64.4	20.0	100.8
=	0.0	-63.9	20.0	100.8
=	0.0	-63.3	20.0	100.8
=	0.0	-62.7	20.0	100.8
=	0.0	-62.2	20.0	100.8
=	0.0	-61.7	20.0	100.8
=	0.0	-61.1	20.0	100.8
=	0.0	-60.3	20.0	100.8
=	0.0	-59.5	20.0	100.8
=	0.0	-58.8	20.0	100.8
=	0.0	-58.0	20.0	100.8
=	0.0	-57.3	20.0	100.8
=	0.0	-56.5	20.0	100.8
=	0.0	-55.8	20.0	100.8
=	0.0	-55.0	20.0	100.8
=	0.0	-54.3	20.0	100.8
=	0.0	-53.5	20.0	100.7
=	0.0	-52.8	20.0	100.7
=	0.0	-52.2	20.0	100.7
=	0.0	-51.5	20.0	100.7
=	0.0	-50.7	20.0	100.7
=	0.0	-50.0	20.0	100.7
=	0.0	-49.2	20.0	100.7
=	0.0	-48.5	20.0	100.7
=	0.0	-47.9	20.0	100.7
=	0.0	-47.2	20.0	100.7
=	0.0	-46.4	20.0	100.7
=	0.0	-45.7	20.0	100.7
=	0.0	-44.9	20.0	100.7
=	0.0	-44.1	20.0	100.6
=	0.0	-43.4	20.0	100.6
=	0.0	-42.8	20.0	100.6
=	0.0	-42.2	20.0	100.6
=	0.0	-41.4	20.0	100.6
=	0.0	-40.9	20.0	100.6
=	0.0	-40.1	20.0	100.5
=	0.0	-39.4	20.0	100.5
=	0.0	-38.6	20.0	100.5
=	0.0	-37.9	20.0	100.5
=	0.0	-37.1	20.0	100.5
=	0.0	-36.3	20.0	100.5
=	0.0	-35.6	20.0	100.5
=	0.0	-34.8	20.0	100.5
=	0.0	-34.1	20.0	100.5
=	0.0	-33.3	20.0	100.4
=	0.0	-32.6	20.0	100.4
=	0.0	-32.1	20.0	100.4
=	0.0	-31.5	20.0	100.4
=	0.0	-30.9	20.0	100.4
=	0.0	-30.4	20.0	100.4
=	0.0	-29.8	20.0	100.4
=	0.0	-29.2	20.0	100.4
=	0.0	-28.7	20.0	100.4
=	0.0	-28.0	20.0	100.3
=	0.0	-27.3	20.0	100.3
=	0.0	-26.5	20.0	100.3
=	0.0	-25.8	20.0	100.3
=	0.0	-25.1	20.0	100.3
=	0.0	-24.5	20.0	100.3
=	0.0	-24.0	20.0	100.3
=	0.0	-23.5	20.0	100.3
=	0.0	-23.0	20.0	100.3
=	0.0	-22.5	20.0	100.2
=	0.0	-22.0	20.0	100.2
=	0.0	-21.4	20.0	100.2
=	0.0	-20.7	20.0	100.2
=	0.0	-20.1	20.0	100.2
=	0.0	-19.6	20.0	100.2
=	0.0	-19.1	20.0	100.2
=	0.0	-18.6	20.0	100.2
=	0.0	-18.1	20.0	100.1
=	0.0	-17.7	20.0	100.1
=	0.0	-17.1	20.0	100.1
=	0.0	-16.6	20.0	100.1
=	0.0	-15.9	20.0	100.1
=	0.0	-15.2	20.0	100.1
=	0.0	-14.4	20.0	100.1
=	0.0	-13.9	20.0	100.1
=	0.0	-13.2	20.0	100.1
=	0.0	-12.4	20.0	100.1
=	0.0	-11.9	20.0	100.1
=	0.0	-11.4	20.0	100.1
=	0.0	-10.7	20.0	100.1
=	0.0	-10.2	20.0	100.1
=	0.0	-9.7	20.0	100.1
=	0.0	-9.0	20.0	100.1
=	0.0	-8.5	20.0	100.0
=	0.0	-7.9	20.0	100.0
=	0.0	-7.2	20.0	100.0
=	0.0	-6.7	20.0	100.0
=	0.0	-6.2	20.0	100.0
=	0.0	-5.3	20.0	100.0
=	0.0	-4.7	20.0	99.9
=	0.0	-4.2	20.0	99.9
=	0.0	-3.7	20.0	100.0
=	0.0	-3.1	20.0	100.0
=	0.0	-2.3	20.0	100.0
=	0.0	-1.6	20.0	100.0
=	0.0	-0.8	20.0	100.0
=	0.0	0.0	20.0	100.0
=	0.0	0.8	20.0	100.0
=	0.0	1.6	20.0	100.0
=	0.0	2.3	20.0	100.0
=	0.0	3.1	20.0	100.0
=	0.0	3.7	20.0	100.0
=	0.0	4.2	20.0	99.9
=	0.0	4.7	20.0	99.9
=	0.0	5.3	20.0	100.0
=	0.0	6.2	20.0	100.0
=	0.0	6.7	20.0	100.0
=	0.0	7.2	20.0	100.0
=	0.0	7.9	20.0	100.0
=	0.0	8.5	20.0	100.0
=	0.0	9.0	20.0	100.1
=	0.0	9.7	20.0	100.1
=	0.0	10.2	20.0	100.1
=	0.0	10.7	20.0	100.1
=	0.0	11.4	20.0	100.1
=	0.0	11.9	20.0	100.1
=	0.0	12.4	20.0	100.1
=	0.0	13.2	20.0	100.1
=	0.0	13.9	20.0	100.1
=	0.0	14.4	20.0	100.1
=	0.0	15.2	20.0	100.1
=	0.0	15.9	20.0	100.1
=	0.0	16.6	20.0	100.1
=	0.0	17.1	20.0	100.1
=	0.0	17.7	20.0	100.1
=	0.0	18.1	20.0	100.1
=	0.0	18.6	20.0	100.2
=	0.0	19.1	20.0	100.2
=	0.0	19.6	20.0	100.2
=	0.0	20.1	20.0	100.2
=	0.0	20.7	20.0	100.2
=	0.0	21.4	20.0	100.2
=	0.0	22.0	20.0	100.2
=	0.0	22.5	20.0	100.2
=	0.0	23.0	20.0	100.3
=	0.0	23.5	20.0	100.3
=	0.0	24.0	20.0	100.3
=	0.0	24.5	20.0	100.3
=	0.0	25.1	20.0	100.3
=	0.0	25.8	20.0	100.3
=	0.0	26.5	20.0	100.3
=	0.0	27.3	20.0	100.3
=	0.0	28.0	20.0	100.3
=	0.0	28.7	20.0	100.4
=	0.0	29.2	20.0	100.4
=	0.0	29.8	20.0	100.4
=	0.0	30.4	20.0	100.4
=	0.0	30.9	20.0	100.4
=	0.0	31.5	20.0	100.4
=	0.0	32.1	20.0	100.4
=	0.0	32.6	20.0	100.4
=	0.0	33.3	20.0	100.4
=	0.0	34.1	20.0	100.5
=	0.0	34.8	20.0	100.5
=	0.0	35.6	20.0	100.5
=	0.0	36.3	20.0	100.5
=	0.0	37.1	20.0	100.5
=	0.0	37.9	20.0	100.5
=	0.0	38.6	20.0	100.5
=	0.0	39.4	20.0	100.5
=	0.0	40.1	20.0	100.5
=	0.0	40.9	20.0	100.6
=	0.0	41.4	20.0	100.6
=	0.0	42.2	20.0	100.6
=	0.0	42.8	20.0	100.6
=	0.0	43.4	20.0	100.6
=	0.0	44.1	20.0	100.6
=	0.0	44.9	20.0	100.7
=	0.0	45.7	20.0	100.7
=	0.0	46.4	20.0	100.7
=	0.0	47.2	20.0	100.7
=	0.0	47.9	20.0	100.7
=	0.0	48.5	20.0	100.7
=	0.0	49.2	20.0	100.7
=	0.0	50.0	20.0	100.7
=	0.0	50.7	20.0	100.7
=	0.0	51.5	20.0	100.7
=	0.0	52.2	20.0	100.7
=	0.0	52.8	20.0	100.7
=	0.0	53.5	20.0	100.7
=	0.0	54.3	20.0	100.8
=	0.0	55.0	20.0	100.8
=	0.0	55.8	20.0	100.8
=	0.0	56.5	20.0	100.8
=	0.0	57.3	20.0	100.8
=	0.0	58.0	20.0	100.8
=	0.0	58.8	20.0	100.8
=	0.0	59.5	20.0	100.8
=	0.0	60.3	20.0	100.8
=	0.0	61.1	20.0	100.8
=	0.0	61.7	20.0	100.8
=	0.0	62.2	20.0	100.8
=	0.0	62.7	20.0	100.8
=	0.0	63.3	20.0	100.8
=	0.0	63.9	20.0	100.8
=	0.0	64.4	20.0	100.8
=	0.0	64.9	20.0	100.8
=	0.0	65.6	20.0	100.9
=	0.0	66.3	20.0	100.9
=	0.0	66.8	20.0	100.9
=	0.0	67.4	20.0	100.9
=	0.0	67.9	20.0	100.9
=	0.0	68.4	20.0	100.9
=	0.0	69.1	20.0	100.9
=	0.0	69.6	20.0	100.9
=	0.0	70.1	20.0	100.9
=	0.0	70.6	20.0	100.9
=	0.0	71.2	20.0	100.9
=	0.0	71.7	20.0	100.9
=	0.0	72.4	20.0	100.9
=	0.0	73.0	20.0	100.9
=	0.0	73.5	20.0	100.9
=	0.0	74.2	20.0	100.9
=	0.0	74.8	20.0	100.9
=	0.0	75.3	20.0	100.9
=	0.0	75.9	20.0	100.9
=	0.0	76.4	20.0	100.9
=	0.0	76.9	20.0	100.9
=	0.0	77.4	20.0	100.9
=	0.0	77.9	20.0	100.9
=	0.0	78.6	20.0	100.9
=	0.0	79.1	20.0	100.9
=	0.0	79.6	20.0	100.9
=	0.0	80.2	20.0	101.0
=	0.0	80.8	20.0	101.0
=	0.0	81.5	20.0	100.9
=	0.0	82.2	20.0	100.9
=	0.0	83.0	20.0	100.9
=	0.0	83.7	20.0	100.9
=	0.0	84.9	20.0	100.9
=	0.0	86.0	20.0	100.9
=	0.0	87.4	20.0	100.9
=	0.0	88.7	20.0	100.9
=	0.0	89.5	20.0	100.9
=	0.0	90.2	20.0	100.9
=	0.0	91.0	20.0	101.0
=	0.0	91.8	20.0	101.0
=	0.0	93.0	20.0	101.0
=	0.0	94.3	20.0	101.0
=	0.0	95.5	20.0	101.0
=	0.0	97.0	20.0	101.0
=	0.0	98.5	20.0	101.0
=	0.0	100.0	20.0	101.0
=	0.0	101.5	20.0	101.0
=	0.0	102.9	20.0	101.0
=	0.0	104.1	20.0	101.0
=	0.0	105.6	20.0	101.0
=	0.0	106.8	20.0	100.9
=	0.0	107.5	20.0	100.9
=	0.0	108.3	20.0	100.9
=	0.0	109.0	20.0	101.0
=	0.0	109.8	20.0	101.0
=	0.0	110.6	20.0	100.9
=	0.0	111.3	20.0	100.9
=	0.0	112.1	20.0	100.9
=	0.0	112.9	20.0	100.9
=	0.0	113.6	20.0	100.9
=	0.0	114.4	20.0	100.9
=	0.0	115.1	20.0	100.9
=	0.0	115.9	20.0	100.9
=	0.0	116.6	20.0	100.9
=	0.0	117.4	20.0	100.9
=	0.0	118.2	20.0	100.9
=	0.0	118.9	20.0	100.9
=	0.0	119.7	20.0	100.9
=	0.0	120.4	20.0	100.9
=	0.0	120.9	20.0	100.9
=	0.0	121.7	20.0	100.9
=	0.0	122.5	20.0	100.9
=	0.0	123.2	20.0	100.9
=	0.0	124.0	20.0	100.9
=	0.0	124.8	20.0	100.9
=	0.0	125.5	20.0	100.8
=	0.0	126.3	20.0	100.8
=	0.0	127.0	20.0	100.8
=	0.0	127.8	20.0	100.8
=	0.0	128.6	20.0	100.8
=	0.0	129.4	20.0	100.8
=	0.0	130.1	20.0	100.8
=	0.0	130.9	20.0	100.8
=	0.0	131.6	20.0	100.8
=	0.0	132.4	20.0	100.8
=	0.0	133.1	20.0	100.8
=	0.0	133.9	20.0	100.8
=	0.0	134.6	20.0	100.8
=	0.0	135.4	20.0	100.7
=	0.0	136.1	20.0	100.8
=	0.0	136.9	20.0	100.7
=	0.0	137.6	20.0	100.7
=	0.0	138.4	20.0	100.7
=	0.0	139.2	20.0	100.7
=	0.0	140.0	20.0	100.7
=	0.0	140.7	20.0	100.7
=	0.0	141.5	20.0	100.6
=	0.0	142.2	20.0	100.6
=	0.0	143.0	20.0	100.5
=	0.0	143.7	20.0	100.5
=	0.0	144.5	20.0	100.5
=	0.0	145.2	20.0	100.5
=	0.0	145.9	20.0	100.5
=	0.0	146.4	20.0	100.5
=	0.0	146.9	20.0	100.5
=	0.0	147.6	20.0	100.5
=	0.0	148.1	20.0	100.5
=	0.0	148.6	20.0	100.4
=	0.0	149.1	20.0	100.4
=	0.0	149.6	20.0	100.4
=	0.0	150.1	20.0	100.4
=	0.0	150.6	20.0	100.4
=	0.0	151.2	20.0	100.3
=	0.0	151.6	20.0	100.3
=	0.0	152.1	20.0	100.3
=	0.0	152.6	20.0	100.3
=	0.0	153.1	20.0	100.3
=	0.0	153.8	20.0	100.3
=	0.0	154.5	20.0	100.3
=	0.0	155.0	20.0	100.3
=	0.0	155.6	20.0	100.2
=	0.0	156.1	20.0	100.2
=	0.0	156.8	20.0	100.2
=	0.0	157.6	20.0	100.2
=	0.0	158.3	20.0	100.2
=	0.0	159.0	20.0	100.1
=	0.0	159.5	20.0	100.1
=	0.0	160.0	20.0	100.1
=	0.0	160.5	20.0	100.1
=	0.0	161.0	20.0	100.1
=	0.0	161.9	20.0	100.0
=	0.0	162.6	20.0	100.0
=	0.0	163.3	20.0	100.0
=	0.0	164.1	20.0	100.0
=	0.0	164.8	20.0	99.9
=	0.0	165.6	20.0	99.9
=	0.0	166.4	20.0	99.8
=	0.0	167.1	20.0	99.8
=	0.0	167.9	20.0	99.7
=	0.0	168.6	20.0	99.7
=	0.0	169.4	20.0	99.7
=	0.0	170.1	20.0	99.7
=	0.0	170.9	20.0	99.6
=	0.0	171.6	20.0	99.6
=	0.0	172.4	20.0	99.6
=	0.0	173.2	20.0	99.5
=	0.0	173.9	20.0	99.5
=	0.0	174.7	20.0	99.4
=	0.0	175.4	20.0	99.4
=	0.0	176.2	20.0	99.4
=	0.0	177.0	20.0	99.3
=	0.0	177.7	20.0	99.3
=	0.0	178.4	20.0	99.2
=	0.0	179.2	20.0	99.1
=	0.0	180.0	20.0	99.1
=	0.0	180.9	20.0	99.0
=	0.0	182.4	20.0	98.8
=	0.0	183.9	20.0	98.7
=	0.0	185.4	20.0	98.5
=	0.0	186.9	20.0	98.3
=	0.0	188.5	20.0	98.0
=	0.0	190.0	20.0	97.7
=	0.0	191.5	20.0	97.3
=	0.0	193.0	20.0	96.8
=	0.0	194.5	20.0	96.0
=	0.0	196.0	20.0	94.8
=	0.0	197.5	20.0	92.4
=	0.0	199.0	20.0	87.9
=	0.0	200.5	20.0	80.0
=	0.0	202.0	20.0	68.6
=	0.0	203.6	20.0	55.1
=	0.0	205.1	20.0	41.8
=	0.0	206.4	20.0	32.1
=	0.0	207.2	20.0	27.0
=	0.0	208.2	20.0	22.5
=	0.0	209.6	20.0	18.3
=	0.0	211.1	20.0	15.7
=	0.0	212.4	20.0	14.3
=	0.0	213.2	20.0	13.8
=	0.0	214.2	20.0	13.3
=	0.0	215.1	20.0	12.9
=	0.0	216.4	20.0	12.5
=	0.0	217.3	20.0	12.3
=	0.0	218.6	20.0	12.0
=	0.0	219.7	20.0	11.7
=	0.0	220.4	20.0	11.6
=	0.0	221.2	20.0	11.5
=	0.0	222.0	20.0	11.4
=	0.0	222.7	20.0	11.3
=	0.0	223.5	20.0	11.2
=	0.0	224.3	20.0	11.0
=	0.0	225.0	20.0	10.9
=	0.0	225.8	20.0	10.8
=	0.0	226.5	20.0	10.7
=	0.0	227.3	20.0	10.6
=	0.0	228.0	20.0	10.5
=	0.0	228.8	20.0	10.4
=	0.0	229.5	20.0	10.3
=	0.0	230.3	20.0	10.2
=	0.0	231.0	20.0	10.1
=	0.0	231.8	20.0	10.0
=	0.0	232.5	20.0	9.9
=	0.0	233.3	20.0	9.8
=	0.0	234.0	20.0	9.7
=	0.0	234.9	20.0	9.6
=	0.0	236.0	20.0	9.5
=	0.0	236.8	20.0	9.4
=	0.0	237.6	20.0	9.4
=	0.0	238.4	20.0	9.3
=	0.0	239.1	20.0	9.2
=	0.0	239.8	20.0	9.2
=	0.0	240.6	20.0	9.1
=	0.0	241.3	20.0	9.0
=	0.0	242.1	20.0	8.9
=	0.0	242.8	20.0	8.9
=	0.0	243.6	20.0	8.8
=	0.0	244.4	20.0	8.7
=	0.0	245.1	20.0	8.7
=	0.0	245.8	20.0	8.6
=	0.0	246.6	20.0	8.5
=	0.0	247.3	20.0	8.5
=	0.0	248.0	20.0	8.4
=	0.0	248.5	20.0	8.4
=	0.0	249.0	20.0	8.4
=	0.0	249.5	20.0	8.3
=	0.0	250.0	20.0	8.2
=	0.0	250.5	20.0	8.2
=	0.0	251.0	20.0	8.2
=	0.0	251.5	20.0	8.1
=	0.0	252.0	20.0	8.1
=	0.0	252.5	20.0	8.0
=	0.0	253.0	20.0	8.0
=	0.0	253.5	20.0	7.9
=	0.0	254.0	20.0	7.9
=	0.0	254.5	20.0	7.9
=	0.0	255.0	20.0	7.9
=	0.0	255.5	20.0	7.8
=	0.0	256.0	20.0	7.8
=	0.0	256.5	20.0	7.7
=	0.0	257.0	20.0	7.7
=	0.0	257.5	20.0	7.7
=	0.0	258.1	20.0	7.6
=	0.0	258.5	20.0	7.6
=	0.0	259.1	20.0	7.6
=	0.0	259.6	20.0	7.6
=	0.0	260.1	20.0	7.5
=	0.0	260.6	20.0	7.5
=	0.0	261.1	20.0	7.5
=	0.0	261.6	20.0	7.4
=	0.0	262.1	20.0	7.4
=	0.0	262.8	20.0	7.4
=	0.0	263.5	20.0	7.3
=	0.0	264.2	20.0	7.3
=	0.0	265.0	20.0	7.2
=	0.0	265.8	20.0	7.2
=	0.0	266.6	20.0	7.1
=	0.0	267.8	20.0	7.1
=	0.0	268.7	20.0	7.0
=	0.0	269.5	20.0	7.0
=	0.0	270.2	20.0	7.0
=	0.0	271.0	20.0	6.9
=	0.0	271.7	20.0	6.9
=	0.0	272.5	20.0	6.9
=	0.0	273.2	20.0	6.8
=	0.0	273.8	20.0	6.8
:EOM # End of Measurement
#
# RFA300 ASCII Measurement Dump ( BDS format )
#
# Measurement number 	2
#
%VNR 1.0
%MOD 	RAT
%TYP 	SCN
%SCN 	PRO
%FLD 	ION
%DAT 	02-03-2012
%TIM 	12:00:00
%FSZ 	400	300
%BMT 	PHO	   8.0
%SSD 	1000
%BUP 	0
%BRD 	1000
%FSH 	1
%ASC 	0
%WEG 	15
%GPO 	0
%CPO 	0
%MEA 	6
%PRD 	50,0
%PTS 	782
%STS 	    0.0	  -283.2	   50.0 # Start Scan values in mm ( X , Y , Z )
%EDS 	    0.0	   283.0	   50.0 # End Scan values in mm ( X , Y , Z )
#
#	  X      Y      Z     Dose
#
=	0.0	-283.2	50.0	6.8
=	0.0	-282.5	50.0	6.8
=	0.0	-281.8	50.0	6.8
=	0.0	-281.2	50.0	6.9
=	0.0	-280.5	50.0	6.9
=	0.0	-279.9	50.0	6.9
=	0.0	-279.2	50.0	7.0
=	0.0	-278.5	50.0	7.0
=	0.0	-277.7	50.0	7.0
=	0.0	-276.9	50.0	7.1
=	0.0	-276.2	50.0	7.1
=	0.0	-275.4	50.0	7.2
=	0.0	-274.7	50.0	7.2
=	0.0	-273.9	50.0	7.3
=	0.0	-273.3	50.0	7.3
=	0.0	-272.8	50.0	7.4
=	0.0	-272.3	50.0	7.4
=	0.0	-271.7	50.0	7.4
=	0.0	-271.2	50.0	7.5
=	0.0	-270.7	50.0	7.5
=	0.0	-270.3	50.0	7.5
=	0.0	-269.7	50.0	7.5
=	0.0	-269.2	50.0	7.6
=	0.0	-268.7	50.0	7.6
=	0.0	-268.2	50.0	7.6
=	0.0	-267.4	50.0	7.7
=	0.0	-266.6	50.0	7.8
=	0.0	-265.9	50.0	7.8
=	0.0	-265.1	50.0	7.9
=	0.0	-264.4	50.0	7.9
=	0.0	-263.6	50.0	8.0
=	0.0	-262.9	50.0	8.0
=	0.0	-262.1	50.0	8.1
=	0.0	-261.3	50.0	8.1
=	0.0	-259.8	50.0	8.3
=	0.0	-258.3	50.0	8.4
=	0.0	-256.8	50.0	8.5
=	0.0	-255.3	50.0	8.7
=	0.0	-254.4	50.0	8.8
=	0.0	-253.6	50.0	8.8
=	0.0	-252.6	50.0	8.9
=	0.0	-251.8	50.0	9.0
=	0.0	-251.3	50.0	9.1
=	0.0	-250.6	50.0	9.1
=	0.0	-250.0	50.0	9.2
=	0.0	-249.3	50.0	9.3
=	0.0	-248.6	50.0	9.4
=	0.0	-248.1	50.0	9.4
=	0.0	-247.6	50.0	9.4
=	0.0	-247.1	50.0	9.5
=	0.0	-246.5	50.0	9.6
=	0.0	-245.7	50.0	9.7
=	0.0	-245.0	50.0	9.8
=	0.0	-244.2	50.0	9.8
=	0.0	-243.5	50.0	9.9
=	0.0	-242.7	50.0	10.0
=	0.0	-242.0	50.0	10.1
=	0.0	-241.2	50.0	10.2
=	0.0	-240.4	50.0	10.3
=	0.0	-239.7	50.0	10.4
=	0.0	-238.9	50.0	10.5
=	0.0	-238.2	50.0	10.6
=	0.0	-237.6	50.0	10.7
=	0.0	-236.9	50.0	10.8
=	0.0	-236.2	50.0	10.9
=	0.0	-235.4	50.0	11.1
=	0.0	-234.7	50.0	11.2
=	0.0	-233.9	50.0	11.3
=	0.0	-233.1	50.0	11.4
=	0.0	-232.4	50.0	11.5
=	0.0	-231.6	50.0	11.7
=	0.0	-230.9	50.0	11.8
=	0.0	-230.1	50.0	11.9
=	0.0	-229.4	50.0	12.1
=	0.0	-228.6	50.0	12.2
=	0.0	-227.9	50.0	12.4
=	0.0	-227.1	50.0	12.5
=	0.0	-226.4	50.0	12.7
=	0.0	-225.6	50.0	12.9
=	0.0	-224.9	50.0	13.1
=	0.0	-224.1	50.0	13.3
=	0.0	-223.4	50.0	13.5
=	0.0	-222.6	50.0	13.7
=	0.0	-221.8	50.0	14.0
=	0.0	-221.1	50.0	14.3
=	0.0	-220.3	50.0	14.6
=	0.0	-219.6	50.0	15.1
=	0.0	-218.8	50.0	15.6
=	0.0	-218.1	50.0	16.2
=	0.0	-217.5	50.0	16.9
=	0.0	-216.8	50.0	17.6
=	0.0	-216.3	50.0	18.5
=	0.0	-215.6	50.0	19.9
=	0.0	-215.1	50.0	21.2
=	0.0	-214.6	50.0	22.6
=	0.0	-213.8	50.0	25.6
=	0.0	-213.0	50.0	29.1
=	0.0	-212.3	50.0	33.3
=	0.0	-211.7	50.0	36.8
=	0.0	-211.1	50.0	41.5
=	0.0	-210.6	50.0	45.3
=	0.0	-210.0	50.0	49.6
=	0.0	-209.4	50.0	54.8
=	0.0	-208.7	50.0	60.0
=	0.0	-208.2	50.0	64.3
=	0.0	-207.7	50.0	68.1
=	0.0	-207.1	50.0	73.0
=	0.0	-206.5	50.0	76.4
=	0.0	-206.0	50.0	79.2
=	0.0	-205.5	50.0	81.6
=	0.0	-205.0	50.0	83.8
=	0.0	-204.5	50.0	85.6
=	0.0	-204.0	50.0	87.2
=	0.0	-203.5	50.0	88.4
=	0.0	-203.0	50.0	89.4
=	0.0	-202.5	50.0	90.2
=	0.0	-202.0	50.0	90.9
=	0.0	-201.3	50.0	91.7
=	0.0	-200.8	50.0	92.1
=	0.0	-200.2	50.0	92.6
=	0.0	-199.5	50.0	93.2
=	0.0	-198.8	50.0	93.6
=	0.0	-198.3	50.0	93.8
=	0.0	-197.8	50.0	94.0
=	0.0	-197.3	50.0	94.3
=	0.0	-196.7	50.0	94.5
=	0.0	-196.0	50.0	94.7
=	0.0	-195.2	50.0	95.0
=	0.0	-194.6	50.0	95.1
=	0.0	-194.0	50.0	95.2
=	0.0	-193.4	50.0	95.4
=	0.0	-192.7	50.0	95.6
=	0.0	-192.0	50.0	95.8
=	0.0	-191.5	50.0	95.9
=	0.0	-191.0	50.0	96.0
=	0.0	-190.5	50.0	96.1
=	0.0	-190.0	50.0	96.2
=	0.0	-189.2	50.0	96.3
=	0.0	-188.6	50.0	96.4
=	0.0	-188.1	50.0	96.4
=	0.0	-187.5	50.0	96.6
=	0.0	-186.7	50.0	96.6
=	0.0	-186.0	50.0	96.7
=	0.0	-185.4	50.0	96.8
=	0.0	-184.9	50.0	96.9
=	0.0	-184.2	50.0	97.0
=	0.0	-183.4	50.0	97.1
=	0.0	-182.7	50.0	97.2
=	0.0	-182.1	50.0	97.3
=	0.0	-181.4	50.0	97.4
=	0.0	-180.6	50.0	97.5
=	0.0	-179.9	50.0	97.5
=	0.0	-179.1	50.0	97.5
=	0.0	-178.4	50.0	97.6
=	0.0	-177.9	50.0	97.7
=	0.0	-177.4	50.0	97.7
=	0.0	-176.6	50.0	97.8
=	0.0	-175.9	50.0	97.8
=	0.0	-175.2	50.0	97.9
=	0.0	-174.6	50.0	97.9
=	0.0	-174.0	50.0	98.0
=	0.0	-173.5	50.0	98.0
=	0.0	-172.9	50.0	98.1
=	0.0	-172.1	50.0	98.2
=	0.0	-171.3	50.0	98.2
=	0.0	-170.6	50.0	98.2
=	0.0	-170.0	50.0	98.3
=	0.0	-169.4	50.0	98.3
=	0.0	-168.8	50.0	98.4
=	0.0	-168.0	50.0	98.4
=	0.0	-167.2	50.0	98.5
=	0.0	-166.5	50.0	98.5
=	0.0	-165.6	50.0	98.6
=	0.0	-164.3	50.0	98.6
=	0.0	-162.7	50.0	98.7
=	0.0	-161.6	50.0	98.8
=	0.0	-160.2	50.0	98.8
=	0.0	-159.3	50.0	98.9
=	0.0	-158.5	50.0	98.9
=	0.0	-157.8	50.0	98.9
=	0.0	-157.0	50.0	99.0
=	0.0	-156.2	50.0	99.0
=	0.0	-155.5	50.0	99.0
=	0.0	-154.7	50.0	99.1
=	0.0	-154.0	50.0	99.1
=	0.0	-153.2	50.0	99.2
=	0.0	-152.4	50.0	99.2
=	0.0	-151.6	50.0	99.2
=	0.0	-150.9	50.0	99.2
=	0.0	-150.1	50.0	99.2
=	0.0	-149.3	50.0	99.3
=	0.0	-148.6	50.0	99.3
=	0.0	-147.9	50.0	99.3
=	0.0	-147.1	50.0	99.4
=	0.0	-146.4	50.0	99.4
=	0.0	-145.5	50.0	99.4
=	0.0	-144.8	50.0	99.5
=	0.0	-144.0	50.0	99.5
=	0.0	-143.3	50.0	99.5
=	0.0	-142.5	50.0	99.6
=	0.0	-141.7	50.0	99.6
=	0.0	-140.9	50.0	99.6
=	0.0	-140.2	50.0	99.7
=	0.0	-139.4	50.0	99.7
=	0.0	-138.7	50.0	99.7
=	0.0	-137.9	50.0	99.7
=	0.0	-137.2	50.0	99.8
=	0.0	-136.4	50.0	99.8
=	0.0	-135.7	50.0	99.8
=	0.0	-134.9	50.0	99.8
=	0.0	-134.2	50.0	99.8
=	0.0	-133.4	50.0	99.8
=	0.0	-132.6	50.0	99.8
=	0.0	-131.8	50.0	99.8
=	0.0	-131.1	50.0	99.9
=	0.0	-130.3	50.0	99.9
=	0.0	-129.6	50.0	99.9
=	0.0	-128.8	50.0	99.9
=	0.0	-128.1	50.0	99.9
=	0.0	-127.3	50.0	99.9
=	0.0	-126.6	50.0	99.9
=	0.0	-125.8	50.0	100.0
=	0.0	-125.1	50.0	100.0
=	0.0	-124.3	50.0	100.0
=	0.0	-123.6	50.0	100.0
=	0.0	-122.8	50.0	100.0
=	0.0	-122.1	50.0	100.1
=	0.0	-121.3	50.0	100.1
=	0.0	-120.6	50.0	100.0
=	0.0	-119.8	50.0	100.1
=	0.0	-119.1	50.0	100.1
=	0.0	-118.3	50.0	100.1
=	0.0	-117.5	50.0	100.1
=	0.0	-116.8	50.0	100.1
=	0.0	-116.0	50.0	100.1
=	0.0	-115.3	50.0	100.2
=	0.0	-114.5	50.0	100.2
=	0.0	-113.7	50.0	100.2
=	0.0	-113.0	50.0	100.2
=	0.0	-112.2	50.0	100.2
=	0.0	-111.5	50.0	100.2
=	0.0	-110.7	50.0	100.2
=	0.0	-110.2	50.0	100.2
=	0.0	-109.4	50.0	100.2
=	0.0	-108.9	50.0	100.2
=	0.0	-108.4	50.0	100.3
=	0.0	-107.7	50.0	100.3
=	0.0	-107.0	50.0	100.3
=	0.0	-106.4	50.0	100.3
=	0.0	-105.7	50.0	100.3
=	0.0	-105.2	50.0	100.3
=	0.0	-104.4	50.0	100.3
=	0.0	-103.7	50.0	100.3
=	0.0	-102.9	50.0	100.3
=	0.0	-102.1	50.0	100.3
=	0.0	-101.4	50.0	100.3
=	0.0	-100.6	50.0	100.3
=	0.0	-99.9	50.0	100.3
=	0.0	-99.1	50.0	100.3
=	0.0	-98.3	50.0	100.4
=	0.0	-97.6	50.0	100.4
=	0.0	-96.8	50.0	100.4
=	0.0	-96.1	50.0	100.4
=	0.0	-95.3	50.0	100.4
=	0.0	-94.6	50.0	100.4
=	0.0	-93.8	50.0	100.4
=	0.0	-93.1	50.0	100.4
=	0.0	-92.3	50.0	100.4
=	0.0	-91.6	50.0	100.4
=	0.0	-90.8	50.0	100.5
=	0.0	-90.1	50.0	100.5
=	0.0	-89.3	50.0	100.5
=	0.0	-88.5	50.0	100.5
=	0.0	-88.0	50.0	100.5
=	0.0	-87.5	50.0	100.5
=	0.0	-87.0	50.0	100.5
=	0.0	-86.5	50.0	100.5
=	0.0	-85.7	50.0	100.5
=	0.0	-85.1	50.0	100.5
=	0.0	-84.6	50.0	100.5
=	0.0	-84.1	50.0	100.5
=	0.0	-83.6	50.0	100.5
=	0.0	-83.1	50.0	100.5
=	0.0	-82.6	50.0	100.5
=	0.0	-82.1	50.0	100.5
=	0.0	-81.6	50.0	100.5
=	0.0	-81.0	50.0	100.5
=	0.0	-80.4	50.0	100.5
=	0.0	-79.7	50.0	100.5
=	0.0	-79.0	50.0	100.5
=	0.0	-78.2	50.0	100.5
=	0.0	-77.7	50.0	100.5
=	0.0	-77.2	50.0	100.5
=	0.0	-76.5	50.0	100.5
=	0.0	-75.8	50.0	100.5
=	0.0	-75.0	50.0	100.5
=	0.0	-74.2	50.0	100.5
=	0.0	-73.4	50.0	100.5
=	0.0	-72.6	50.0	100.5
=	0.0	-71.6	50.0	100.5
=	0.0	-70.8	50.0	100.5
=	0.0	-69.3	50.0	100.5
=	0.0	-68.4	50.0	100.5
=	0.0	-67.2	50.0	100.5
=	0.0	-65.7	50.0	100.5
=	0.0	-64.8	50.0	100.5
=	0.0	-64.0	50.0	100.5
=	0.0	-63.3	50.0	100.5
=	0.0	-62.2	50.0	100.5
=	0.0	-61.0	50.0	100.5
=	0.0	-60.2	50.0	100.5
=	0.0	-59.3	50.0	100.5
=	0.0	-58.5	50.0	100.5
=	0.0	-57.7	50.0	100.5
=	0.0	-56.9	50.0	100.5
=	0.0	-56.2	50.0	100.5
=	0.0	-55.4	50.0	100.5
=	0.0	-54.6	50.0	100.4
=	0.0	-53.9	50.0	100.4
=	0.0	-53.1	50.0	100.4
=	0.0	-52.3	50.0	100.5
=	0.0	-51.5	50.0	100.5
=	0.0	-50.8	50.0	100.5
=	0.0	-50.0	50.0	100.5
=	0.0	-49.3	50.0	100.5
=	0.0	-48.5	50.0	100.5
=	0.0	-47.8	50.0	100.5
=	0.0	-47.0	50.0	100.4
=	0.0	-46.3	50.0	100.4
=	0.0	-45.5	50.0	100.4
=	0.0	-44.8	50.0	100.4
=	0.0	-44.0	50.0	100.4
=	0.0	-43.3	50.0	100.4
=	0.0	-42.4	50.0	100.4
=	0.0	-41.7	50.0	100.4
=	0.0	-40.9	50.0	100.4
=	0.0	-40.1	50.0	100.4
=	0.0	-39.0	50.0	100.4
=	0.0	-37.9	50.0	100.4
=	0.0	-37.2	50.0	100.4
=	0.0	-36.0	50.0	100.4
=	0.0	-34.5	50.0	100.3
=	0.0	-33.0	50.0	100.3
=	0.0	-31.5	50.0	100.3
=	0.0	-30.6	50.0	100.3
=	0.0	-29.8	50.0	100.3
=	0.0	-29.0	50.0	100.3
=	0.0	-28.2	50.0	100.3
=	0.0	-27.5	50.0	100.3
=	0.0	-26.7	50.0	100.2
=	0.0	-26.0	50.0	100.2
=	0.0	-25.2	50.0	100.2
=	0.0	-24.5	50.0	100.2
=	0.0	-23.7	50.0	100.2
=	0.0	-23.0	50.0	100.2
=	0.0	-22.3	50.0	100.2
=	0.0	-21.7	50.0	100.2
=	0.0	-21.2	50.0	100.2
=	0.0	-20.5	50.0	100.2
=	0.0	-20.0	50.0	100.2
=	0.0	-19.5	50.0	100.2
=	0.0	-18.7	50.0	100.2
=	0.0	-18.1	50.0	100.2
=	0.0	-17.6	50.0	100.2
=	0.0	-17.1	50.0	100.2
=	0.0	-16.6	50.0	100.1
=	0.0	-16.0	50.0	100.1
=	0.0	-15.2	50.0	100.1
=	0.0	-14.7	50.0	100.1
=	0.0	-14.2	50.0	100.1
=	0.0	-13.7	50.0	100.1
=	0.0	-13.2	50.0	100.1
=	0.0	-12.7	50.0	100.1
=	0.0	-12.2	50.0	100.1
=	0.0	-11.7	50.0	100.1
=	0.0	-11.2	50.0	100.1
=	0.0	-10.7	50.0	100.0
=	0.0	-9.9	50.0	100.0
=	0.0	-9.1	50.0	100.0
=	0.0	-8.4	50.0	100.0
=	0.0	-7.6	50.0	100.0
=	0.0	-6.9	50.0	100.0
=	0.0	-6.1	50.0	100.0
=	0.0	-5.4	50.0	100.0
=	0.0	-4.6	50.0	100.0
=	0.0	-3.9	50.0	100.0
=	0.0	-3.1	50.0	100.0
=	0.0	-2.4	50.0	100.0
=	0.0	-1.6	50.0	100.0
=	0.0	-0.9	50.0	100.0
=	0.0	-0.1	50.0	100.0
=	0.0	0.0	50.0	100.0
=	0.0	0.6	50.0	100.0
=	0.0	1.4	50.0	100.0
=	0.0	2.1	50.0	100.0
=	0.0	2.9	50.0	100.0
=	0.0	3.6	50.0	100.0
=	0.0	4.4	50.0	100.0
=	0.0	5.1	50.0	100.0
=	0.0	5.9	50.0	100.0
=	0.0	6.6	50.0	100.0
=	0.0	7.4	50.0	100.0
=	0.0	8.2	50.0	100.0
=	0.0	8.9	50.0	100.0
=	0.0	9.6	50.0	100.0
=	0.0	10.5	50.0	100.0
=	0.0	11.0	50.0	100.0
=	0.0	11.5	50.0	100.1
=	0.0	12.0	50.0	100.1
=	0.0	12.5	50.0	100.1
=	0.0	13.1	50.0	100.1
=	0.0	13.6	50.0	100.1
=	0.0	14.1	50.0	100.1
=	0.0	14.6	50.0	100.1
=	0.0	15.1	50.0	100.1
=	0.0	15.7	50.0	100.1
=	0.0	16.4	50.0	100.1
=	0.0	17.0	50.0	100.1
=	0.0	17.4	50.0	100.2
=	0.0	17.9	50.0	100.2
=	0.0	18.5	50.0	100.2
=	0.0	19.2	50.0	100.2
=	0.0	19.8	50.0	100.2
=	0.0	20.3	50.0	100.2
=	0.0	21.0	50.0	100.2
=	0.0	21.5	50.0	100.2
=	0.0	22.2	50.0	100.2
=	0.0	22.7	50.0	100.2
=	0.0	23.5	50.0	100.2
=	0.0	24.2	50.0	100.2
=	0.0	25.0	50.0	100.2
=	0.0	25.7	50.0	100.2
=	0.0	26.5	50.0	100.2
=	0.0	27.2	50.0	100.2
=	0.0	28.0	50.0	100.3
=	0.0	28.7	50.0	100.3
=	0.0	29.5	50.0	100.3
=	0.0	30.3	50.0	100.3
=	0.0	31.1	50.0	100.3
=	0.0	32.5	50.0	100.3
=	0.0	34.0	50.0	100.3
=	0.0	35.5	50.0	100.4
=	0.0	36.9	50.0	100.4
=	0.0	37.7	50.0	100.4
=	0.0	38.6	50.0	100.4
=	0.0	39.7	50.0	100.4
=	0.0	40.7	50.0	100.4
=	0.0	41.4	50.0	100.4
=	0.0	42.2	50.0	100.4
=	0.0	43.0	50.0	100.4
=	0.0	43.8	50.0	100.4
=	0.0	44.5	50.0	100.4
=	0.0	45.3	50.0	100.4
=	0.0	46.0	50.0	100.4
=	0.0	46.8	50.0	100.4
=	0.0	47.5	50.0	100.4
=	0.0	48.3	50.0	100.5
=	0.0	49.0	50.0	100.5
=	0.0	49.8	50.0	100.5
=	0.0	50.5	50.0	100.5
=	0.0	51.3	50.0	100.5
=	0.0	52.1	50.0	100.5
=	0.0	52.8	50.0	100.5
=	0.0	53.6	50.0	100.4
=	0.0	54.4	50.0	100.4
=	0.0	55.1	50.0	100.4
=	0.0	55.9	50.0	100.5
=	0.0	56.7	50.0	100.5
=	0.0	57.4	50.0	100.5
=	0.0	58.2	50.0	100.5
=	0.0	58.9	50.0	100.5
=	0.0	59.9	50.0	100.5
=	0.0	60.7	50.0	100.5
=	0.0	61.7	50.0	100.5
=	0.0	63.0	50.0	100.5
=	0.0	63.8	50.0	100.5
=	0.0	64.5	50.0	100.5
=	0.0	65.3	50.0	100.5
=	0.0	66.7	50.0	100.5
=	0.0	68.1	50.0	100.5
=	0.0	68.9	50.0	100.5
=	0.0	70.3	50.0	100.5
=	0.0	71.4	50.0	100.5
=	0.0	72.3	50.0	100.5
=	0.0	73.2	50.0	100.5
=	0.0	73.9	50.0	100.5
=	0.0	74.7	50.0	100.5
=	0.0	75.5	50.0	100.5
=	0.0	76.2	50.0	100.5
=	0.0	77.0	50.0	100.5
=	0.0	77.5	50.0	100.5
=	0.0	78.0	50.0	100.5
=	0.0	78.7	50.0	100.5
=	0.0	79.5	50.0	100.5
=	0.0	80.2	50.0	100.5
=	0.0	80.8	50.0	100.5
=	0.0	81.4	50.0	100.5
=	0.0	81.9	50.0	100.5
=	0.0	82.5	50.0	100.5
=	0.0	82.9	50.0	100.5
=	0.0	83.4	50.0	100.5
=	0.0	83.9	50.0	100.5
=	0.0	84.5	50.0	100.5
=	0.0	85.0	50.0	100.5
=	0.0	85.5	50.0	100.5
=	0.0	86.2	50.0	100.5
=	0.0	86.8	50.0	100.5
=	0.0	87.3	50.0	100.5
=	0.0	87.8	50.0	100.5
=	0.0	88.3	50.0	100.5
=	0.0	89.0	50.0	100.5
=	0.0	89.8	50.0	100.5
=	0.0	90.6	50.0	100.5
=	0.0	91.3	50.0	100.4
=	0.0	92.1	50.0	100.4
=	0.0	92.8	50.0	100.4
=	0.0	93.6	50.0	100.4
=	0.0	94.3	50.0	100.4
=	0.0	95.1	50.0	100.4
=	0.0	95.8	50.0	100.4
=	0.0	96.6	50.0	100.4
=	0.0	97.3	50.0	100.4
=	0.0	98.1	50.0	100.4
=	0.0	98.8	50.0	100.3
=	0.0	99.6	50.0	100.3
=	0.0	100.4	50.0	100.3
=	0.0	101.1	50.0	100.3
=	0.0	101.9	50.0	100.3
=	0.0	102.6	50.0	100.3
=	0.0	103.4	50.0	100.3
=	0.0	104.2	50.0	100.3
=	0.0	104.9	50.0	100.3
=	0.0	105.5	50.0	100.3
=	0.0	106.2	50.0	100.3
=	0.0	106.9	50.0	100.3
=	0.0	107.4	50.0	100.3
=	0.0	108.2	50.0	100.3
=	0.0	108.7	50.0	100.2
=	0.0	109.2	50.0	100.2
=	0.0	109.9	50.0	100.2
=	0.0	110.6	50.0	100.2
=	0.0	111.2	50.0	100.2
=	0.0	112.0	50.0	100.2
=	0.0	112.7	50.0	100.2
=	0.0	113.5	50.0	100.2
=	0.0	114.2	50.0	100.2
=	0.0	115.0	50.0	100.2
=	0.0	115.8	50.0	100.2
=	0.0	116.5	50.0	100.1
=	0.0	117.2	50.0	100.1
=	0.0	118.0	50.0	100.1
