:MSR 	5	 # No. of measurement in file
:SYS BDS 0   # Beam Data Scanner System
#
# RFA300 ASCII Measurement Dump ( BDS format )
#
# Measurement number 	1
#
%VNR 1.0
%MOD 	RAT
%TYP 	SCN
%SCN 	DPT
%FLD 	ION
%DAT 	02-03-2012
%TIM 	12:00:00
%FSZ 	040	040
%BMT 	PHO	   8.0
%SSD 	1200
%BUP 	0
%BRD 	1200
%FSH 	1
%ASC 	0
%WEG 	15
%GPO 	0
%CPO 	0
%MEA 	5
%PRD 	0,0
%PTS 	599
%STS 	    0.0	  0.0	   0.0 # Start Scan values in mm ( X , Y , Z )
%EDS 	    0.0	   0.0	   300.4 # End Scan values in mm ( X , Y , Z )
#
#	  X      Y      Z     Dose
#
=	0.0	0.0	0.0	35.7
=	0.0	0.0	0.5	37.5
=	0.0	0.0	0.9	39.3
=	0.0	0.0	1.2	41.5
=	0.0	0.0	1.8	46.3
=	0.0	0.0	2.6	53.7
=	0.0	0.0	3.4	60.6
=	0.0	0.0	4.2	66.8
=	0.0	0.0	4.8	71.2
=	0.0	0.0	5.4	74.6
=	0.0	0.0	6.2	78.7
=	0.0	0.0	7.0	82.1
=	0.0	0.0	7.9	85.3
=	0.0	0.0	8.6	87.8
=	0.0	0.0	9.5	90.0
=	0.0	0.0	10.3	92.0
=	0.0	0.0	11.1	93.6
=	0.0	0.0	11.9	94.9
=	0.0	0.0	12.7	95.9
=	0.0	0.0	13.1	96.6
=	0.0	0.0	13.6	97.1
=	0.0	0.0	14.0	97.5
=	0.0	0.0	14.4	97.8
=	0.0	0.0	14.8	98.1
=	0.0	0.0	15.2	98.5
=	0.0	0.0	15.6	98.8
=	0.0	0.0	16.0	99.0
=	0.0	0.0	16.4	99.2
=	0.0	0.0	16.8	99.4
=	0.0	0.0	17.3	99.5
=	0.0	0.0	17.6	99.6
=	0.0	0.0	18.0	99.7
=	0.0	0.0	18.4	99.8
=	0.0	0.0	18.8	99.9
=	0.0	0.0	19.3	100.0
=	0.0	0.0	19.7	100.0
=	0.0	0.0	20.1	100.0
=	0.0	0.0	20.5	100.0
=	0.0	0.0	20.9	100.0
=	0.0	0.0	21.3	100.0
=	0.0	0.0	21.7	100.0
=	0.0	0.0	22.1	99.9
=	0.0	0.0	22.5	99.9
=	0.0	0.0	23.0	99.8
=	0.0	0.0	23.4	99.7
=	0.0	0.0	23.8	99.6
=	0.0	0.0	24.2	99.5
=	0.0	0.0	24.5	99.3
=	0.0	0.0	24.9	99.2
=	0.0	0.0	25.4	99.2
=	0.0	0.0	25.8	99.1
=	0.0	0.0	26.2	98.9
=	0.0	0.0	26.8	98.8
=	0.0	0.0	27.4	98.6
=	0.0	0.0	27.8	98.4
=	0.0	0.0	28.4	98.2
=	0.0	0.0	29.2	98.0
=	0.0	0.0	29.6	97.8
=	0.0	0.0	30.0	97.6
=	0.0	0.0	30.5	97.4
=	0.0	0.0	31.2	97.1
=	0.0	0.0	31.7	96.9
=	0.0	0.0	32.1	96.8
=	0.0	0.0	32.5	96.6
=	0.0	0.0	32.9	96.5
=	0.0	0.0	33.6	96.2
=	0.0	0.0	34.1	95.9
=	0.0	0.0	34.5	95.7
=	0.0	0.0	34.9	95.5
=	0.0	0.0	35.7	95.2
=	0.0	0.0	36.5	94.9
=	0.0	0.0	37.3	94.6
=	0.0	0.0	38.2	94.2
=	0.0	0.0	39.0	93.9
=	0.0	0.0	39.6	93.6
=	0.0	0.0	40.0	93.5
=	0.0	0.0	40.6	93.3
=	0.0	0.0	41.2	93.0
=	0.0	0.0	41.7	92.8
=	0.0	0.0	42.0	92.7
=	0.0	0.0	42.6	92.4
=	0.0	0.0	43.1	92.2
=	0.0	0.0	43.5	92.1
=	0.0	0.0	43.9	91.9
=	0.0	0.0	44.6	91.3
=	0.0	0.0	45.3	91.1
=	0.0	0.0	45.7	91.0
=	0.0	0.0	46.1	90.9
=	0.0	0.0	46.6	90.7
=	0.0	0.0	47.1	90.4
=	0.0	0.0	47.8	90.2
=	0.0	0.0	48.3	90.0
=	0.0	0.0	48.7	89.8
=	0.0	0.0	49.3	89.5
=	0.0	0.0	49.7	89.3
=	0.0	0.0	50.1	89.1
=	0.0	0.0	50.6	88.9
=	0.0	0.0	51.0	88.7
=	0.0	0.0	51.4	88.6
=	0.0	0.0	51.7	88.5
=	0.0	0.0	52.2	88.3
=	0.0	0.0	52.6	88.2
=	0.0	0.0	53.0	87.9
=	0.0	0.0	53.4	87.8
=	0.0	0.0	53.8	87.7
=	0.0	0.0	54.2	87.5
=	0.0	0.0	54.6	87.3
=	0.0	0.0	55.0	87.2
=	0.0	0.0	55.4	87.0
=	0.0	0.0	55.8	86.8
=	0.0	0.0	56.2	86.6
=	0.0	0.0	56.6	86.5
=	0.0	0.0	57.0	86.3
=	0.0	0.0	57.4	86.2
=	0.0	0.0	57.8	86.0
=	0.0	0.0	58.3	85.8
=	0.0	0.0	58.7	85.6
=	0.0	0.0	59.1	85.3
=	0.0	0.0	59.5	85.2
=	0.0	0.0	59.9	85.0
=	0.0	0.0	60.3	84.9
=	0.0	0.0	60.7	84.8
=	0.0	0.0	61.1	84.7
=	0.0	0.0	61.5	84.5
=	0.0	0.0	61.9	84.2
=	0.0	0.0	62.3	84.1
=	0.0	0.0	62.7	83.9
=	0.0	0.0	63.1	83.8
=	0.0	0.0	63.5	83.7
=	0.0	0.0	63.9	83.5
=	0.0	0.0	64.3	83.2
=	0.0	0.0	64.7	83.1
=	0.0	0.0	65.2	83.0
=	0.0	0.0	65.5	82.9
=	0.0	0.0	65.9	82.7
=	0.0	0.0	66.3	82.5
=	0.0	0.0	66.7	82.4
=	0.0	0.0	67.1	82.3
=	0.0	0.0	67.5	82.1
=	0.0	0.0	68.0	81.9
=	0.0	0.0	68.4	81.7
=	0.0	0.0	68.8	81.5
=	0.0	0.0	69.1	81.3
=	0.0	0.0	69.5	81.2
=	0.0	0.0	70.0	81.1
=	0.0	0.0	70.4	81.0
=	0.0	0.0	70.8	80.8
=	0.0	0.0	71.2	80.6
=	0.0	0.0	71.6	80.4
=	0.0	0.0	72.0	80.3
=	0.0	0.0	72.4	80.1
=	0.0	0.0	72.8	80.0
=	0.0	0.0	73.2	79.8
=	0.0	0.0	73.6	79.6
=	0.0	0.0	74.0	79.5
=	0.0	0.0	74.4	79.3
=	0.0	0.0	74.8	79.1
=	0.0	0.0	75.2	78.9
=	0.0	0.0	75.6	78.8
=	0.0	0.0	76.0	78.7
=	0.0	0.0	76.4	78.6
=	0.0	0.0	76.8	78.5
=	0.0	0.0	77.2	78.3
=	0.0	0.0	77.6	78.1
=	0.0	0.0	78.0	77.9
=	0.0	0.0	78.4	77.8
=	0.0	0.0	78.9	77.7
=	0.0	0.0	79.3	77.5
=	0.0	0.0	79.6	77.2
=	0.0	0.0	80.0	77.1
=	0.0	0.0	80.4	77.0
=	0.0	0.0	80.9	76.9
=	0.0	0.0	81.3	76.7
=	0.0	0.0	81.7	76.6
=	0.0	0.0	82.1	76.4
=	0.0	0.0	82.5	76.2
=	0.0	0.0	82.9	76.1
=	0.0	0.0	83.3	76.0
=	0.0	0.0	83.7	75.8
=	0.0	0.0	84.1	75.7
=	0.0	0.0	84.5	75.5
=	0.0	0.0	84.9	75.4
=	0.0	0.0	85.3	75.3
=	0.0	0.0	85.7	75.1
=	0.0	0.0	86.1	74.9
=	0.0	0.0	86.6	74.7
=	0.0	0.0	87.0	74.5
=	0.0	0.0	87.6	74.4
=	0.0	0.0	88.0	74.2
=	0.0	0.0	88.6	74.1
=	0.0	0.0	89.2	73.7
=	0.0	0.0	89.6	73.6
=	0.0	0.0	90.0	73.4
=	0.0	0.0	90.4	73.4
=	0.0	0.0	91.0	73.1
=	0.0	0.0	91.4	72.9
=	0.0	0.0	91.8	72.8
=	0.0	0.0	92.2	72.7
=	0.0	0.0	92.8	72.3
=	0.0	0.0	93.2	72.1
=	0.0	0.0	93.6	72.0
=	0.0	0.0	94.2	71.8
=	0.0	0.0	94.6	71.7
=	0.0	0.0	95.1	71.6
=	0.0	0.0	95.8	71.4
=	0.0	0.0	96.3	71.2
=	0.0	0.0	97.1	70.8
=	0.0	0.0	97.9	70.5
=	0.0	0.0	98.7	70.2
=	0.0	0.0	99.5	69.9
=	0.0	0.0	100.3	69.6
=	0.0	0.0	101.1	69.5
=	0.0	0.0	101.8	69.2
=	0.0	0.0	102.3	69.0
=	0.0	0.0	103.1	68.8
=	0.0	0.0	103.6	68.6
=	0.0	0.0	104.0	68.4
=	0.0	0.0	104.4	68.3
=	0.0	0.0	104.8	68.2
=	0.0	0.0	105.2	68.1
=	0.0	0.0	105.6	68.0
=	0.0	0.0	106.0	67.8
=	0.0	0.0	106.4	67.7
=	0.0	0.0	106.8	67.5
=	0.0	0.0	107.2	67.4
=	0.0	0.0	107.6	67.3
=	0.0	0.0	108.0	67.1
=	0.0	0.0	108.4	66.9
=	0.0	0.0	108.8	66.8
=	0.0	0.0	109.2	66.7
=	0.0	0.0	109.6	66.6
=	0.0	0.0	110.0	66.4
=	0.0	0.0	110.5	66.2
=	0.0	0.0	110.9	66.1
=	0.0	0.0	111.3	65.9
=	0.0	0.0	111.5	65.9
=	0.0	0.0	111.8	65.8
=	0.0	0.0	112.1	65.7
=	0.0	0.0	112.3	65.6
=	0.0	0.0	112.7	65.5
=	0.0	0.0	113.1	65.4
=	0.0	0.0	113.5	65.3
=	0.0	0.0	113.9	65.2
=	0.0	0.0	114.3	65.0
=	0.0	0.0	114.7	64.9
=	0.0	0.0	115.1	64.8
=	0.0	0.0	115.5	64.6
=	0.0	0.0	115.8	64.5
=	0.0	0.0	116.1	64.4
=	0.0	0.0	116.5	64.3
=	0.0	0.0	116.8	64.2
=	0.0	0.0	117.2	64.1
=	0.0	0.0	117.5	64.0
=	0.0	0.0	117.9	63.8
=	0.0	0.0	118.1	63.6
=	0.0	0.0	118.6	63.5
=	0.0	0.0	118.9	63.5
=	0.0	0.0	119.2	63.5
=	0.0	0.0	119.6	63.4
=	0.0	0.0	120.0	63.2
=	0.0	0.0	120.4	63.1
=	0.0	0.0	120.6	63.0
=	0.0	0.0	121.0	62.8
=	0.0	0.0	121.2	62.7
=	0.0	0.0	121.5	62.7
=	0.0	0.0	121.8	62.6
=	0.0	0.0	122.0	62.5
=	0.0	0.0	122.4	62.4
=	0.0	0.0	122.8	62.4
=	0.0	0.0	123.1	62.3
=	0.0	0.0	123.4	62.2
=	0.0	0.0	123.6	62.1
=	0.0	0.0	123.9	62.0
=	0.0	0.0	124.2	61.9
=	0.0	0.0	124.6	61.7
=	0.0	0.0	124.8	61.6
=	0.0	0.0	125.1	61.6
=	0.0	0.0	125.4	61.5
=	0.0	0.0	125.7	61.4
=	0.0	0.0	125.9	61.3
=	0.0	0.0	126.3	61.2
=	0.0	0.0	126.7	61.1
=	0.0	0.0	127.1	61.0
=	0.0	0.0	127.5	60.8
=	0.0	0.0	127.9	60.6
=	0.0	0.0	128.3	60.5
=	0.0	0.0	128.7	60.4
=	0.0	0.0	129.1	60.4
=	0.0	0.0	129.5	60.2
=	0.0	0.0	129.9	60.1
=	0.0	0.0	130.2	60.0
=	0.0	0.0	130.6	59.9
=	0.0	0.0	130.9	59.8
=	0.0	0.0	131.3	59.7
=	0.0	0.0	131.8	59.6
=	0.0	0.0	132.1	59.4
=	0.0	0.0	132.6	59.3
=	0.0	0.0	132.9	59.2
=	0.0	0.0	133.2	59.1
=	0.0	0.0	133.5	59.0
=	0.0	0.0	134.0	58.8
=	0.0	0.0	134.4	58.7
=	0.0	0.0	134.7	58.6
=	0.0	0.0	135.1	58.5
=	0.0	0.0	135.6	58.4
=	0.0	0.0	136.0	58.3
=	0.0	0.0	136.2	58.2
=	0.0	0.0	136.5	58.1
=	0.0	0.0	136.8	58.0
=	0.0	0.0	137.0	57.9
=	0.0	0.0	137.4	57.8
=	0.0	0.0	137.7	57.8
=	0.0	0.0	138.0	57.7
=	0.0	0.0	138.4	57.6
=	0.0	0.0	138.8	57.5
=	0.0	0.0	139.0	57.3
=	0.0	0.0	139.3	57.2
=	0.0	0.0	139.6	57.2
=	0.0	0.0	139.8	57.1
=	0.0	0.0	140.2	57.0
=	0.0	0.0	140.6	56.9
=	0.0	0.0	140.9	56.8
=	0.0	0.0	141.2	56.8
=	0.0	0.0	141.6	56.6
=	0.0	0.0	142.0	56.4
=	0.0	0.0	142.3	56.4
=	0.0	0.0	142.6	56.4
=	0.0	0.0	142.9	56.3
=	0.0	0.0	143.2	56.2
=	0.0	0.0	143.5	56.1
=	0.0	0.0	143.8	56.0
=	0.0	0.0	144.0	55.9
=	0.0	0.0	144.3	55.8
=	0.0	0.0	144.5	55.8
=	0.0	0.0	144.8	55.7
=	0.0	0.0	145.1	55.6
=	0.0	0.0	145.5	55.5
=	0.0	0.0	145.9	55.5
=	0.0	0.0	146.1	55.4
=	0.0	0.0	146.5	55.2
=	0.0	0.0	146.9	55.1
=	0.0	0.0	147.3	55.0
=	0.0	0.0	147.7	54.8
=	0.0	0.0	148.1	54.7
=	0.0	0.0	148.5	54.6
=	0.0	0.0	148.9	54.5
=	0.0	0.0	149.3	54.4
=	0.0	0.0	149.7	54.4
=	0.0	0.0	150.1	54.3
=	0.0	0.0	150.6	54.2
=	0.0	0.0	151.0	54.0
=	0.0	0.0	151.2	53.9
=	0.0	0.0	151.5	53.8
=	0.0	0.0	151.9	53.7
=	0.0	0.0	152.4	53.6
=	0.0	0.0	152.8	53.5
=	0.0	0.0	153.1	53.4
=	0.0	0.0	153.5	53.3
=	0.0	0.0	153.9	53.2
=	0.0	0.0	154.3	53.1
=	0.0	0.0	155.0	52.9
=	0.0	0.0	155.9	52.7
=	0.0	0.0	156.6	52.6
=	0.0	0.0	157.4	52.3
=	0.0	0.0	157.9	52.2
=	0.0	0.0	158.7	52.0
=	0.0	0.0	159.4	51.8
=	0.0	0.0	159.9	51.7
=	0.0	0.0	160.7	51.4
=	0.0	0.0	161.5	51.2
=	0.0	0.0	162.3	51.0
=	0.0	0.0	163.1	50.8
=	0.0	0.0	163.9	50.6
=	0.0	0.0	164.7	50.4
=	0.0	0.0	165.2	50.3
=	0.0	0.0	165.6	50.2
=	0.0	0.0	166.0	50.1
=	0.0	0.0	166.4	50.0
=	0.0	0.0	166.8	49.8
=	0.0	0.0	167.2	49.8
=	0.0	0.0	167.6	49.7
=	0.0	0.0	168.0	49.5
=	0.0	0.0	168.4	49.4
=	0.0	0.0	168.8	49.4
=	0.0	0.0	169.2	49.3
=	0.0	0.0	169.6	49.2
=	0.0	0.0	170.0	49.1
=	0.0	0.0	170.4	49.1
=	0.0	0.0	170.8	48.9
=	0.0	0.0	171.3	48.8
=	0.0	0.0	171.7	48.7
=	0.0	0.0	172.1	48.6
=	0.0	0.0	172.5	48.5
=	0.0	0.0	172.9	48.4
=	0.0	0.0	173.3	48.3
=	0.0	0.0	173.7	48.2
=	0.0	0.0	174.1	48.1
=	0.0	0.0	174.5	48.0
=	0.0	0.0	174.9	47.9
=	0.0	0.0	175.3	47.8
=	0.0	0.0	175.7	47.7
=	0.0	0.0	176.1	47.6
=	0.0	0.0	176.5	47.5
=	0.0	0.0	176.9	47.4
=	0.0	0.0	177.3	47.3
=	0.0	0.0	177.8	47.2
=	0.0	0.0	178.2	47.1
=	0.0	0.0	178.6	47.0
=	0.0	0.0	179.0	47.0
=	0.0	0.0	179.3	46.9
=	0.0	0.0	179.8	46.8
=	0.0	0.0	180.2	46.7
=	0.0	0.0	180.6	46.6
=	0.0	0.0	181.0	46.5
=	0.0	0.0	181.6	46.3
=	0.0	0.0	182.4	46.1
=	0.0	0.0	183.2	45.9
=	0.0	0.0	184.0	45.7
=	0.0	0.0	184.8	45.5
=	0.0	0.0	185.3	45.4
=	0.0	0.0	186.0	45.3
=	0.0	0.0	186.9	45.1
=	0.0	0.0	187.7	44.9
=	0.0	0.0	188.5	44.8
=	0.0	0.0	189.3	44.6
=	0.0	0.0	189.8	44.5
=	0.0	0.0	190.5	44.3
=	0.0	0.0	191.3	44.1
=	0.0	0.0	191.6	44.0
=	0.0	0.0	192.0	43.9
=	0.0	0.0	192.5	43.8
=	0.0	0.0	192.9	43.7
=	0.0	0.0	193.3	43.6
=	0.0	0.0	193.9	43.4
=	0.0	0.0	194.3	43.4
=	0.0	0.0	194.9	43.4
=	0.0	0.0	195.7	43.2
=	0.0	0.0	196.5	43.0
=	0.0	0.0	197.4	42.8
=	0.0	0.0	198.2	42.6
=	0.0	0.0	198.6	42.5
=	0.0	0.0	199.0	42.5
=	0.0	0.0	199.8	42.3
=	0.0	0.0	200.6	42.1
=	0.0	0.0	201.4	41.9
=	0.0	0.0	201.9	41.8
=	0.0	0.0	202.3	41.8
=	0.0	0.0	202.7	41.7
=	0.0	0.0	203.1	41.6
=	0.0	0.0	203.5	41.5
=	0.0	0.0	204.2	41.4
=	0.0	0.0	205.0	41.2
=	0.0	0.0	205.8	41.0
=	0.0	0.0	206.6	40.9
=	0.0	0.0	207.4	40.7
=	0.0	0.0	208.2	40.6
=	0.0	0.0	209.0	40.4
=	0.0	0.0	209.8	40.2
=	0.0	0.0	210.3	40.1
=	0.0	0.0	211.0	40.0
=	0.0	0.0	211.8	39.8
=	0.0	0.0	212.6	39.7
=	0.0	0.0	213.5	39.5
=	0.0	0.0	214.3	39.3
=	0.0	0.0	215.1	39.2
=	0.0	0.0	215.9	39.0
=	0.0	0.0	216.7	38.8
=	0.0	0.0	217.5	38.7
=	0.0	0.0	218.3	38.5
=	0.0	0.0	219.1	38.4
=	0.0	0.0	219.9	38.3
=	0.0	0.0	220.7	38.1
=	0.0	0.0	221.5	37.9
=	0.0	0.0	222.3	37.8
=	0.0	0.0	223.1	37.7
=	0.0	0.0	223.7	37.6
=	0.0	0.0	224.1	37.5
=	0.0	0.0	224.5	37.4
=	0.0	0.0	224.9	37.3
=	0.0	0.0	225.3	37.3
=	0.0	0.0	225.7	37.1
=	0.0	0.0	226.1	37.1
=	0.0	0.0	226.5	37.0
=	0.0	0.0	226.9	37.0
=	0.0	0.0	227.3	36.8
=	0.0	0.0	227.7	36.8
=	0.0	0.0	228.1	36.8
=	0.0	0.0	228.5	36.7
=	0.0	0.0	228.9	36.6
=	0.0	0.0	229.3	36.5
=	0.0	0.0	229.7	36.4
=	0.0	0.0	230.1	36.4
=	0.0	0.0	230.5	36.3
=	0.0	0.0	230.9	36.3
=	0.0	0.0	231.6	36.1
=	0.0	0.0	232.4	35.9
=	0.0	0.0	233.2	35.8
=	0.0	0.0	234.0	35.7
=	0.0	0.0	234.8	35.5
=	0.0	0.0	235.7	35.4
=	0.0	0.0	236.1	35.3
=	0.0	0.0	236.5	35.3
=	0.0	0.0	237.3	35.1
=	0.0	0.0	238.1	35.0
=	0.0	0.0	238.9	34.8
=	0.0	0.0	239.7	34.7
=	0.0	0.0	240.4	34.6
=	0.0	0.0	241.3	34.4
=	0.0	0.0	242.1	34.3
=	0.0	0.0	242.9	34.1
=	0.0	0.0	243.7	34.0
=	0.0	0.0	244.5	33.9
=	0.0	0.0	245.3	33.8
=	0.0	0.0	246.1	33.6
=	0.0	0.0	246.7	33.5
=	0.0	0.0	247.3	33.4
=	0.0	0.0	248.1	33.3
=	0.0	0.0	248.9	33.1
=	0.0	0.0	249.7	33.0
=	0.0	0.0	250.5	32.9
=	0.0	0.0	251.4	32.8
=	0.0	0.0	252.2	32.6
=	0.0	0.0	253.0	32.5
=	0.0	0.0	253.8	32.4
=	0.0	0.0	254.6	32.2
=	0.0	0.0	255.4	32.1
=	0.0	0.0	256.2	32.0
=	0.0	0.0	257.0	31.9
=	0.0	0.0	257.8	31.7
=	0.0	0.0	258.6	31.6
=	0.0	0.0	259.4	31.5
=	0.0	0.0	260.2	31.4
=	0.0	0.0	261.0	31.2
=	0.0	0.0	261.8	31.1
=	0.0	0.0	262.6	31.0
=	0.0	0.0	263.2	30.9
=	0.0	0.0	263.6	30.8
=	0.0	0.0	264.0	30.8
=	0.0	0.0	264.6	30.7
=	0.0	0.0	265.4	30.6
=	0.0	0.0	266.2	30.5
=	0.0	0.0	267.0	30.3
=	0.0	0.0	267.7	30.2
=	0.0	0.0	268.1	30.2
=	0.0	0.0	268.6	30.1
=	0.0	0.0	269.5	30.0
=	0.0	0.0	270.2	29.8
=	0.0	0.0	271.0	29.7
=	0.0	0.0	271.9	29.6
=	0.0	0.0	272.7	29.5
=	0.0	0.0	273.5	29.4
=	0.0	0.0	274.3	29.3
=	0.0	0.0	275.1	29.2
=	0.0	0.0	275.9	29.1
=	0.0	0.0	276.7	28.9
=	0.0	0.0	277.5	28.8
=	0.0	0.0	278.3	28.7
=	0.0	0.0	279.1	28.6
=	0.0	0.0	279.9	28.5
=	0.0	0.0	280.7	28.4
=	0.0	0.0	281.5	28.3
=	0.0	0.0	282.3	28.1
=	0.0	0.0	283.1	28.1
=	0.0	0.0	284.0	27.9
=	0.0	0.0	284.8	27.8
=	0.0	0.0	285.6	27.7
=	0.0	0.0	286.4	27.6
=	0.0	0.0	286.8	27.6
=	0.0	0.0	287.2	27.5
=	0.0	0.0	287.8	27.4
=	0.0	0.0	288.2	27.4
=	0.0	0.0	288.8	27.3
=	0.0	0.0	289.6	27.2
=	0.0	0.0	290.4	27.1
=	0.0	0.0	291.1	27.0
=	0.0	0.0	291.5	26.9
=	0.0	0.0	291.9	26.9
=	0.0	0.0	292.3	26.9
=	0.0	0.0	292.7	26.8
=	0.0	0.0	293.1	26.7
=	0.0	0.0	293.5	26.7
=	0.0	0.0	293.9	26.6
=	0.0	0.0	294.3	26.5
=	0.0	0.0	294.7	26.5
=	0.0	0.0	295.1	26.4
=	0.0	0.0	295.5	26.4
=	0.0	0.0	295.9	26.4
=	0.0	0.0	296.3	26.3
=	0.0	0.0	296.7	26.3
=	0.0	0.0	297.1	26.2
=	0.0	0.0	297.5	26.2
=	0.0	0.0	298.0	26.1
=	0.0	0.0	298.4	26.1
=	0.0	0.0	298.7	26.1
=	0.0	0.0	299.1	26.0
=	0.0	0.0	299.4	26.0
=	0.0	0.0	299.7	25.9
=	0.0	0.0	300.0	25.9
=	0.0	0.0	300.4	25.8
:EOM # End of Measurement
#
# RFA300 ASCII Measurement Dump ( BDS format )
#
# Measurement number 	2
#
%VNR 1.0
%MOD 	RAT
%TYP 	SCN
%SCN 	DPT
%FLD 	ION
%DAT 	02-03-2012
%TIM 	12:00:00
%FSZ 	100	100
%BMT 	PHO	   8.0
%SSD 	1200
%BUP 	0
%BRD 	1200
%FSH 	1
%ASC 	0
%WEG 	15
%GPO 	0
%CPO 	0
%MEA 	5
%PRD 	0,0
%PTS 	764
%STS 	    0.0	  0.0	   0.0 # Start Scan values in mm ( X , Y , Z )
%EDS 	    0.0	   0.0	   300.3 # End Scan values in mm ( X , Y , Z )
#
#	  X      Y      Z     Dose
#
=	0.0	0.0	0.0	41.3
=	0.0	0.0	0.4	42.9
=	0.0	0.0	0.9	44.8
=	0.0	0.0	1.3	47.3
=	0.0	0.0	1.7	50.5
=	0.0	0.0	2.1	54.1
=	0.0	0.0	2.5	57.4
=	0.0	0.0	2.9	60.7
=	0.0	0.0	3.3	64.2
=	0.0	0.0	3.7	67.1
=	0.0	0.0	4.1	69.9
=	0.0	0.0	4.5	72.5
=	0.0	0.0	4.9	74.9
=	0.0	0.0	5.3	77.1
=	0.0	0.0	5.7	79.1
=	0.0	0.0	6.1	80.9
=	0.0	0.0	6.5	82.6
=	0.0	0.0	6.9	83.9
=	0.0	0.0	7.3	85.4
=	0.0	0.0	7.7	86.9
=	0.0	0.0	8.1	88.1
=	0.0	0.0	8.5	89.1
=	0.0	0.0	8.8	89.7
=	0.0	0.0	9.0	90.4
=	0.0	0.0	9.3	91.2
=	0.0	0.0	9.7	92.2
=	0.0	0.0	10.2	93.0
=	0.0	0.0	10.5	93.8
=	0.0	0.0	11.0	94.4
=	0.0	0.0	11.4	95.1
=	0.0	0.0	11.8	95.7
=	0.0	0.0	12.2	96.2
=	0.0	0.0	12.5	96.6
=	0.0	0.0	12.9	96.9
=	0.0	0.0	13.4	97.3
=	0.0	0.0	13.8	97.9
=	0.0	0.0	14.2	98.1
=	0.0	0.0	14.6	98.4
=	0.0	0.0	15.0	98.6
=	0.0	0.0	15.4	98.9
=	0.0	0.0	15.8	99.1
=	0.0	0.0	16.2	99.3
=	0.0	0.0	16.6	99.4
=	0.0	0.0	17.0	99.5
=	0.0	0.0	17.4	99.7
=	0.0	0.0	17.8	99.8
=	0.0	0.0	18.2	99.9
=	0.0	0.0	18.6	99.9
=	0.0	0.0	19.0	99.9
=	0.0	0.0	19.5	100.0
=	0.0	0.0	19.9	100.0
=	0.0	0.0	20.3	100.0
=	0.0	0.0	20.7	100.0
=	0.0	0.0	21.1	100.0
=	0.0	0.0	21.5	100.0
=	0.0	0.0	21.9	100.0
=	0.0	0.0	22.3	99.9
=	0.0	0.0	22.7	99.9
=	0.0	0.0	23.1	99.8
=	0.0	0.0	23.5	99.7
=	0.0	0.0	23.9	99.6
=	0.0	0.0	24.3	99.5
=	0.0	0.0	24.5	99.4
=	0.0	0.0	24.8	99.3
=	0.0	0.0	25.3	99.2
=	0.0	0.0	25.7	99.2
=	0.0	0.0	26.1	99.1
=	0.0	0.0	26.5	99.0
=	0.0	0.0	26.9	98.9
=	0.0	0.0	27.3	98.7
=	0.0	0.0	27.7	98.6
=	0.0	0.0	28.1	98.5
=	0.0	0.0	28.3	98.4
=	0.0	0.0	28.6	98.3
=	0.0	0.0	28.9	98.1
=	0.0	0.0	29.1	98.1
=	0.0	0.0	29.4	98.0
=	0.0	0.0	29.7	97.9
=	0.0	0.0	29.9	97.8
=	0.0	0.0	30.2	97.7
=	0.0	0.0	30.5	97.6
=	0.0	0.0	30.7	97.5
=	0.0	0.0	31.1	97.5
=	0.0	0.0	31.5	97.3
=	0.0	0.0	31.9	97.1
=	0.0	0.0	32.3	96.9
=	0.0	0.0	32.7	96.7
=	0.0	0.0	33.1	96.6
=	0.0	0.0	33.5	96.6
=	0.0	0.0	33.9	96.5
=	0.0	0.0	34.3	96.3
=	0.0	0.0	34.9	96.1
=	0.0	0.0	35.3	95.9
=	0.0	0.0	35.7	95.7
=	0.0	0.0	36.1	95.6
=	0.0	0.0	36.6	95.4
=	0.0	0.0	37.3	95.2
=	0.0	0.0	38.0	94.9
=	0.0	0.0	38.4	94.8
=	0.0	0.0	38.8	94.6
=	0.0	0.0	39.3	94.3
=	0.0	0.0	40.0	94.2
=	0.0	0.0	40.6	94.0
=	0.0	0.0	41.4	93.7
=	0.0	0.0	42.2	93.4
=	0.0	0.0	43.0	93.1
=	0.0	0.0	43.4	93.0
=	0.0	0.0	44.0	92.8
=	0.0	0.0	44.6	92.5
=	0.0	0.0	45.4	92.2
=	0.0	0.0	46.2	91.9
=	0.0	0.0	47.0	91.5
=	0.0	0.0	47.7	91.4
=	0.0	0.0	48.1	91.2
=	0.0	0.0	48.5	91.1
=	0.0	0.0	48.9	91.0
=	0.0	0.0	49.3	90.8
=	0.0	0.0	49.8	90.6
=	0.0	0.0	50.2	90.5
=	0.0	0.0	50.5	90.4
=	0.0	0.0	50.9	90.2
=	0.0	0.0	51.3	90.1
=	0.0	0.0	51.7	89.9
=	0.0	0.0	52.1	89.8
=	0.0	0.0	52.5	89.6
=	0.0	0.0	53.0	89.5
=	0.0	0.0	53.3	89.4
=	0.0	0.0	53.7	89.3
=	0.0	0.0	54.1	89.1
=	0.0	0.0	54.6	89.0
=	0.0	0.0	55.1	88.8
=	0.0	0.0	55.5	88.5
=	0.0	0.0	55.9	88.4
=	0.0	0.0	56.3	88.3
=	0.0	0.0	56.7	88.2
=	0.0	0.0	57.2	88.0
=	0.0	0.0	57.5	87.9
=	0.0	0.0	58.0	87.8
=	0.0	0.0	58.4	87.6
=	0.0	0.0	58.8	87.4
=	0.0	0.0	59.2	87.3
=	0.0	0.0	59.6	87.2
=	0.0	0.0	59.9	87.0
=	0.0	0.0	60.2	87.0
=	0.0	0.0	60.4	86.9
=	0.0	0.0	60.7	86.8
=	0.0	0.0	61.0	86.7
=	0.0	0.0	61.3	86.6
=	0.0	0.0	61.8	86.4
=	0.0	0.0	62.2	86.2
=	0.0	0.0	62.6	86.1
=	0.0	0.0	63.0	86.0
=	0.0	0.0	63.4	85.9
=	0.0	0.0	63.8	85.7
=	0.0	0.0	64.2	85.6
=	0.0	0.0	64.6	85.5
=	0.0	0.0	65.0	85.4
=	0.0	0.0	65.4	85.1
=	0.0	0.0	65.8	85.0
=	0.0	0.0	66.2	84.9
=	0.0	0.0	66.6	84.7
=	0.0	0.0	67.0	84.6
=	0.0	0.0	67.4	84.5
=	0.0	0.0	67.8	84.4
=	0.0	0.0	68.2	84.2
=	0.0	0.0	68.6	84.1
=	0.0	0.0	69.0	83.8
=	0.0	0.0	69.4	83.6
=	0.0	0.0	69.8	83.6
=	0.0	0.0	70.2	83.5
=	0.0	0.0	70.7	83.4
=	0.0	0.0	71.1	83.3
=	0.0	0.0	71.5	83.1
=	0.0	0.0	71.9	82.9
=	0.0	0.0	72.3	82.8
=	0.0	0.0	72.7	82.6
=	0.0	0.0	73.1	82.5
=	0.0	0.0	73.5	82.3
=	0.0	0.0	73.9	82.2
=	0.0	0.0	74.2	82.1
=	0.0	0.0	74.5	82.0
=	0.0	0.0	74.8	81.9
=	0.0	0.0	75.3	81.6
=	0.0	0.0	75.6	81.5
=	0.0	0.0	75.8	81.4
=	0.0	0.0	76.1	81.4
=	0.0	0.0	76.5	81.3
=	0.0	0.0	76.9	81.2
=	0.0	0.0	77.3	81.0
=	0.0	0.0	77.7	80.9
=	0.0	0.0	78.1	80.7
=	0.0	0.0	78.5	80.6
=	0.0	0.0	78.9	80.5
=	0.0	0.0	79.3	80.3
=	0.0	0.0	79.7	80.2
=	0.0	0.0	80.1	80.1
=	0.0	0.0	80.5	79.9
=	0.0	0.0	81.0	79.8
=	0.0	0.0	81.4	79.7
=	0.0	0.0	81.7	79.6
=	0.0	0.0	82.1	79.5
=	0.0	0.0	82.5	79.3
=	0.0	0.0	83.0	79.1
=	0.0	0.0	83.4	79.0
=	0.0	0.0	83.8	78.8
=	0.0	0.0	84.2	78.7
=	0.0	0.0	84.6	78.5
=	0.0	0.0	85.0	78.3
=	0.0	0.0	85.4	78.2
=	0.0	0.0	85.8	78.2
=	0.0	0.0	86.3	78.0
=	0.0	0.0	86.8	77.8
=	0.0	0.0	87.2	77.7
=	0.0	0.0	87.6	77.6
=	0.0	0.0	88.0	77.5
=	0.0	0.0	88.4	77.3
=	0.0	0.0	88.8	77.2
=	0.0	0.0	89.2	77.0
=	0.0	0.0	89.9	76.8
=	0.0	0.0	90.2	76.6
=	0.0	0.0	90.6	76.5
=	0.0	0.0	91.0	76.4
=	0.0	0.0	91.4	76.3
=	0.0	0.0	92.0	76.1
=	0.0	0.0	92.4	75.9
=	0.0	0.0	92.8	75.8
=	0.0	0.0	93.3	75.7
=	0.0	0.0	93.7	75.5
=	0.0	0.0	94.1	75.4
=	0.0	0.0	94.4	75.3
=	0.0	0.0	94.9	75.2
=	0.0	0.0	95.3	75.0
=	0.0	0.0	95.7	74.9
=	0.0	0.0	96.1	74.8
=	0.0	0.0	96.5	74.6
=	0.0	0.0	96.9	74.5
=	0.0	0.0	97.3	74.4
=	0.0	0.0	97.7	74.3
=	0.0	0.0	98.1	74.1
=	0.0	0.0	98.5	74.0
=	0.0	0.0	98.9	73.9
=	0.0	0.0	99.3	73.8
=	0.0	0.0	99.7	73.6
=	0.0	0.0	100.1	73.5
=	0.0	0.0	100.5	73.4
=	0.0	0.0	100.9	73.2
=	0.0	0.0	101.3	73.1
=	0.0	0.0	101.7	73.0
=	0.0	0.0	102.1	72.9
=	0.0	0.0	102.5	72.7
=	0.0	0.0	102.9	72.6
=	0.0	0.0	103.3	72.5
=	0.0	0.0	103.7	72.3
=	0.0	0.0	104.1	72.2
=	0.0	0.0	104.5	72.1
=	0.0	0.0	104.9	72.0
=	0.0	0.0	105.3	71.8
=	0.0	0.0	105.8	71.7
=	0.0	0.0	106.1	71.6
=	0.0	0.0	106.5	71.4
=	0.0	0.0	106.9	71.3
=	0.0	0.0	107.4	71.3
=	0.0	0.0	107.8	71.1
=	0.0	0.0	108.2	71.0
=	0.0	0.0	108.6	70.8
=	0.0	0.0	109.0	70.7
=	0.0	0.0	109.4	70.5
=	0.0	0.0	109.8	70.4
=	0.0	0.0	110.2	70.3
=	0.0	0.0	110.6	70.2
=	0.0	0.0	110.9	70.1
=	0.0	0.0	111.2	70.0
=	0.0	0.0	111.4	69.9
=	0.0	0.0	111.8	69.8
=	0.0	0.0	112.1	69.7
=	0.0	0.0	112.5	69.5
=	0.0	0.0	112.9	69.4
=	0.0	0.0	113.3	69.3
=	0.0	0.0	113.6	69.2
=	0.0	0.0	113.9	69.2
=	0.0	0.0	114.1	69.1
=	0.0	0.0	114.4	69.0
=	0.0	0.0	114.7	68.9
=	0.0	0.0	115.2	68.7
=	0.0	0.0	115.6	68.5
=	0.0	0.0	116.0	68.5
=	0.0	0.0	116.4	68.4
=	0.0	0.0	116.8	68.3
=	0.0	0.0	117.1	68.2
=	0.0	0.0	117.4	68.1
=	0.0	0.0	117.8	67.9
=	0.0	0.0	118.2	67.8
=	0.0	0.0	118.6	67.7
=	0.0	0.0	119.0	67.6
=	0.0	0.0	119.4	67.5
=	0.0	0.0	119.8	67.4
=	0.0	0.0	120.2	67.3
=	0.0	0.0	120.6	67.1
=	0.0	0.0	121.0	67.0
=	0.0	0.0	121.4	66.9
=	0.0	0.0	121.8	66.7
=	0.0	0.0	122.3	66.6
=	0.0	0.0	122.6	66.6
=	0.0	0.0	123.0	66.5
=	0.0	0.0	123.5	66.4
=	0.0	0.0	123.9	66.3
=	0.0	0.0	124.3	66.1
=	0.0	0.0	124.7	66.0
=	0.0	0.0	125.1	65.9
=	0.0	0.0	125.5	65.7
=	0.0	0.0	125.9	65.6
=	0.0	0.0	126.3	65.4
=	0.0	0.0	126.7	65.3
=	0.0	0.0	127.1	65.3
=	0.0	0.0	127.5	65.1
=	0.0	0.0	127.9	65.0
=	0.0	0.0	128.3	64.8
=	0.0	0.0	128.7	64.7
=	0.0	0.0	129.1	64.6
=	0.0	0.0	129.5	64.5
=	0.0	0.0	129.9	64.4
=	0.0	0.0	130.3	64.3
=	0.0	0.0	130.7	64.2
=	0.0	0.0	131.1	64.1
=	0.0	0.0	131.5	64.0
=	0.0	0.0	131.9	63.9
=	0.0	0.0	132.3	63.8
=	0.0	0.0	132.7	63.7
=	0.0	0.0	133.1	63.5
=	0.0	0.0	133.5	63.4
=	0.0	0.0	133.9	63.3
=	0.0	0.0	134.3	63.2
=	0.0	0.0	134.5	63.1
=	0.0	0.0	134.9	63.0
=	0.0	0.0	135.3	62.9
=	0.0	0.0	135.7	62.8
=	0.0	0.0	135.9	62.7
=	0.0	0.0	136.2	62.6
=	0.0	0.0	136.5	62.5
=	0.0	0.0	136.9	62.4
=	0.0	0.0	137.4	62.2
=	0.0	0.0	137.8	62.1
=	0.0	0.0	138.2	62.0
=	0.0	0.0	138.6	62.0
=	0.0	0.0	139.0	61.9
=	0.0	0.0	139.4	61.8
=	0.0	0.0	139.8	61.7
=	0.0	0.0	140.2	61.5
=	0.0	0.0	140.6	61.4
=	0.0	0.0	141.0	61.2
=	0.0	0.0	141.4	61.1
=	0.0	0.0	141.8	61.0
=	0.0	0.0	142.2	60.9
=	0.0	0.0	142.6	60.7
=	0.0	0.0	143.0	60.6
=	0.0	0.0	143.4	60.5
=	0.0	0.0	143.8	60.5
=	0.0	0.0	144.2	60.4
=	0.0	0.0	144.6	60.3
=	0.0	0.0	145.0	60.1
=	0.0	0.0	145.4	60.0
=	0.0	0.0	145.8	59.9
=	0.0	0.0	146.2	59.8
=	0.0	0.0	146.6	59.6
=	0.0	0.0	147.0	59.5
=	0.0	0.0	147.4	59.4
=	0.0	0.0	147.8	59.3
=	0.0	0.0	148.2	59.2
=	0.0	0.0	148.6	59.2
=	0.0	0.0	149.0	59.0
=	0.0	0.0	149.4	58.9
=	0.0	0.0	149.8	58.8
=	0.0	0.0	150.2	58.7
=	0.0	0.0	150.6	58.7
=	0.0	0.0	151.0	58.5
=	0.0	0.0	151.4	58.4
=	0.0	0.0	151.9	58.3
=	0.0	0.0	152.2	58.2
=	0.0	0.0	152.6	58.1
=	0.0	0.0	153.0	58.0
=	0.0	0.0	153.5	57.9
=	0.0	0.0	153.9	57.8
=	0.0	0.0	154.3	57.6
=	0.0	0.0	154.7	57.6
=	0.0	0.0	155.1	57.5
=	0.0	0.0	155.5	57.3
=	0.0	0.0	155.9	57.2
=	0.0	0.0	156.3	57.1
=	0.0	0.0	156.7	57.1
=	0.0	0.0	157.1	57.0
=	0.0	0.0	157.5	56.8
=	0.0	0.0	157.9	56.7
=	0.0	0.0	158.3	56.6
=	0.0	0.0	158.7	56.6
=	0.0	0.0	159.1	56.5
=	0.0	0.0	159.5	56.4
=	0.0	0.0	159.9	56.3
=	0.0	0.0	160.5	56.0
=	0.0	0.0	160.9	56.0
=	0.0	0.0	161.3	55.9
=	0.0	0.0	161.7	55.7
=	0.0	0.0	162.1	55.6
=	0.0	0.0	162.5	55.5
=	0.0	0.0	163.3	55.4
=	0.0	0.0	163.7	55.3
=	0.0	0.0	164.2	55.1
=	0.0	0.0	164.6	55.0
=	0.0	0.0	164.9	55.0
=	0.0	0.0	165.3	54.8
=	0.0	0.0	165.8	54.7
=	0.0	0.0	166.2	54.6
=	0.0	0.0	166.6	54.5
=	0.0	0.0	167.0	54.4
=	0.0	0.0	167.4	54.3
=	0.0	0.0	167.8	54.2
=	0.0	0.0	168.2	54.1
=	0.0	0.0	168.6	54.0
=	0.0	0.0	169.0	53.9
=	0.0	0.0	169.4	53.8
=	0.0	0.0	169.8	53.7
=	0.0	0.0	170.4	53.6
=	0.0	0.0	170.8	53.5
=	0.0	0.0	171.2	53.4
=	0.0	0.0	171.6	53.3
=	0.0	0.0	172.0	53.2
=	0.0	0.0	172.4	53.1
=	0.0	0.0	172.8	53.0
=	0.0	0.0	173.2	53.0
=	0.0	0.0	173.8	52.8
=	0.0	0.0	174.2	52.7
=	0.0	0.0	174.6	52.6
=	0.0	0.0	175.0	52.5
=	0.0	0.0	175.4	52.4
=	0.0	0.0	175.8	52.3
=	0.0	0.0	176.2	52.2
=	0.0	0.0	176.6	52.1
=	0.0	0.0	177.0	52.0
=	0.0	0.0	177.4	51.9
=	0.0	0.0	177.9	51.8
=	0.0	0.0	178.3	51.7
=	0.0	0.0	178.6	51.7
=	0.0	0.0	179.1	51.6
=	0.0	0.0	179.5	51.5
=	0.0	0.0	179.9	51.3
=	0.0	0.0	180.3	51.2
=	0.0	0.0	180.7	51.1
=	0.0	0.0	181.3	51.0
=	0.0	0.0	181.7	50.9
=	0.0	0.0	182.2	50.9
=	0.0	0.0	182.7	50.7
=	0.0	0.0	183.3	50.6
=	0.0	0.0	183.7	50.5
=	0.0	0.0	184.3	50.4
=	0.0	0.0	184.7	50.2
=	0.0	0.0	185.1	50.1
=	0.0	0.0	185.5	50.0
=	0.0	0.0	186.1	49.8
=	0.0	0.0	186.5	49.7
=	0.0	0.0	186.9	49.6
=	0.0	0.0	187.4	49.6
=	0.0	0.0	187.8	49.5
=	0.0	0.0	188.1	49.4
=	0.0	0.0	188.5	49.3
=	0.0	0.0	188.9	49.2
=	0.0	0.0	189.3	49.2
=	0.0	0.0	189.8	49.1
=	0.0	0.0	190.2	49.0
=	0.0	0.0	190.6	48.9
=	0.0	0.0	191.0	48.8
=	0.0	0.0	191.4	48.7
=	0.0	0.0	191.8	48.6
=	0.0	0.0	192.2	48.6
=	0.0	0.0	192.6	48.5
=	0.0	0.0	193.0	48.3
=	0.0	0.0	193.2	48.3
=	0.0	0.0	193.6	48.2
=	0.0	0.0	194.0	48.2
=	0.0	0.0	194.4	48.1
=	0.0	0.0	194.8	48.0
=	0.0	0.0	195.2	47.9
=	0.0	0.0	195.6	47.8
=	0.0	0.0	196.0	47.7
=	0.0	0.0	196.4	47.7
=	0.0	0.0	196.8	47.6
=	0.0	0.0	197.2	47.5
=	0.0	0.0	197.5	47.4
=	0.0	0.0	197.8	47.3
=	0.0	0.0	198.1	47.3
=	0.0	0.0	198.4	47.2
=	0.0	0.0	198.6	47.2
=	0.0	0.0	198.9	47.1
=	0.0	0.0	199.2	47.0
=	0.0	0.0	199.6	47.0
=	0.0	0.0	200.0	46.9
=	0.0	0.0	200.2	46.8
=	0.0	0.0	200.5	46.7
=	0.0	0.0	200.9	46.6
=	0.0	0.0	201.2	46.5
=	0.0	0.0	201.4	46.5
=	0.0	0.0	201.7	46.4
=	0.0	0.0	202.0	46.4
=	0.0	0.0	202.3	46.3
=	0.0	0.0	202.5	46.3
=	0.0	0.0	202.8	46.3
=	0.0	0.0	203.1	46.2
=	0.0	0.0	203.3	46.2
=	0.0	0.0	203.6	46.1
=	0.0	0.0	203.9	46.0
=	0.0	0.0	204.3	46.0
=	0.0	0.0	204.5	45.9
=	0.0	0.0	204.8	45.9
=	0.0	0.0	205.1	45.8
=	0.0	0.0	205.4	45.7
=	0.0	0.0	205.9	45.6
=	0.0	0.0	206.3	45.5
=	0.0	0.0	206.7	45.5
=	0.0	0.0	207.1	45.4
=	0.0	0.0	207.4	45.3
=	0.0	0.0	207.7	45.2
=	0.0	0.0	208.1	45.2
=	0.0	0.0	208.5	45.1
=	0.0	0.0	208.9	45.0
=	0.0	0.0	209.3	44.8
=	0.0	0.0	209.7	44.7
=	0.0	0.0	210.1	44.7
=	0.0	0.0	210.5	44.6
=	0.0	0.0	210.9	44.5
=	0.0	0.0	211.3	44.5
=	0.0	0.0	211.7	44.4
=	0.0	0.0	211.9	44.3
=	0.0	0.0	212.2	44.3
=	0.0	0.0	212.5	44.2
=	0.0	0.0	212.8	44.1
=	0.0	0.0	213.1	44.1
=	0.0	0.0	213.5	44.0
=	0.0	0.0	213.9	43.9
=	0.0	0.0	214.2	43.9
=	0.0	0.0	214.5	43.8
=	0.0	0.0	214.8	43.8
=	0.0	0.0	215.2	43.7
=	0.0	0.0	215.6	43.6
=	0.0	0.0	215.8	43.6
=	0.0	0.0	216.1	43.5
=	0.0	0.0	216.4	43.5
=	0.0	0.0	216.6	43.4
=	0.0	0.0	217.0	43.3
=	0.0	0.0	217.4	43.2
=	0.0	0.0	217.8	43.1
=	0.0	0.0	218.2	43.1
=	0.0	0.0	218.6	43.0
=	0.0	0.0	219.0	42.9
=	0.0	0.0	219.4	42.8
=	0.0	0.0	219.8	42.8
=	0.0	0.0	220.2	42.7
=	0.0	0.0	220.6	42.6
=	0.0	0.0	221.0	42.5
=	0.0	0.0	221.4	42.4
=	0.0	0.0	221.8	42.3
=	0.0	0.0	222.2	42.3
=	0.0	0.0	222.6	42.2
=	0.0	0.0	223.0	42.1
=	0.0	0.0	223.4	42.1
=	0.0	0.0	223.8	42.0
=	0.0	0.0	224.2	42.0
=	0.0	0.0	224.4	42.0
=	0.0	0.0	224.7	41.9
=	0.0	0.0	225.0	41.8
=	0.0	0.0	225.2	41.7
=	0.0	0.0	225.5	41.7
=	0.0	0.0	225.8	41.6
=	0.0	0.0	226.0	41.6
=	0.0	0.0	226.3	41.5
=	0.0	0.0	226.6	41.4
=	0.0	0.0	226.8	41.4
=	0.0	0.0	227.1	41.4
=	0.0	0.0	227.4	41.3
=	0.0	0.0	227.6	41.2
=	0.0	0.0	227.9	41.2
=	0.0	0.0	228.2	41.1
=	0.0	0.0	228.7	41.1
=	0.0	0.0	229.1	41.0
=	0.0	0.0	229.4	40.9
=	0.0	0.0	229.8	40.8
=	0.0	0.0	230.3	40.8
=	0.0	0.0	230.7	40.7
=	0.0	0.0	231.1	40.6
=	0.0	0.0	231.5	40.6
=	0.0	0.0	231.9	40.5
=	0.0	0.0	232.3	40.4
=	0.0	0.0	232.7	40.3
=	0.0	0.0	233.1	40.2
=	0.0	0.0	233.5	40.2
=	0.0	0.0	233.9	40.1
=	0.0	0.0	234.3	40.1
=	0.0	0.0	234.7	40.0
=	0.0	0.0	235.1	39.9
=	0.0	0.0	235.5	39.8
=	0.0	0.0	235.9	39.7
=	0.0	0.0	236.3	39.7
=	0.0	0.0	236.7	39.6
=	0.0	0.0	237.1	39.5
=	0.0	0.0	237.5	39.4
=	0.0	0.0	237.9	39.4
=	0.0	0.0	238.3	39.3
=	0.0	0.0	238.7	39.3
=	0.0	0.0	239.1	39.2
=	0.0	0.0	239.5	39.1
=	0.0	0.0	239.9	39.0
=	0.0	0.0	240.3	38.9
=	0.0	0.0	240.7	38.8
=	0.0	0.0	241.2	38.8
=	0.0	0.0	241.5	38.7
=	0.0	0.0	242.0	38.7
=	0.0	0.0	242.3	38.6
=	0.0	0.0	242.7	38.5
=	0.0	0.0	243.0	38.5
=	0.0	0.0	243.4	38.4
=	0.0	0.0	243.8	38.3
=	0.0	0.0	244.2	38.3
=	0.0	0.0	244.6	38.2
=	0.0	0.0	245.0	38.1
=	0.0	0.0	245.4	38.0
=	0.0	0.0	245.8	38.0
=	0.0	0.0	246.2	37.9
=	0.0	0.0	246.6	37.8
=	0.0	0.0	247.0	37.8
=	0.0	0.0	247.4	37.7
=	0.0	0.0	247.8	37.7
=	0.0	0.0	248.2	37.6
=	0.0	0.0	248.6	37.5
=	0.0	0.0	249.0	37.4
=	0.0	0.0	249.4	37.3
=	0.0	0.0	249.8	37.3
=	0.0	0.0	250.2	37.2
=	0.0	0.0	250.6	37.1
=	0.0	0.0	251.0	37.1
=	0.0	0.0	251.4	37.1
=	0.0	0.0	251.8	37.0
=	0.0	0.0	252.2	36.9
=	0.0	0.0	252.6	36.8
=	0.0	0.0	253.0	36.8
=	0.0	0.0	253.4	36.7
=	0.0	0.0	253.8	36.6
=	0.0	0.0	254.2	36.5
=	0.0	0.0	254.6	36.5
=	0.0	0.0	255.1	36.4
=	0.0	0.0	255.5	36.3
=	0.0	0.0	255.9	36.3
=	0.0	0.0	256.3	36.2
=	0.0	0.0	256.6	36.2
=	0.0	0.0	257.1	36.1
=	0.0	0.0	257.5	36.0
=	0.0	0.0	257.9	35.9
=	0.0	0.0	258.3	35.9
=	0.0	0.0	258.7	35.8
=	0.0	0.0	259.1	35.7
=	0.0	0.0	259.5	35.7
=	0.0	0.0	259.9	35.6
=	0.0	0.0	260.3	35.5
=	0.0	0.0	260.7	35.4
=	0.0	0.0	261.1	35.4
=	0.0	0.0	261.5	35.3
=	0.0	0.0	261.9	35.3
=	0.0	0.0	262.3	35.2
=	0.0	0.0	262.7	35.2
=	0.0	0.0	263.1	35.1
=	0.0	0.0	263.5	35.1
=	0.0	0.0	263.9	35.0
=	0.0	0.0	264.3	34.9
=	0.0	0.0	264.7	34.8
=	0.0	0.0	265.1	34.8
=	0.0	0.0	265.5	34.7
=	0.0	0.0	265.9	34.6
=	0.0	0.0	266.3	34.6
=	0.0	0.0	266.7	34.5
=	0.0	0.0	267.1	34.5
=	0.0	0.0	267.5	34.4
=	0.0	0.0	267.9	34.3
=	0.0	0.0	268.3	34.3
=	0.0	0.0	268.7	34.2
=	0.0	0.0	269.1	34.1
=	0.0	0.0	269.5	34.0
=	0.0	0.0	269.9	34.0
=	0.0	0.0	270.3	33.9
=	0.0	0.0	270.5	33.9
=	0.0	0.0	270.9	33.9
=	0.0	0.0	271.3	33.8
=	0.0	0.0	271.7	33.7
=	0.0	0.0	272.1	33.6
=	0.0	0.0	272.5	33.6
=	0.0	0.0	273.0	33.5
=	0.0	0.0	273.4	33.5
=	0.0	0.0	273.8	33.4
=	0.0	0.0	274.2	33.4
=	0.0	0.0	274.5	33.3
=	0.0	0.0	275.0	33.2
=	0.0	0.0	275.4	33.2
=	0.0	0.0	275.8	33.1
=	0.0	0.0	276.2	33.0
=	0.0	0.0	276.6	33.0
=	0.0	0.0	277.0	32.9
=	0.0	0.0	277.4	32.9
=	0.0	0.0	277.8	32.8
=	0.0	0.0	278.2	32.8
=	0.0	0.0	278.6	32.7
=	0.0	0.0	279.0	32.6
=	0.0	0.0	279.4	32.6
=	0.0	0.0	279.8	32.5
=	0.0	0.0	280.2	32.5
=	0.0	0.0	280.6	32.4
=	0.0	0.0	281.0	32.3
=	0.0	0.0	281.4	32.3
=	0.0	0.0	281.8	32.2
=	0.0	0.0	282.2	32.1
=	0.0	0.0	282.6	32.1
=	0.0	0.0	283.0	32.1
=	0.0	0.0	283.4	32.0
=	0.0	0.0	283.8	31.9
=	0.0	0.0	284.2	31.8
=	0.0	0.0	284.6	31.8
=	0.0	0.0	285.0	31.7
=	0.0	0.0	285.4	31.7
=	0.0	0.0	285.7	31.6
=	0.0	0.0	286.0	31.6
=	0.0	0.0	286.3	31.6
=	0.0	0.0	286.5	31.5
=	0.0	0.0	286.8	31.5
=	0.0	0.0	287.0	31.5
=	0.0	0.0	287.3	31.4
=	0.0	0.0	287.7	31.4
=	0.0	0.0	288.1	31.3
=	0.0	0.0	288.5	31.3
=	0.0	0.0	288.9	31.2
=	0.0	0.0	289.2	31.2
=	0.0	0.0	289.7	31.1
=	0.0	0.0	290.1	31.0
=	0.0	0.0	290.5	31.0
=	0.0	0.0	290.9	30.9
=	0.0	0.0	291.3	30.8
=	0.0	0.0	291.7	30.8
=	0.0	0.0	292.1	30.7
=	0.0	0.0	292.5	30.7
=	0.0	0.0	292.9	30.7
=	0.0	0.0	293.3	30.6
=	0.0	0.0	293.7	30.6
=	0.0	0.0	294.1	30.5
=	0.0	0.0	294.5	30.5
=	0.0	0.0	294.9	30.4
=	0.0	0.0	295.2	30.3
=	0.0	0.0	295.5	30.3
=	0.0	0.0	295.9	30.2
=	0.0	0.0	296.3	30.1
=	0.0	0.0	296.7	30.1
=	0.0	0.0	297.0	30.1
=	0.0	0.0	297.2	30.0
=	0.0	0.0	297.5	30.0
=	0.0	0.0	297.8	29.9
=	0.0	0.0	298.1	29.9
=	0.0	0.0	298.5	29.8
=	0.0	0.0	298.9	29.8
=	0.0	0.0	299.1	29.8
=	0.0	0.0	299.5	29.7
=	0.0	0.0	299.9	29.7
=	0.0	0.0	300.3	29.6
:EOM # End of Measurement
#
# RFA300 ASCII Measurement Dump ( BDS format )
#
# Measurement number 	3
#
%VNR 1.0
%MOD 	RAT
%TYP 	SCN
%SCN 	DPT
%FLD 	ION
%DAT 	02-03-2012
%TIM 	12:00:00
%FSZ 	200	200
%BMT 	PHO	   8.0
%SSD 	1200
%BUP 	0
%BRD 	1200
%FSH 	1
%ASC 	0
%WEG 	15
%GPO 	0
%CPO 	0
%MEA 	5
%PRD 	0,0
%PTS 	763
%STS 	    0.0	  0.0	   0.0 # Start Scan values in mm ( X , Y , Z )
%EDS 	    0.0	   0.0	   300.6 # End Scan values in mm ( X , Y , Z )
#
#	  X      Y      Z     Dose
#
=	0.0	0.0	0.0	49.4
=	0.0	0.0	0.3	50.4
=	0.0	0.0	0.6	51.8
=	0.0	0.0	1.0	53.7
=	0.0	0.0	1.5	56.6
=	0.0	0.0	1.9	59.6
=	0.0	0.0	2.3	62.9
=	0.0	0.0	2.7	65.9
=	0.0	0.0	3.1	68.9
=	0.0	0.0	3.5	71.7
=	0.0	0.0	3.9	74.3
=	0.0	0.0	4.2	75.8
=	0.0	0.0	4.5	77.7
=	0.0	0.0	4.9	79.7
=	0.0	0.0	5.3	81.7
=	0.0	0.0	5.7	83.4
=	0.0	0.0	6.1	84.9
=	0.0	0.0	6.5	86.4
