:MSR 	20	 # No. of measurement in file
:SYS BDS 0   # Beam Data Scanner System
#
# RFA300 ASCII Measurement Dump ( BDS format )
#
# Measurement number 	1
#
%VNR 1.0
%MOD 	RAT
%TYP 	SCN
%SCN 	PRO
%FLD 	ION
%DAT 	02-02-2012
%TIM 	12:00:00
%FSZ 	040	040
%BMT 	PHO	   8.0
%SSD 	1000
%BUP 	0
%BRD 	1000
%FSH 	1
%ASC 	0
%WEG 	45
%GPO 	0
%CPO 	0
%MEA 	6
%PRD 	20,0
%PTS 	603
%STS 	    -70.4	  0.0	   20.0 # Start Scan values in mm ( X , Y , Z )
%EDS 	    70.3	   0.0	   20.0 # End Scan values in mm ( X , Y , Z )
#
#	  X      Y      Z     Dose
#
=	-70.4	0.0	20.0	0.9
=	-70.0	0.0	20.0	0.9
=	-69.9	0.0	20.0	0.9
=	-69.6	0.0	20.0	0.9
=	-69.1	0.0	20.0	1.0
=	-69.0	0.0	20.0	1.0
=	-68.8	0.0	20.0	1.0
=	-68.5	0.0	20.0	1.0
=	-68.4	0.0	20.0	1.0
=	-68.0	0.0	20.0	1.0
=	-67.8	0.0	20.0	1.0
=	-67.6	0.0	20.0	1.0
=	-67.3	0.0	20.0	1.0
=	-67.2	0.0	20.0	1.0
=	-67.0	0.0	20.0	1.0
=	-66.8	0.0	20.0	1.0
=	-66.5	0.0	20.0	1.0
=	-66.4	0.0	20.0	1.0
=	-66.1	0.0	20.0	1.0
=	-66.0	0.0	20.0	1.0
=	-65.7	0.0	20.0	1.0
=	-65.5	0.0	20.0	1.0
=	-65.3	0.0	20.0	1.0
=	-65.0	0.0	20.0	1.0
=	-64.9	0.0	20.0	1.0
=	-64.5	0.0	20.0	1.0
=	-64.1	0.0	20.0	1.1
=	-63.9	0.0	20.0	1.1
=	-63.7	0.0	20.0	1.1
=	-63.4	0.0	20.0	1.1
=	-63.3	0.0	20.0	1.1
=	-62.9	0.0	20.0	1.1
=	-62.4	0.0	20.0	1.1
=	-62.1	0.0	20.0	1.1
=	-61.9	0.0	20.0	1.1
=	-61.7	0.0	20.0	1.1
=	-61.4	0.0	20.0	1.1
=	-61.0	0.0	20.0	1.1
=	-60.9	0.0	20.0	1.1
=	-60.6	0.0	20.0	1.1
=	-60.4	0.0	20.0	1.1
=	-60.2	0.0	20.0	1.1
=	-60.0	0.0	20.0	1.1
=	-59.6	0.0	20.0	1.1
=	-59.4	0.0	20.0	1.1
=	-59.3	0.0	20.0	1.1
=	-58.9	0.0	20.0	1.1
=	-58.6	0.0	20.0	1.1
=	-58.4	0.0	20.0	1.1
=	-58.2	0.0	20.0	1.1
=	-57.9	0.0	20.0	1.1
=	-57.8	0.0	20.0	1.1
=	-57.5	0.0	20.0	1.1
=	-57.4	0.0	20.0	1.1
=	-57.1	0.0	20.0	1.2
=	-56.9	0.0	20.0	1.2
=	-56.7	0.0	20.0	1.2
=	-56.4	0.0	20.0	1.2
=	-55.9	0.0	20.0	1.2
=	-55.5	0.0	20.0	1.2
=	-55.4	0.0	20.0	1.2
=	-55.2	0.0	20.0	1.2
=	-54.9	0.0	20.0	1.2
=	-54.5	0.0	20.0	1.2
=	-54.3	0.0	20.0	1.2
=	-54.0	0.0	20.0	1.2
=	-53.9	0.0	20.0	1.2
=	-53.6	0.0	20.0	1.2
=	-53.4	0.0	20.0	1.2
=	-53.2	0.0	20.0	1.2
=	-52.9	0.0	20.0	1.2
=	-52.5	0.0	20.0	1.2
=	-52.3	0.0	20.0	1.2
=	-52.1	0.0	20.0	1.2
=	-51.9	0.0	20.0	1.2
=	-51.7	0.0	20.0	1.3
=	-51.4	0.0	20.0	1.3
=	-50.9	0.0	20.0	1.3
=	-50.8	0.0	20.0	1.3
=	-50.5	0.0	20.0	1.3
=	-50.3	0.0	20.0	1.3
=	-50.1	0.0	20.0	1.3
=	-49.9	0.0	20.0	1.3
=	-49.7	0.0	20.0	1.3
=	-49.4	0.0	20.0	1.3
=	-48.9	0.0	20.0	1.4
=	-48.8	0.0	20.0	1.4
=	-48.5	0.0	20.0	1.4
=	-48.3	0.0	20.0	1.4
=	-48.2	0.0	20.0	1.4
=	-48.1	0.0	20.0	1.4
=	-47.8	0.0	20.0	1.4
=	-47.7	0.0	20.0	1.4
=	-47.3	0.0	20.0	1.4
=	-46.9	0.0	20.0	1.4
=	-46.8	0.0	20.0	1.4
=	-46.5	0.0	20.0	1.4
=	-46.3	0.0	20.0	1.4
=	-46.2	0.0	20.0	1.5
=	-46.1	0.0	20.0	1.5
=	-45.8	0.0	20.0	1.5
=	-45.7	0.0	20.0	1.5
=	-45.4	0.0	20.0	1.5
=	-45.3	0.0	20.0	1.5
=	-45.1	0.0	20.0	1.5
=	-44.8	0.0	20.0	1.5
=	-44.7	0.0	20.0	1.5
=	-44.3	0.0	20.0	1.5
=	-43.9	0.0	20.0	1.5
=	-43.7	0.0	20.0	1.6
=	-43.5	0.0	20.0	1.6
=	-43.3	0.0	20.0	1.6
=	-43.1	0.0	20.0	1.6
=	-42.8	0.0	20.0	1.6
=	-42.4	0.0	20.0	1.6
=	-42.2	0.0	20.0	1.6
=	-42.0	0.0	20.0	1.6
=	-41.8	0.0	20.0	1.6
=	-41.7	0.0	20.0	1.6
=	-41.3	0.0	20.0	1.7
=	-40.8	0.0	20.0	1.7
=	-40.7	0.0	20.0	1.7
=	-40.4	0.0	20.0	1.7
=	-40.3	0.0	20.0	1.7
=	-40.2	0.0	20.0	1.8
=	-40.0	0.0	20.0	1.8
=	-39.8	0.0	20.0	1.8
=	-39.6	0.0	20.0	1.8
=	-39.3	0.0	20.0	1.8
=	-39.2	0.0	20.0	1.8
=	-38.8	0.0	20.0	1.8
=	-38.7	0.0	20.0	1.9
=	-38.4	0.0	20.0	1.9
=	-38.2	0.0	20.0	1.9
=	-38.0	0.0	20.0	1.9
=	-37.8	0.0	20.0	1.9
=	-37.6	0.0	20.0	1.9
=	-37.2	0.0	20.0	2.0
=	-37.1	0.0	20.0	2.0
=	-36.8	0.0	20.0	2.0
=	-36.6	0.0	20.0	2.0
=	-36.4	0.0	20.0	2.0
=	-36.2	0.0	20.0	2.0
=	-36.1	0.0	20.0	2.1
=	-35.7	0.0	20.0	2.1
=	-35.3	0.0	20.0	2.2
=	-35.1	0.0	20.0	2.2
=	-34.9	0.0	20.0	2.2
=	-34.7	0.0	20.0	2.3
=	-34.5	0.0	20.0	2.3
=	-34.2	0.0	20.0	2.3
=	-34.1	0.0	20.0	2.4
=	-33.7	0.0	20.0	2.4
=	-33.6	0.0	20.0	2.4
=	-33.4	0.0	20.0	2.5
=	-33.2	0.0	20.0	2.5
=	-32.9	0.0	20.0	2.5
=	-32.7	0.0	20.0	2.6
=	-32.5	0.0	20.0	2.7
=	-32.2	0.0	20.0	2.7
=	-32.1	0.0	20.0	2.7
=	-31.8	0.0	20.0	2.8
=	-31.6	0.0	20.0	2.8
=	-31.4	0.0	20.0	2.9
=	-31.2	0.0	20.0	3.0
=	-31.1	0.0	20.0	3.0
=	-30.7	0.0	20.0	3.1
=	-30.6	0.0	20.0	3.2
=	-30.2	0.0	20.0	3.3
=	-30.1	0.0	20.0	3.4
=	-29.8	0.0	20.0	3.5
=	-29.6	0.0	20.0	3.6
=	-29.4	0.0	20.0	3.7
=	-29.2	0.0	20.0	3.9
=	-29.0	0.0	20.0	3.9
=	-28.7	0.0	20.0	4.2
=	-28.5	0.0	20.0	4.3
=	-28.2	0.0	20.0	4.5
=	-28.0	0.0	20.0	4.7
=	-27.8	0.0	20.0	4.9
=	-27.7	0.0	20.0	5.0
=	-27.5	0.0	20.0	5.2
=	-27.4	0.0	20.0	5.3
=	-27.2	0.0	20.0	5.5
=	-27.0	0.0	20.0	5.7
=	-26.7	0.0	20.0	6.2
=	-26.5	0.0	20.0	6.5
=	-26.2	0.0	20.0	7.0
=	-26.1	0.0	20.0	7.2
=	-25.8	0.0	20.0	7.8
=	-25.6	0.0	20.0	8.4
=	-25.4	0.0	20.0	8.9
=	-25.0	0.0	20.0	9.8
=	-24.9	0.0	20.0	10.1
=	-24.6	0.0	20.0	11.4
=	-24.4	0.0	20.0	11.9
=	-24.2	0.0	20.0	13.1
=	-24.0	0.0	20.0	13.9
=	-23.8	0.0	20.0	15.0
=	-23.5	0.0	20.0	16.4
=	-23.4	0.0	20.0	17.1
=	-23.2	0.0	20.0	18.6
=	-23.1	0.0	20.0	19.7
=	-22.9	0.0	20.0	20.8
=	-22.6	0.0	20.0	23.2
=	-22.4	0.0	20.0	25.3
=	-22.2	0.0	20.0	27.2
=	-21.9	0.0	20.0	30.2
=	-21.8	0.0	20.0	31.4
=	-21.5	0.0	20.0	35.2
=	-21.3	0.0	20.0	37.4
=	-21.0	0.0	20.0	40.1
=	-20.9	0.0	20.0	41.6
=	-20.8	0.0	20.0	43.2
=	-20.6	0.0	20.0	45.4
=	-20.4	0.0	20.0	47.9
=	-20.3	0.0	20.0	49.4
=	-19.9	0.0	20.0	54.1
=	-19.8	0.0	20.0	55.7
=	-19.4	0.0	20.0	60.1
=	-19.3	0.0	20.0	62.3
=	-19.0	0.0	20.0	65.2
=	-18.9	0.0	20.0	66.8
=	-18.8	0.0	20.0	68.5
=	-18.7	0.0	20.0	69.7
=	-18.4	0.0	20.0	72.8
=	-18.3	0.0	20.0	73.9
=	-17.9	0.0	20.0	78.1
=	-17.4	0.0	20.0	82.9
=	-17.3	0.0	20.0	84.3
=	-17.0	0.0	20.0	86.4
=	-16.9	0.0	20.0	87.7
=	-16.7	0.0	20.0	88.8
=	-16.6	0.0	20.0	89.7
=	-16.4	0.0	20.0	91.5
=	-16.2	0.0	20.0	92.5
=	-15.9	0.0	20.0	94.3
=	-15.8	0.0	20.0	94.9
=	-15.5	0.0	20.0	96.4
=	-15.2	0.0	20.0	97.2
=	-14.9	0.0	20.0	98.2
=	-14.7	0.0	20.0	98.5
=	-14.4	0.0	20.0	99.5
=	-14.2	0.0	20.0	99.9
=	-13.9	0.0	20.0	100.5
=	-13.6	0.0	20.0	101.0
=	-13.5	0.0	20.0	101.1
=	-13.1	0.0	20.0	101.3
=	-12.9	0.0	20.0	101.5
=	-12.7	0.0	20.0	101.7
=	-12.4	0.0	20.0	102.0
=	-11.9	0.0	20.0	102.3
=	-11.5	0.0	20.0	102.4
=	-11.3	0.0	20.0	102.5
=	-11.1	0.0	20.0	102.5
=	-10.9	0.0	20.0	102.5
=	-10.7	0.0	20.0	102.5
=	-10.4	0.0	20.0	102.6
=	-10.3	0.0	20.0	102.6
=	-9.9	0.0	20.0	102.6
=	-9.5	0.0	20.0	102.6
=	-9.4	0.0	20.0	102.6
=	-9.1	0.0	20.0	102.6
=	-8.9	0.0	20.0	102.6
=	-8.7	0.0	20.0	102.6
=	-8.4	0.0	20.0	102.5
=	-8.0	0.0	20.0	102.5
=	-7.9	0.0	20.0	102.5
=	-7.6	0.0	20.0	102.4
=	-7.4	0.0	20.0	102.4
=	-7.1	0.0	20.0	102.3
=	-6.9	0.0	20.0	102.3
=	-6.7	0.0	20.0	102.3
=	-6.4	0.0	20.0	102.2
=	-5.9	0.0	20.0	102.0
=	-5.5	0.0	20.0	101.9
=	-5.4	0.0	20.0	101.8
=	-5.1	0.0	20.0	101.8
=	-4.9	0.0	20.0	101.7
=	-4.7	0.0	20.0	101.7
=	-4.4	0.0	20.0	101.5
=	-4.0	0.0	20.0	101.4
=	-3.8	0.0	20.0	101.3
=	-3.6	0.0	20.0	101.3
=	-3.3	0.0	20.0	101.2
=	-3.2	0.0	20.0	101.1
=	-2.8	0.0	20.0	101.0
=	-2.4	0.0	20.0	100.9
=	-2.0	0.0	20.0	100.8
=	-1.8	0.0	20.0	100.7
=	-1.6	0.0	20.0	100.7
=	-1.3	0.0	20.0	100.6
=	-1.2	0.0	20.0	100.6
=	-0.8	0.0	20.0	100.5
=	-0.4	0.0	20.0	100.2
=	-0.3	0.0	20.0	100.1
=	0.0	0.0	20.0	100.0
=	0.2	0.0	20.0	99.9
=	0.4	0.0	20.0	99.8
=	0.7	0.0	20.0	99.7
=	0.8	0.0	20.0	99.6
=	1.2	0.0	20.0	99.6
=	1.6	0.0	20.0	99.5
=	2.1	0.0	20.0	99.3
=	2.2	0.0	20.0	99.2
=	2.4	0.0	20.0	99.1
=	2.7	0.0	20.0	99.0
=	3.2	0.0	20.0	98.8
=	3.3	0.0	20.0	98.7
=	3.6	0.0	20.0	98.6
=	3.7	0.0	20.0	98.5
=	4.0	0.0	20.0	98.4
=	4.2	0.0	20.0	98.3
=	4.7	0.0	20.0	98.1
=	5.1	0.0	20.0	97.9
=	5.2	0.0	20.0	97.8
=	5.5	0.0	20.0	97.6
=	5.8	0.0	20.0	97.5
=	6.2	0.0	20.0	97.4
=	6.7	0.0	20.0	97.2
=	6.8	0.0	20.0	97.1
=	7.1	0.0	20.0	97.0
=	7.3	0.0	20.0	96.9
=	7.5	0.0	20.0	96.8
=	7.8	0.0	20.0	96.6
=	7.9	0.0	20.0	96.5
=	8.2	0.0	20.0	96.3
=	8.7	0.0	20.0	96.1
=	8.8	0.0	20.0	96.1
=	9.0	0.0	20.0	95.9
=	9.3	0.0	20.0	95.8
=	9.5	0.0	20.0	95.6
=	9.8	0.0	20.0	95.5
=	10.3	0.0	20.0	94.9
=	10.7	0.0	20.0	94.6
=	10.8	0.0	20.0	94.4
=	11.1	0.0	20.0	94.2
=	11.3	0.0	20.0	94.0
=	11.5	0.0	20.0	93.7
=	11.8	0.0	20.0	93.4
=	11.9	0.0	20.0	93.3
=	12.3	0.0	20.0	93.0
=	12.7	0.0	20.0	92.5
=	12.8	0.0	20.0	92.3
=	13.1	0.0	20.0	91.9
=	13.3	0.0	20.0	91.5
=	13.5	0.0	20.0	91.1
=	13.8	0.0	20.0	90.4
=	14.3	0.0	20.0	89.6
=	14.4	0.0	20.0	89.3
=	14.8	0.0	20.0	88.2
=	14.9	0.0	20.0	87.6
=	15.2	0.0	20.0	86.7
=	15.3	0.0	20.0	86.1
=	15.4	0.0	20.0	85.7
=	15.5	0.0	20.0	85.3
=	15.8	0.0	20.0	84.0
=	16.0	0.0	20.0	83.2
=	16.3	0.0	20.0	81.2
=	16.4	0.0	20.0	80.6
=	16.8	0.0	20.0	78.1
=	16.9	0.0	20.0	77.0
=	17.2	0.0	20.0	74.9
=	17.3	0.0	20.0	73.8
=	17.6	0.0	20.0	71.7
=	17.8	0.0	20.0	69.5
=	18.0	0.0	20.0	68.1
=	18.1	0.0	20.0	66.8
=	18.3	0.0	20.0	64.5
=	18.7	0.0	20.0	61.2
=	18.8	0.0	20.0	59.6
=	19.2	0.0	20.0	55.3
=	19.3	0.0	20.0	53.9
=	19.6	0.0	20.0	51.4
=	19.7	0.0	20.0	50.2
=	19.8	0.0	20.0	48.4
=	20.0	0.0	20.0	46.8
=	20.1	0.0	20.0	44.9
=	20.3	0.0	20.0	42.7
=	20.7	0.0	20.0	38.5
=	20.8	0.0	20.0	37.1
=	21.1	0.0	20.0	33.9
=	21.3	0.0	20.0	32.0
=	21.5	0.0	20.0	30.0
=	21.7	0.0	20.0	28.7
=	21.8	0.0	20.0	27.5
=	21.9	0.0	20.0	26.2
=	22.2	0.0	20.0	24.4
=	22.4	0.0	20.0	22.5
=	22.7	0.0	20.0	20.0
=	22.9	0.0	20.0	18.5
=	23.1	0.0	20.0	16.9
=	23.3	0.0	20.0	16.1
=	23.6	0.0	20.0	14.2
=	23.7	0.0	20.0	13.6
=	23.9	0.0	20.0	12.5
=	24.2	0.0	20.0	11.3
=	24.3	0.0	20.0	10.9
=	24.7	0.0	20.0	9.5
=	25.2	0.0	20.0	8.2
=	25.6	0.0	20.0	7.3
=	25.7	0.0	20.0	7.1
=	26.0	0.0	20.0	6.5
=	26.2	0.0	20.0	6.2
=	26.4	0.0	20.0	5.9
=	26.7	0.0	20.0	5.5
=	27.1	0.0	20.0	5.0
=	27.3	0.0	20.0	4.8
=	27.6	0.0	20.0	4.5
=	27.7	0.0	20.0	4.4
=	28.0	0.0	20.0	4.2
=	28.2	0.0	20.0	4.0
=	28.4	0.0	20.0	3.9
=	28.5	0.0	20.0	3.8
=	28.7	0.0	20.0	3.7
=	29.1	0.0	20.0	3.5
=	29.3	0.0	20.0	3.4
=	29.5	0.0	20.0	3.2
=	29.7	0.0	20.0	3.2
=	30.0	0.0	20.0	3.1
=	30.1	0.0	20.0	3.0
=	30.3	0.0	20.0	3.0
=	30.5	0.0	20.0	2.8
=	30.7	0.0	20.0	2.8
=	31.0	0.0	20.0	2.7
=	31.2	0.0	20.0	2.6
=	31.4	0.0	20.0	2.5
=	31.5	0.0	20.0	2.5
=	31.7	0.0	20.0	2.5
=	32.0	0.0	20.0	2.4
=	32.2	0.0	20.0	2.4
=	32.5	0.0	20.0	2.3
=	32.7	0.0	20.0	2.3
=	33.0	0.0	20.0	2.2
=	33.2	0.0	20.0	2.2
=	33.4	0.0	20.0	2.1
=	33.6	0.0	20.0	2.1
=	33.8	0.0	20.0	2.1
=	34.1	0.0	20.0	2.0
=	34.2	0.0	20.0	2.0
=	34.6	0.0	20.0	2.0
=	34.8	0.0	20.0	2.0
=	35.0	0.0	20.0	1.9
=	35.3	0.0	20.0	1.9
=	35.4	0.0	20.0	1.9
=	35.6	0.0	20.0	1.8
=	35.8	0.0	20.0	1.8
=	36.0	0.0	20.0	1.8
=	36.3	0.0	20.0	1.8
=	36.5	0.0	20.0	1.8
=	36.6	0.0	20.0	1.8
=	36.8	0.0	20.0	1.8
=	37.1	0.0	20.0	1.7
=	37.3	0.0	20.0	1.7
=	37.6	0.0	20.0	1.7
=	37.8	0.0	20.0	1.7
=	38.1	0.0	20.0	1.7
=	38.3	0.0	20.0	1.6
=	38.5	0.0	20.0	1.6
=	38.8	0.0	20.0	1.6
=	39.0	0.0	20.0	1.6
=	39.2	0.0	20.0	1.6
=	39.3	0.0	20.0	1.5
=	39.6	0.0	20.0	1.5
=	39.8	0.0	20.0	1.5
=	40.2	0.0	20.0	1.5
=	40.3	0.0	20.0	1.5
=	40.6	0.0	20.0	1.5
=	40.9	0.0	20.0	1.5
=	41.0	0.0	20.0	1.4
=	41.2	0.0	20.0	1.4
=	41.3	0.0	20.0	1.4
=	41.7	0.0	20.0	1.4
=	41.8	0.0	20.0	1.4
=	42.2	0.0	20.0	1.4
=	42.3	0.0	20.0	1.4
=	42.6	0.0	20.0	1.4
=	42.9	0.0	20.0	1.4
=	43.0	0.0	20.0	1.4
=	43.2	0.0	20.0	1.4
=	43.4	0.0	20.0	1.4
=	43.7	0.0	20.0	1.3
=	43.9	0.0	20.0	1.3
=	44.2	0.0	20.0	1.3
=	44.4	0.0	20.0	1.3
=	44.6	0.0	20.0	1.3
=	44.7	0.0	20.0	1.3
=	44.9	0.0	20.0	1.3
=	45.2	0.0	20.0	1.3
=	45.4	0.0	20.0	1.3
=	45.6	0.0	20.0	1.2
=	45.8	0.0	20.0	1.2
=	46.0	0.0	20.0	1.2
=	46.3	0.0	20.0	1.2
=	46.4	0.0	20.0	1.2
=	46.7	0.0	20.0	1.2
=	46.9	0.0	20.0	1.2
=	47.3	0.0	20.0	1.2
=	47.4	0.0	20.0	1.2
=	47.7	0.0	20.0	1.2
=	47.9	0.0	20.0	1.1
=	48.2	0.0	20.0	1.1
=	48.3	0.0	20.0	1.1
=	48.4	0.0	20.0	1.1
=	48.5	0.0	20.0	1.1
=	48.8	0.0	20.0	1.1
=	49.0	0.0	20.0	1.1
=	49.3	0.0	20.0	1.1
=	49.4	0.0	20.0	1.1
=	49.7	0.0	20.0	1.1
=	49.9	0.0	20.0	1.1
=	50.1	0.0	20.0	1.1
=	50.3	0.0	20.0	1.1
=	50.5	0.0	20.0	1.1
=	50.8	0.0	20.0	1.1
=	50.9	0.0	20.0	1.1
=	51.3	0.0	20.0	1.1
=	51.5	0.0	20.0	1.1
=	51.7	0.0	20.0	1.0
=	52.0	0.0	20.0	1.0
=	52.1	0.0	20.0	1.0
=	52.3	0.0	20.0	1.0
=	52.5	0.0	20.0	1.0
=	52.8	0.0	20.0	1.0
=	53.0	0.0	20.0	1.0
=	53.3	0.0	20.0	1.0
=	53.4	0.0	20.0	1.0
=	53.8	0.0	20.0	1.0
=	54.0	0.0	20.0	1.0
=	54.2	0.0	20.0	1.0
=	54.3	0.0	20.0	1.0
=	54.5	0.0	20.0	1.0
=	54.8	0.0	20.0	1.0
=	55.0	0.0	20.0	1.0
=	55.3	0.0	20.0	1.0
=	55.5	0.0	20.0	1.0
=	55.7	0.0	20.0	1.0
=	55.8	0.0	20.0	1.0
=	56.0	0.0	20.0	1.0
=	56.2	0.0	20.0	1.0
=	56.3	0.0	20.0	1.0
=	56.5	0.0	20.0	1.0
=	56.8	0.0	20.0	1.0
=	57.0	0.0	20.0	0.9
=	57.3	0.0	20.0	0.9
=	57.5	0.0	20.0	0.9
=	57.7	0.0	20.0	0.9
=	57.8	0.0	20.0	0.9
=	58.0	0.0	20.0	0.9
=	58.2	0.0	20.0	0.9
=	58.4	0.0	20.0	0.9
=	58.5	0.0	20.0	0.9
=	58.8	0.0	20.0	0.9
=	59.1	0.0	20.0	0.9
=	59.3	0.0	20.0	0.9
=	59.6	0.0	20.0	0.9
=	59.7	0.0	20.0	0.9
=	59.9	0.0	20.0	0.9
=	60.1	0.0	20.0	0.9
=	60.4	0.0	20.0	0.9
=	60.6	0.0	20.0	0.9
=	60.9	0.0	20.0	0.9
=	61.1	0.0	20.0	0.9
=	61.3	0.0	20.0	0.9
=	61.6	0.0	20.0	0.9
=	61.9	0.0	20.0	0.9
=	62.0	0.0	20.0	0.9
=	62.4	0.0	20.0	0.9
=	62.5	0.0	20.0	0.9
=	62.6	0.0	20.0	0.9
=	62.9	0.0	20.0	0.9
=	63.1	0.0	20.0	0.9
=	63.3	0.0	20.0	0.9
=	63.4	0.0	20.0	0.9
=	63.6	0.0	20.0	0.8
=	63.9	0.0	20.0	0.8
=	64.1	0.0	20.0	0.8
=	64.4	0.0	20.0	0.8
=	64.5	0.0	20.0	0.8
=	64.6	0.0	20.0	0.8
=	64.9	0.0	20.0	0.8
=	65.1	0.0	20.0	0.8
=	65.3	0.0	20.0	0.8
=	65.6	0.0	20.0	0.8
=	65.9	0.0	20.0	0.8
=	66.1	0.0	20.0	0.8
=	66.4	0.0	20.0	0.8
=	66.5	0.0	20.0	0.8
=	66.7	0.0	20.0	0.8
=	66.9	0.0	20.0	0.8
=	67.1	0.0	20.0	0.8
=	67.3	0.0	20.0	0.8
=	67.5	0.0	20.0	0.8
=	67.7	0.0	20.0	0.8
=	68.0	0.0	20.0	0.8
=	68.5	0.0	20.0	0.8
=	68.9	0.0	20.0	0.8
=	69.1	0.0	20.0	0.8
=	69.3	0.0	20.0	0.8
=	69.4	0.0	20.0	0.8
=	69.8	0.0	20.0	0.8
=	69.9	0.0	20.0	0.8
=	70.3	0.0	20.0	0.8
:EOM # End of Measurement
#
# RFA300 ASCII Measurement Dump ( BDS format )
#
# Measurement number 	2
#
%VNR 1.0
%MOD 	RAT
%TYP 	SCN
%SCN 	PRO
%FLD 	ION
%DAT 	02-02-2012
%TIM 	12:00:00
%FSZ 	040	040
%BMT 	PHO	   8.0
%SSD 	1000
%BUP 	0
%BRD 	1000
%FSH 	1
%ASC 	0
%WEG 	45
%GPO 	0
%CPO 	0
%MEA 	6
%PRD 	50,0
%PTS 	648
%STS 	    -71.0	  0.0	   50.0 # Start Scan values in mm ( X , Y , Z )
%EDS 	    71.0	   0.0	   50.0 # End Scan values in mm ( X , Y , Z )
#
#	  X      Y      Z     Dose
#
=	-71.0	0.0	50.0	1.1
=	-70.8	0.0	50.0	1.1
=	-70.6	0.0	50.0	1.1
=	-70.3	0.0	50.0	1.1
=	-70.1	0.0	50.0	1.1
=	-69.9	0.0	50.0	1.1
=	-69.7	0.0	50.0	1.1
=	-69.6	0.0	50.0	1.1
=	-69.1	0.0	50.0	1.1
=	-68.7	0.0	50.0	1.1
=	-68.6	0.0	50.0	1.1
=	-68.3	0.0	50.0	1.1
=	-68.2	0.0	50.0	1.1
=	-68.1	0.0	50.0	1.1
=	-67.9	0.0	50.0	1.1
=	-67.7	0.0	50.0	1.1
=	-67.5	0.0	50.0	1.1
=	-67.3	0.0	50.0	1.1
=	-67.1	0.0	50.0	1.1
=	-66.8	0.0	50.0	1.1
=	-66.7	0.0	50.0	1.1
=	-66.5	0.0	50.0	1.1
=	-66.3	0.0	50.0	1.1
=	-66.0	0.0	50.0	1.1
=	-65.8	0.0	50.0	1.1
=	-65.5	0.0	50.0	1.1
=	-65.2	0.0	50.0	1.1
=	-65.1	0.0	50.0	1.1
=	-65.0	0.0	50.0	1.1
=	-64.7	0.0	50.0	1.1
=	-64.5	0.0	50.0	1.1
=	-64.3	0.0	50.0	1.1
=	-64.0	0.0	50.0	1.1
=	-63.7	0.0	50.0	1.1
=	-63.5	0.0	50.0	1.1
=	-63.2	0.0	50.0	1.2
=	-63.1	0.0	50.0	1.2
=	-63.0	0.0	50.0	1.2
=	-62.7	0.0	50.0	1.2
=	-62.4	0.0	50.0	1.2
=	-62.3	0.0	50.0	1.2
=	-61.9	0.0	50.0	1.2
=	-61.7	0.0	50.0	1.2
=	-61.5	0.0	50.0	1.2
=	-61.2	0.0	50.0	1.2
=	-61.1	0.0	50.0	1.2
=	-60.9	0.0	50.0	1.2
=	-60.7	0.0	50.0	1.2
=	-60.4	0.0	50.0	1.2
=	-60.2	0.0	50.0	1.2
=	-60.0	0.0	50.0	1.2
=	-59.9	0.0	50.0	1.2
=	-59.7	0.0	50.0	1.2
=	-59.4	0.0	50.0	1.2
=	-59.2	0.0	50.0	1.2
=	-58.9	0.0	50.0	1.2
=	-58.8	0.0	50.0	1.2
=	-58.5	0.0	50.0	1.2
=	-58.4	0.0	50.0	1.2
=	-58.2	0.0	50.0	1.2
=	-57.9	0.0	50.0	1.2
=	-57.7	0.0	50.0	1.3
=	-57.3	0.0	50.0	1.3
=	-57.2	0.0	50.0	1.3
=	-57.0	0.0	50.0	1.3
=	-56.8	0.0	50.0	1.3
=	-56.6	0.0	50.0	1.3
=	-56.3	0.0	50.0	1.3
=	-56.2	0.0	50.0	1.3
=	-56.1	0.0	50.0	1.3
=	-55.8	0.0	50.0	1.3
=	-55.6	0.0	50.0	1.3
=	-55.5	0.0	50.0	1.3
=	-55.3	0.0	50.0	1.3
=	-55.1	0.0	50.0	1.3
=	-54.8	0.0	50.0	1.4
=	-54.7	0.0	50.0	1.4
=	-54.3	0.0	50.0	1.4
=	-54.1	0.0	50.0	1.4
=	-53.8	0.0	50.0	1.4
=	-53.6	0.0	50.0	1.4
=	-53.4	0.0	50.0	1.4
=	-53.3	0.0	50.0	1.4
=	-53.1	0.0	50.0	1.4
=	-52.8	0.0	50.0	1.4
=	-52.6	0.0	50.0	1.4
=	-52.3	0.0	50.0	1.4
=	-52.1	0.0	50.0	1.4
=	-51.8	0.0	50.0	1.5
=	-51.6	0.0	50.0	1.5
=	-51.4	0.0	50.0	1.5
=	-51.3	0.0	50.0	1.5
=	-51.1	0.0	50.0	1.5
=	-50.8	0.0	50.0	1.5
=	-50.6	0.0	50.0	1.5
=	-50.3	0.0	50.0	1.5
=	-50.1	0.0	50.0	1.5
=	-49.8	0.0	50.0	1.5
=	-49.6	0.0	50.0	1.5
=	-49.4	0.0	50.0	1.5
=	-49.2	0.0	50.0	1.6
=	-49.1	0.0	50.0	1.6
=	-48.7	0.0	50.0	1.6
=	-48.6	0.0	50.0	1.6
=	-48.2	0.0	50.0	1.6
=	-48.1	0.0	50.0	1.6
=	-47.8	0.0	50.0	1.6
=	-47.7	0.0	50.0	1.6
=	-47.5	0.0	50.0	1.6
=	-47.2	0.0	50.0	1.6
=	-47.1	0.0	50.0	1.6
=	-46.7	0.0	50.0	1.7
=	-46.6	0.0	50.0	1.7
=	-46.3	0.0	50.0	1.7
=	-46.2	0.0	50.0	1.7
=	-46.1	0.0	50.0	1.7
=	-45.9	0.0	50.0	1.7
=	-45.7	0.0	50.0	1.7
=	-45.5	0.0	50.0	1.7
=	-45.2	0.0	50.0	1.8
=	-45.1	0.0	50.0	1.8
=	-44.7	0.0	50.0	1.8
=	-44.5	0.0	50.0	1.8
=	-44.3	0.0	50.0	1.8
=	-44.1	0.0	50.0	1.8
=	-43.9	0.0	50.0	1.8
=	-43.6	0.0	50.0	1.8
=	-43.5	0.0	50.0	1.9
=	-43.1	0.0	50.0	1.9
=	-43.0	0.0	50.0	1.9
=	-42.7	0.0	50.0	1.9
=	-42.5	0.0	50.0	1.9
=	-42.3	0.0	50.0	2.0
=	-42.1	0.0	50.0	2.0
=	-42.0	0.0	50.0	2.0
=	-41.9	0.0	50.0	2.0
=	-41.6	0.0	50.0	2.0
=	-41.5	0.0	50.0	2.1
=	-41.1	0.0	50.0	2.1
=	-41.0	0.0	50.0	2.1
=	-40.7	0.0	50.0	2.1
=	-40.5	0.0	50.0	2.1
=	-40.3	0.0	50.0	2.1
=	-40.1	0.0	50.0	2.2
=	-39.9	0.0	50.0	2.2
=	-39.6	0.0	50.0	2.2
=	-39.4	0.0	50.0	2.2
=	-39.1	0.0	50.0	2.2
=	-39.0	0.0	50.0	2.3
=	-38.7	0.0	50.0	2.3
=	-38.6	0.0	50.0	2.3
=	-38.5	0.0	50.0	2.3
=	-38.3	0.0	50.0	2.4
=	-38.1	0.0	50.0	2.4
=	-37.9	0.0	50.0	2.4
=	-37.6	0.0	50.0	2.5
=	-37.4	0.0	50.0	2.5
=	-37.2	0.0	50.0	2.5
=	-37.0	0.0	50.0	2.5
=	-36.9	0.0	50.0	2.6
=	-36.6	0.0	50.0	2.6
=	-36.4	0.0	50.0	2.6
=	-36.1	0.0	50.0	2.7
=	-35.9	0.0	50.0	2.7
=	-35.6	0.0	50.0	2.8
=	-35.4	0.0	50.0	2.9
=	-35.2	0.0	50.0	2.9
=	-35.0	0.0	50.0	2.9
=	-34.9	0.0	50.0	2.9
=	-34.8	0.0	50.0	2.9
=	-34.5	0.0	50.0	3.0
=	-34.4	0.0	50.0	3.0
=	-34.0	0.0	50.0	3.1
=	-33.9	0.0	50.0	3.1
=	-33.7	0.0	50.0	3.2
=	-33.5	0.0	50.0	3.3
=	-33.4	0.0	50.0	3.3
=	-32.9	0.0	50.0	3.4
=	-32.5	0.0	50.0	3.6
=	-32.4	0.0	50.0	3.6
=	-32.1	0.0	50.0	3.7
=	-32.0	0.0	50.0	3.7
=	-31.8	0.0	50.0	3.8
=	-31.7	0.0	50.0	3.8
=	-31.5	0.0	50.0	3.9
=	-31.3	0.0	50.0	4.0
=	-31.2	0.0	50.0	4.1
=	-31.0	0.0	50.0	4.2
=	-30.9	0.0	50.0	4.2
=	-30.5	0.0	50.0	4.5
=	-30.4	0.0	50.0	4.5
=	-30.1	0.0	50.0	4.7
=	-29.9	0.0	50.0	4.8
=	-29.7	0.0	50.0	5.0
=	-29.4	0.0	50.0	5.1
=	-29.3	0.0	50.0	5.2
=	-28.9	0.0	50.0	5.6
=	-28.5	0.0	50.0	6.0
=	-28.3	0.0	50.0	6.2
=	-28.1	0.0	50.0	6.4
=	-27.8	0.0	50.0	6.8
=	-27.7	0.0	50.0	6.9
=	-27.3	0.0	50.0	7.5
=	-27.1	0.0	50.0	7.8
=	-26.9	0.0	50.0	8.2
=	-26.8	0.0	50.0	8.4
=	-26.6	0.0	50.0	8.8
=	-26.5	0.0	50.0	9.0
=	-26.3	0.0	50.0	9.4
=	-26.1	0.0	50.0	9.9
=	-25.8	0.0	50.0	10.8
=	-25.6	0.0	50.0	11.3
=	-25.3	0.0	50.0	12.4
=	-25.1	0.0	50.0	13.0
=	-24.9	0.0	50.0	13.9
=	-24.8	0.0	50.0	14.4
=	-24.6	0.0	50.0	15.3
=	-24.3	0.0	50.0	16.9
=	-24.1	0.0	50.0	18.0
=	-23.8	0.0	50.0	20.0
=	-23.6	0.0	50.0	21.3
=	-23.3	0.0	50.0	23.9
=	-23.1	0.0	50.0	25.6
=	-22.9	0.0	50.0	27.5
=	-22.8	0.0	50.0	28.6
=	-22.6	0.0	50.0	30.1
=	-22.3	0.0	50.0	33.5
=	-22.1	0.0	50.0	35.1
=	-21.7	0.0	50.0	39.1
=	-21.6	0.0	50.0	40.8
=	-21.3	0.0	50.0	44.3
=	-21.1	0.0	50.0	47.0
=	-20.9	0.0	50.0	49.2
=	-20.8	0.0	50.0	50.5
=	-20.6	0.0	50.0	52.8
=	-20.3	0.0	50.0	56.7
=	-20.1	0.0	50.0	58.8
=	-19.9	0.0	50.0	61.6
=	-19.7	0.0	50.0	63.2
=	-19.6	0.0	50.0	65.0
=	-19.4	0.0	50.0	66.7
=	-19.2	0.0	50.0	69.0
=	-19.0	0.0	50.0	71.0
=	-18.7	0.0	50.0	74.2
=	-18.5	0.0	50.0	76.0
=	-18.3	0.0	50.0	78.8
=	-17.9	0.0	50.0	82.5
=	-17.7	0.0	50.0	83.7
=	-17.5	0.0	50.0	85.9
=	-17.3	0.0	50.0	86.8
=	-17.2	0.0	50.0	87.8
=	-17.1	0.0	50.0	89.0
=	-16.8	0.0	50.0	90.4
=	-16.7	0.0	50.0	91.0
=	-16.3	0.0	50.0	93.2
=	-16.2	0.0	50.0	93.9
=	-15.9	0.0	50.0	95.0
=	-15.8	0.0	50.0	95.5
=	-15.7	0.0	50.0	96.0
=	-15.5	0.0	50.0	96.4
=	-15.3	0.0	50.0	97.3
=	-15.1	0.0	50.0	97.6
=	-14.8	0.0	50.0	98.4
=	-14.3	0.0	50.0	99.4
=	-14.2	0.0	50.0	99.6
=	-13.9	0.0	50.0	100.0
=	-13.8	0.0	50.0	100.1
=	-13.6	0.0	50.0	100.3
=	-13.5	0.0	50.0	100.5
=	-13.3	0.0	50.0	100.7
=	-13.1	0.0	50.0	100.9
=	-12.8	0.0	50.0	101.2
=	-12.7	0.0	50.0	101.3
=	-12.3	0.0	50.0	101.4
=	-12.2	0.0	50.0	101.5
=	-11.9	0.0	50.0	101.7
=	-11.8	0.0	50.0	101.7
=	-11.5	0.0	50.0	101.8
=	-11.4	0.0	50.0	101.8
=	-11.2	0.0	50.0	101.8
=	-11.0	0.0	50.0	101.9
=	-10.9	0.0	50.0	101.9
=	-10.8	0.0	50.0	102.0
=	-10.6	0.0	50.0	102.0
=	-10.3	0.0	50.0	102.0
=	-10.2	0.0	50.0	102.0
=	-9.8	0.0	50.0	102.0
=	-9.7	0.0	50.0	102.0
=	-9.4	0.0	50.0	102.1
=	-9.2	0.0	50.0	102.1
=	-9.0	0.0	50.0	102.1
=	-8.9	0.0	50.0	102.1
=	-8.7	0.0	50.0	102.1
=	-8.6	0.0	50.0	102.1
=	-8.3	0.0	50.0	102.1
=	-8.2	0.0	50.0	102.1
=	-7.8	0.0	50.0	102.0
=	-7.7	0.0	50.0	102.0
=	-7.3	0.0	50.0	102.0
=	-7.2	0.0	50.0	102.0
=	-6.9	0.0	50.0	101.9
=	-6.8	0.0	50.0	101.9
=	-6.7	0.0	50.0	101.9
=	-6.6	0.0	50.0	101.9
=	-6.4	0.0	50.0	101.8
=	-6.2	0.0	50.0	101.8
=	-5.8	0.0	50.0	101.7
=	-5.3	0.0	50.0	101.6
=	-5.2	0.0	50.0	101.6
=	-4.9	0.0	50.0	101.5
=	-4.8	0.0	50.0	101.5
=	-4.7	0.0	50.0	101.5
=	-4.6	0.0	50.0	101.4
=	-4.3	0.0	50.0	101.4
=	-4.2	0.0	50.0	101.4
=	-3.8	0.0	50.0	101.3
=	-3.7	0.0	50.0	101.3
=	-3.3	0.0	50.0	101.2
=	-3.2	0.0	50.0	101.1
=	-3.0	0.0	50.0	101.0
=	-2.8	0.0	50.0	101.0
=	-2.6	0.0	50.0	100.9
=	-2.4	0.0	50.0	100.8
=	-2.3	0.0	50.0	100.8
=	-2.1	0.0	50.0	100.7
=	-2.0	0.0	50.0	100.7
=	-1.8	0.0	50.0	100.6
=	-1.6	0.0	50.0	100.5
=	-1.3	0.0	50.0	100.4
=	-1.1	0.0	50.0	100.4
=	-0.8	0.0	50.0	100.3
=	-0.6	0.0	50.0	100.2
=	-0.4	0.0	50.0	100.1
=	-0.3	0.0	50.0	100.0
=	-0.1	0.0	50.0	100.0
=	0.0	0.0	50.0	100.0
=	0.2	0.0	50.0	99.9
=	0.4	0.0	50.0	99.8
=	0.8	0.0	50.0	99.7
=	0.9	0.0	50.0	99.6
=	1.1	0.0	50.0	99.5
=	1.2	0.0	50.0	99.5
=	1.4	0.0	50.0	99.4
=	1.6	0.0	50.0	99.3
=	1.8	0.0	50.0	99.3
=	1.9	0.0	50.0	99.2
=	2.3	0.0	50.0	99.1
=	2.4	0.0	50.0	99.0
=	2.7	0.0	50.0	98.9
=	2.9	0.0	50.0	98.8
=	3.1	0.0	50.0	98.7
=	3.3	0.0	50.0	98.7
=	3.4	0.0	50.0	98.6
=	3.7	0.0	50.0	98.5
=	3.9	0.0	50.0	98.5
=	4.3	0.0	50.0	98.3
=	4.5	0.0	50.0	98.2
=	4.7	0.0	50.0	98.1
=	5.0	0.0	50.0	98.1
=	5.1	0.0	50.0	98.0
=	5.3	0.0	50.0	97.9
=	5.5	0.0	50.0	97.7
=	5.8	0.0	50.0	97.4
=	5.9	0.0	50.0	97.4
=	6.3	0.0	50.0	97.2
=	6.5	0.0	50.0	97.1
=	6.7	0.0	50.0	97.0
=	7.0	0.0	50.0	96.9
=	7.1	0.0	50.0	96.9
=	7.3	0.0	50.0	96.7
=	7.4	0.0	50.0	96.6
=	7.8	0.0	50.0	96.4
=	8.0	0.0	50.0	96.3
=	8.3	0.0	50.0	96.2
=	8.5	0.0	50.0	96.2
=	8.7	0.0	50.0	96.0
=	9.0	0.0	50.0	95.8
=	9.2	0.0	50.0	95.7
=	9.3	0.0	50.0	95.6
=	9.6	0.0	50.0	95.5
=	9.8	0.0	50.0	95.4
=	9.9	0.0	50.0	95.2
=	10.3	0.0	50.0	94.8
=	10.7	0.0	50.0	94.5
=	10.8	0.0	50.0	94.4
=	11.1	0.0	50.0	94.2
=	11.3	0.0	50.0	93.9
=	11.8	0.0	50.0	93.5
=	12.2	0.0	50.0	93.1
=	12.3	0.0	50.0	92.9
=	12.6	0.0	50.0	92.4
=	12.8	0.0	50.0	92.1
=	13.0	0.0	50.0	91.9
=	13.3	0.0	50.0	91.6
=	13.8	0.0	50.0	90.8
=	14.2	0.0	50.0	89.9
=	14.3	0.0	50.0	89.6
=	14.6	0.0	50.0	88.9
=	14.8	0.0	50.0	88.6
=	15.0	0.0	50.0	88.1
=	15.3	0.0	50.0	87.2
=	15.8	0.0	50.0	85.6
=	15.9	0.0	50.0	85.1
=	16.1	0.0	50.0	84.2
=	16.3	0.0	50.0	83.4
=	16.5	0.0	50.0	82.4
=	16.8	0.0	50.0	80.9
=	17.3	0.0	50.0	78.0
=	17.7	0.0	50.0	74.9
=	17.8	0.0	50.0	74.0
=	18.1	0.0	50.0	71.6
=	18.3	0.0	50.0	69.9
=	18.5	0.0	50.0	68.1
=	18.8	0.0	50.0	65.2
=	19.3	0.0	50.0	60.3
=	19.7	0.0	50.0	56.1
=	19.9	0.0	50.0	54.9
=	20.2	0.0	50.0	51.6
=	20.3	0.0	50.0	49.8
=	20.5	0.0	50.0	48.4
=	20.8	0.0	50.0	44.5
=	21.0	0.0	50.0	43.3
=	21.2	0.0	50.0	41.4
=	21.4	0.0	50.0	39.3
=	21.6	0.0	50.0	36.5
=	21.8	0.0	50.0	35.1
=	22.1	0.0	50.0	31.8
=	22.4	0.0	50.0	29.6
=	22.6	0.0	50.0	27.6
=	22.9	0.0	50.0	25.2
=	23.0	0.0	50.0	24.3
=	23.1	0.0	50.0	23.0
=	23.4	0.0	50.0	21.3
=	23.6	0.0	50.0	19.3
=	23.8	0.0	50.0	18.6
=	24.2	0.0	50.0	16.1
=	24.4	0.0	50.0	15.1
=	24.6	0.0	50.0	14.2
=	24.7	0.0	50.0	13.7
=	24.9	0.0	50.0	12.9
=	25.2	0.0	50.0	11.8
=	25.3	0.0	50.0	11.3
=	25.6	0.0	50.0	10.2
=	25.9	0.0	50.0	9.5
=	26.1	0.0	50.0	9.1
=	26.5	0.0	50.0	8.2
=	26.7	0.0	50.0	7.9
=	26.9	0.0	50.0	7.4
=	27.1	0.0	50.0	7.1
=	27.3	0.0	50.0	6.8
=	27.6	0.0	50.0	6.4
=	28.1	0.0	50.0	5.8
=	28.5	0.0	50.0	5.5
=	28.7	0.0	50.0	5.3
=	28.8	0.0	50.0	5.2
=	29.1	0.0	50.0	4.9
=	29.2	0.0	50.0	4.8
=	29.6	0.0	50.0	4.5
=	29.7	0.0	50.0	4.5
=	30.1	0.0	50.0	4.2
=	30.2	0.0	50.0	4.2
=	30.5	0.0	50.0	4.0
=	30.7	0.0	50.0	4.0
=	30.9	0.0	50.0	3.9
=	31.1	0.0	50.0	3.8
=	31.2	0.0	50.0	3.7
=	31.6	0.0	50.0	3.5
=	31.7	0.0	50.0	3.4
=	32.1	0.0	50.0	3.4
=	32.2	0.0	50.0	3.3
=	32.5	0.0	50.0	3.2
=	32.6	0.0	50.0	3.2
=	32.7	0.0	50.0	3.1
=	32.8	0.0	50.0	3.1
=	33.1	0.0	50.0	3.0
=	33.3	0.0	50.0	3.0
=	33.5	0.0	50.0	2.9
=	33.6	0.0	50.0	2.9
=	34.0	0.0	50.0	2.8
=	34.1	0.0	50.0	2.8
=	34.4	0.0	50.0	2.7
=	34.7	0.0	50.0	2.7
=	34.8	0.0	50.0	2.7
=	35.1	0.0	50.0	2.6
=	35.2	0.0	50.0	2.6
=	35.6	0.0	50.0	2.5
=	35.7	0.0	50.0	2.4
=	36.0	0.0	50.0	2.4
=	36.1	0.0	50.0	2.4
=	36.2	0.0	50.0	2.4
=	36.4	0.0	50.0	2.3
=	36.7	0.0	50.0	2.3
=	36.8	0.0	50.0	2.3
=	37.2	0.0	50.0	2.3
=	37.3	0.0	50.0	2.2
=	37.6	0.0	50.0	2.2
=	38.1	0.0	50.0	2.2
=	38.2	0.0	50.0	2.1
=	38.4	0.0	50.0	2.1
=	38.7	0.0	50.0	2.1
=	38.8	0.0	50.0	2.1
=	39.2	0.0	50.0	2.0
=	39.6	0.0	50.0	2.0
=	39.8	0.0	50.0	2.0
=	40.0	0.0	50.0	2.0
=	40.1	0.0	50.0	1.9
=	40.3	0.0	50.0	1.9
=	40.4	0.0	50.0	1.9
=	40.7	0.0	50.0	1.9
=	40.8	0.0	50.0	1.9
=	41.2	0.0	50.0	1.8
=	41.3	0.0	50.0	1.8
=	41.6	0.0	50.0	1.8
=	41.8	0.0	50.0	1.8
=	42.0	0.0	50.0	1.8
=	42.2	0.0	50.0	1.8
=	42.3	0.0	50.0	1.7
=	42.5	0.0	50.0	1.7
=	42.7	0.0	50.0	1.7
=	42.9	0.0	50.0	1.7
=	43.2	0.0	50.0	1.7
=	43.4	0.0	50.0	1.7
=	43.7	0.0	50.0	1.7
=	43.8	0.0	50.0	1.6
=	44.1	0.0	50.0	1.6
=	44.3	0.0	50.0	1.6
=	44.4	0.0	50.0	1.6
=	44.5	0.0	50.0	1.6
=	44.7	0.0	50.0	1.6
=	44.9	0.0	50.0	1.6
=	45.3	0.0	50.0	1.6
=	45.6	0.0	50.0	1.5
=	45.7	0.0	50.0	1.5
=	45.9	0.0	50.0	1.5
=	46.1	0.0	50.0	1.5
=	46.3	0.0	50.0	1.5
=	46.4	0.0	50.0	1.5
=	46.8	0.0	50.0	1.5
=	46.9	0.0	50.0	1.5
=	47.3	0.0	50.0	1.4
=	47.6	0.0	50.0	1.4
=	47.8	0.0	50.0	1.4
=	47.9	0.0	50.0	1.4
=	48.0	0.0	50.0	1.4
=	48.3	0.0	50.0	1.4
=	48.4	0.0	50.0	1.4
=	48.8	0.0	50.0	1.4
=	48.9	0.0	50.0	1.4
=	49.3	0.0	50.0	1.3
=	49.4	0.0	50.0	1.3
=	49.6	0.0	50.0	1.3
=	49.8	0.0	50.0	1.3
=	49.9	0.0	50.0	1.3
=	50.1	0.0	50.0	1.3
=	50.3	0.0	50.0	1.3
=	50.4	0.0	50.0	1.3
=	50.8	0.0	50.0	1.3
=	50.9	0.0	50.0	1.3
=	51.3	0.0	50.0	1.3
=	51.5	0.0	50.0	1.3
=	51.6	0.0	50.0	1.3
=	51.8	0.0	50.0	1.3
=	51.9	0.0	50.0	1.3
=	52.1	0.0	50.0	1.3
=	52.3	0.0	50.0	1.3
=	52.5	0.0	50.0	1.2
=	52.8	0.0	50.0	1.2
=	53.0	0.0	50.0	1.2
=	53.3	0.0	50.0	1.2
=	53.5	0.0	50.0	1.2
=	53.6	0.0	50.0	1.2
=	53.8	0.0	50.0	1.2
=	54.0	0.0	50.0	1.2
=	54.3	0.0	50.0	1.2
=	54.5	0.0	50.0	1.2
=	54.8	0.0	50.0	1.2
=	55.0	0.0	50.0	1.2
=	55.3	0.0	50.0	1.1
=	55.4	0.0	50.0	1.1
=	55.6	0.0	50.0	1.1
=	55.9	0.0	50.0	1.1
=	56.0	0.0	50.0	1.1
=	56.4	0.0	50.0	1.1
=	56.5	0.0	50.0	1.1
=	56.8	0.0	50.0	1.1
=	57.0	0.0	50.0	1.1
=	57.3	0.0	50.0	1.1
=	57.5	0.0	50.0	1.1
=	57.6	0.0	50.0	1.1
=	57.8	0.0	50.0	1.1
=	58.0	0.0	50.0	1.1
=	58.4	0.0	50.0	1.1
=	58.5	0.0	50.0	1.1
=	58.8	0.0	50.0	1.1
=	59.0	0.0	50.0	1.1
=	59.3	0.0	50.0	1.1
=	59.5	0.0	50.0	1.1
=	59.7	0.0	50.0	1.0
=	59.9	0.0	50.0	1.0
=	60.0	0.0	50.0	1.0
=	60.4	0.0	50.0	1.0
=	60.5	0.0	50.0	1.0
=	60.9	0.0	50.0	1.0
=	61.0	0.0	50.0	1.0
=	61.3	0.0	50.0	1.0
=	61.6	0.0	50.0	1.0
=	61.7	0.0	50.0	1.0
=	61.9	0.0	50.0	1.0
=	62.0	0.0	50.0	1.0
=	62.4	0.0	50.0	1.0
=	62.5	0.0	50.0	1.0
=	62.9	0.0	50.0	1.0
=	63.0	0.0	50.0	1.0
=	63.3	0.0	50.0	1.0
=	63.5	0.0	50.0	1.0
=	63.7	0.0	50.0	1.0
=	63.9	0.0	50.0	1.0
=	64.0	0.0	50.0	1.0
=	64.1	0.0	50.0	1.0
=	64.4	0.0	50.0	1.0
=	64.6	0.0	50.0	1.0
=	64.9	0.0	50.0	0.9
=	65.0	0.0	50.0	0.9
=	65.4	0.0	50.0	0.9
=	65.6	0.0	50.0	0.9
=	65.7	0.0	50.0	0.9
=	65.9	0.0	50.0	0.9
=	66.1	0.0	50.0	0.9
=	66.4	0.0	50.0	0.9
=	66.5	0.0	50.0	0.9
=	66.9	0.0	50.0	0.9
=	67.1	0.0	50.0	0.9
=	67.3	0.0	50.0	0.9
=	67.5	0.0	50.0	0.9
=	67.7	0.0	50.0	0.9
=	67.9	0.0	50.0	0.9
=	68.2	0.0	50.0	0.9
=	68.4	0.0	50.0	0.9
=	68.6	0.0	50.0	0.9
=	69.0	0.0	50.0	0.9
=	69.4	0.0	50.0	0.9
=	69.7	0.0	50.0	0.9
=	69.8	0.0	50.0	0.9
=	70.0	0.0	50.0	0.9
=	70.2	0.0	50.0	0.9
=	70.5	0.0	50.0	0.9
=	70.9	0.0	50.0	0.9
=	71.0	0.0	50.0	0.9
:EOM # End of Measurement
#
# RFA300 ASCII Measurement Dump ( BDS format )
#
# Measurement number 	3
#
%VNR 1.0
%MOD 	RAT
%TYP 	SCN
%SCN 	PRO
%FLD 	ION
%DAT 	02-02-2012
%TIM 	12:00:00
%FSZ 	040	040
%BMT 	PHO	   8.0
%SSD 	1000
%BUP 	0
%BRD 	1000
%FSH 	1
%ASC 	0
%WEG 	45
%GPO 	0
%CPO 	0
%MEA 	6
%PRD 	100,0
%PTS 	612
%STS 	    -72.0	  0.0	   100.0 # Start Scan values in mm ( X , Y , Z )
%EDS 	    72.0	   0.0	   100.0 # End Scan values in mm ( X , Y , Z )
#
#	  X      Y      Z     Dose
#
=	-72.0	0.0	100.0	1.3
=	-71.8	0.0	100.0	1.3
=	-71.7	0.0	100.0	1.4
=	-71.5	0.0	100.0	1.4
=	-71.2	0.0	100.0	1.4
=	-71.0	0.0	100.0	1.3
=	-70.8	0.0	100.0	1.3
=	-70.5	0.0	100.0	1.3
=	-70.3	0.0	100.0	1.4
=	-70.1	0.0	100.0	1.4
=	-70.0	0.0	100.0	1.4
=	-69.9	0.0	100.0	1.4
=	-69.6	0.0	100.0	1.4
=	-69.1	0.0	100.0	1.4
=	-69.0	0.0	100.0	1.4
=	-68.6	0.0	100.0	1.4
=	-68.5	0.0	100.0	1.4
=	-68.2	0.0	100.0	1.4
=	-68.0	0.0	100.0	1.4
=	-67.9	0.0	100.0	1.4
=	-67.5	0.0	100.0	1.4
=	-67.3	0.0	100.0	1.4
=	-67.1	0.0	100.0	1.5
=	-66.9	0.0	100.0	1.5
=	-66.8	0.0	100.0	1.5
=	-66.7	0.0	100.0	1.5
=	-66.5	0.0	100.0	1.5
=	-66.3	0.0	100.0	1.5
=	-66.0	0.0	100.0	1.5
=	-65.7	0.0	100.0	1.5
=	-65.5	0.0	100.0	1.5
=	-65.2	0.0	100.0	1.5
=	-65.1	0.0	100.0	1.5
=	-64.9	0.0	100.0	1.5
=	-64.7	0.0	100.0	1.5
=	-64.4	0.0	100.0	1.5
=	-64.2	0.0	100.0	1.5
=	-63.9	0.0	100.0	1.5
=	-63.7	0.0	100.0	1.5
=	-63.5	0.0	100.0	1.5
=	-63.4	0.0	100.0	1.6
=	-63.2	0.0	100.0	1.6
=	-62.9	0.0	100.0	1.6
=	-62.7	0.0	100.0	1.6
=	-62.4	0.0	100.0	1.6
=	-62.2	0.0	100.0	1.6
=	-62.0	0.0	100.0	1.6
=	-61.9	0.0	100.0	1.6
=	-61.7	0.0	100.0	1.6
=	-61.4	0.0	100.0	1.6
=	-61.2	0.0	100.0	1.6
=	-60.9	0.0	100.0	1.6
=	-60.7	0.0	100.0	1.6
=	-60.4	0.0	100.0	1.7
=	-60.1	0.0	100.0	1.7
=	-60.0	0.0	100.0	1.7
=	-59.8	0.0	100.0	1.7
=	-59.6	0.0	100.0	1.7
=	-59.3	0.0	100.0	1.7
=	-59.2	0.0	100.0	1.7
=	-58.8	0.0	100.0	1.7
=	-58.6	0.0	100.0	1.8
=	-58.4	0.0	100.0	1.8
=	-58.1	0.0	100.0	1.8
=	-58.0	0.0	100.0	1.8
=	-57.8	0.0	100.0	1.8
=	-57.6	0.0	100.0	1.8
=	-57.3	0.0	100.0	1.8
=	-57.1	0.0	100.0	1.8
=	-56.8	0.0	100.0	1.8
=	-56.6	0.0	100.0	1.8
=	-56.4	0.0	100.0	1.8
=	-56.3	0.0	100.0	1.8
=	-56.1	0.0	100.0	1.9
=	-56.0	0.0	100.0	1.9
=	-55.8	0.0	100.0	1.9
=	-55.6	0.0	100.0	1.9
=	-55.3	0.0	100.0	1.9
=	-55.1	0.0	100.0	1.9
=	-54.8	0.0	100.0	1.9
=	-54.6	0.0	100.0	1.9
=	-54.3	0.0	100.0	1.9
=	-54.1	0.0	100.0	2.0
=	-53.9	0.0	100.0	2.0
=	-53.8	0.0	100.0	2.0
=	-53.6	0.0	100.0	2.0
=	-53.3	0.0	100.0	2.0
=	-53.1	0.0	100.0	2.0
=	-53.0	0.0	100.0	2.0
=	-52.7	0.0	100.0	2.0
=	-52.5	0.0	100.0	2.0
=	-52.3	0.0	100.0	2.1
=	-52.1	0.0	100.0	2.1
=	-51.9	0.0	100.0	2.1
=	-51.7	0.0	100.0	2.1
=	-51.6	0.0	100.0	2.1
=	-51.2	0.0	100.0	2.1
=	-51.1	0.0	100.0	2.1
=	-50.7	0.0	100.0	2.1
=	-50.5	0.0	100.0	2.2
=	-50.2	0.0	100.0	2.2
=	-50.0	0.0	100.0	2.2
=	-49.8	0.0	100.0	2.2
=	-49.7	0.0	100.0	2.2
=	-49.5	0.0	100.0	2.2
=	-49.2	0.0	100.0	2.3
=	-49.1	0.0	100.0	2.3
=	-48.7	0.0	100.0	2.3
=	-48.6	0.0	100.0	2.3
=	-48.2	0.0	100.0	2.3
=	-48.0	0.0	100.0	2.4
