:MSR 	5	 # No. of measurement in file
:SYS BDS 0   # Beam Data Scanner System
#
# RFA300 ASCII Measurement Dump ( BDS format )
#
# Measurement number 	1
#
%VNR 1.0
%MOD 	RAT
%TYP 	SCN
%SCN 	PRO
%FLD 	ION
%DAT 	02-03-2012
%TIM 	12:00:00
%FSZ 	400	200
%BMT 	PHO	   8.0
%SSD 	1000
%BUP 	0
%BRD 	1000
%FSH 	1
%ASC 	0
%WEG 	45
%GPO 	0
%CPO 	0
%MEA 	6
%PRD 	20,0
%PTS 	809
%STS 	    -273.4	  0.0	   20.0 # Start Scan values in mm ( X , Y , Z )
%EDS 	    272.9	   0.0	   20.0 # End Scan values in mm ( X , Y , Z )
#
#	  X      Y      Z     Dose
#
=	-273.4	0.0	20.0	6.3
=	-272.6	0.0	20.0	6.3
=	-271.9	0.0	20.0	6.4
=	-271.1	0.0	20.0	6.4
=	-270.4	0.0	20.0	6.4
=	-269.6	0.0	20.0	6.4
=	-268.9	0.0	20.0	6.5
=	-267.8	0.0	20.0	6.5
=	-266.8	0.0	20.0	6.6
=	-266.0	0.0	20.0	6.6
=	-264.8	0.0	20.0	6.7
=	-263.6	0.0	20.0	6.7
=	-262.3	0.0	20.0	6.8
=	-260.8	0.0	20.0	6.8
=	-259.9	0.0	20.0	6.9
=	-259.2	0.0	20.0	7.0
=	-258.4	0.0	20.0	7.0
=	-257.6	0.0	20.0	7.0
=	-256.9	0.0	20.0	7.1
=	-256.1	0.0	20.0	7.1
=	-255.1	0.0	20.0	7.1
=	-254.4	0.0	20.0	7.2
=	-253.6	0.0	20.0	7.2
=	-252.9	0.0	20.0	7.3
=	-252.1	0.0	20.0	7.3
=	-251.4	0.0	20.0	7.3
=	-250.7	0.0	20.0	7.4
=	-250.0	0.0	20.0	7.4
=	-249.2	0.0	20.0	7.5
=	-248.6	0.0	20.0	7.5
=	-247.9	0.0	20.0	7.5
=	-247.2	0.0	20.0	7.6
=	-246.4	0.0	20.0	7.6
=	-245.7	0.0	20.0	7.7
=	-245.0	0.0	20.0	7.7
=	-244.2	0.0	20.0	7.7
=	-243.5	0.0	20.0	7.8
=	-242.7	0.0	20.0	7.8
=	-242.0	0.0	20.0	7.9
=	-241.5	0.0	20.0	7.9
=	-240.7	0.0	20.0	7.9
=	-240.0	0.0	20.0	8.0
=	-239.2	0.0	20.0	8.0
=	-238.5	0.0	20.0	8.1
=	-237.7	0.0	20.0	8.1
=	-237.0	0.0	20.0	8.2
=	-236.2	0.0	20.0	8.2
=	-235.6	0.0	20.0	8.3
=	-235.0	0.0	20.0	8.3
=	-234.2	0.0	20.0	8.4
=	-233.5	0.0	20.0	8.4
=	-232.7	0.0	20.0	8.5
=	-232.0	0.0	20.0	8.6
=	-231.2	0.0	20.0	8.7
=	-230.5	0.0	20.0	8.7
=	-229.7	0.0	20.0	8.8
=	-229.0	0.0	20.0	8.9
=	-228.2	0.0	20.0	9.0
=	-227.4	0.0	20.0	9.1
=	-226.9	0.0	20.0	9.1
=	-226.4	0.0	20.0	9.2
=	-225.9	0.0	20.0	9.2
=	-225.3	0.0	20.0	9.3
=	-224.7	0.0	20.0	9.4
=	-224.2	0.0	20.0	9.5
=	-223.7	0.0	20.0	9.5
=	-223.2	0.0	20.0	9.6
=	-222.7	0.0	20.0	9.6
=	-222.2	0.0	20.0	9.7
=	-221.6	0.0	20.0	9.8
=	-221.1	0.0	20.0	9.9
=	-220.5	0.0	20.0	10.0
=	-220.0	0.0	20.0	10.1
=	-219.6	0.0	20.0	10.1
=	-219.1	0.0	20.0	10.2
=	-218.5	0.0	20.0	10.3
=	-218.0	0.0	20.0	10.4
=	-217.5	0.0	20.0	10.5
=	-217.0	0.0	20.0	10.6
=	-216.5	0.0	20.0	10.7
=	-216.0	0.0	20.0	10.8
=	-215.5	0.0	20.0	11.0
=	-215.0	0.0	20.0	11.1
=	-214.5	0.0	20.0	11.3
=	-214.0	0.0	20.0	11.6
=	-213.5	0.0	20.0	11.8
=	-213.0	0.0	20.0	12.1
=	-212.5	0.0	20.0	12.4
=	-212.0	0.0	20.0	12.8
=	-211.5	0.0	20.0	13.4
=	-211.0	0.0	20.0	14.0
=	-210.4	0.0	20.0	14.9
=	-209.8	0.0	20.0	15.9
=	-209.3	0.0	20.0	17.0
=	-208.8	0.0	20.0	18.4
=	-208.3	0.0	20.0	20.1
=	-207.8	0.0	20.0	22.0
=	-207.3	0.0	20.0	24.3
=	-206.8	0.0	20.0	26.8
=	-206.3	0.0	20.0	29.7
=	-205.8	0.0	20.0	33.0
=	-205.3	0.0	20.0	36.7
=	-204.8	0.0	20.0	40.5
=	-204.3	0.0	20.0	44.6
=	-203.6	0.0	20.0	50.4
=	-203.1	0.0	20.0	54.8
=	-202.6	0.0	20.0	59.1
=	-202.1	0.0	20.0	63.2
=	-201.6	0.0	20.0	67.1
=	-201.1	0.0	20.0	70.8
=	-200.6	0.0	20.0	74.2
=	-200.1	0.0	20.0	77.3
=	-199.6	0.0	20.0	79.9
=	-199.1	0.0	20.0	82.1
=	-198.6	0.0	20.0	83.9
=	-198.1	0.0	20.0	85.4
=	-197.6	0.0	20.0	86.6
=	-197.1	0.0	20.0	87.7
=	-196.6	0.0	20.0	88.3
=	-196.1	0.0	20.0	88.9
=	-195.6	0.0	20.0	89.5
=	-195.1	0.0	20.0	90.0
=	-194.6	0.0	20.0	90.4
=	-194.1	0.0	20.0	90.7
=	-193.6	0.0	20.0	90.9
=	-193.1	0.0	20.0	91.2
=	-192.6	0.0	20.0	91.4
=	-192.1	0.0	20.0	91.6
=	-191.6	0.0	20.0	91.7
=	-191.1	0.0	20.0	91.9
=	-190.6	0.0	20.0	92.1
=	-190.1	0.0	20.0	92.2
=	-189.3	0.0	20.0	92.4
=	-188.6	0.0	20.0	92.5
=	-187.8	0.0	20.0	92.7
=	-187.1	0.0	20.0	92.9
=	-186.3	0.0	20.0	93.0
=	-185.6	0.0	20.0	93.1
=	-185.0	0.0	20.0	93.2
=	-184.3	0.0	20.0	93.3
=	-183.6	0.0	20.0	93.4
=	-182.9	0.0	20.0	93.5
=	-182.3	0.0	20.0	93.6
=	-181.5	0.0	20.0	93.7
=	-180.8	0.0	20.0	93.8
=	-180.3	0.0	20.0	93.9
=	-179.7	0.0	20.0	94.0
=	-179.0	0.0	20.0	94.1
=	-178.2	0.0	20.0	94.1
=	-177.5	0.0	20.0	94.2
=	-176.7	0.0	20.0	94.3
=	-176.0	0.0	20.0	94.4
=	-175.2	0.0	20.0	94.5
=	-174.5	0.0	20.0	94.6
=	-174.0	0.0	20.0	94.6
=	-173.5	0.0	20.0	94.6
=	-172.8	0.0	20.0	94.7
=	-172.2	0.0	20.0	94.8
=	-171.5	0.0	20.0	94.9
=	-171.0	0.0	20.0	94.9
=	-170.2	0.0	20.0	95.0
=	-169.5	0.0	20.0	95.0
=	-168.7	0.0	20.0	95.1
=	-168.0	0.0	20.0	95.2
=	-167.2	0.0	20.0	95.3
=	-166.5	0.0	20.0	95.3
=	-165.7	0.0	20.0	95.4
=	-165.3	0.0	20.0	95.4
=	-164.8	0.0	20.0	95.4
=	-164.3	0.0	20.0	95.5
=	-163.7	0.0	20.0	95.5
=	-163.2	0.0	20.0	95.5
=	-162.5	0.0	20.0	95.6
=	-161.8	0.0	20.0	95.7
=	-161.0	0.0	20.0	95.7
=	-159.7	0.0	20.0	95.8
=	-158.8	0.0	20.0	95.9
=	-157.8	0.0	20.0	95.9
=	-157.0	0.0	20.0	96.0
=	-156.3	0.0	20.0	96.0
=	-155.5	0.0	20.0	96.1
=	-154.7	0.0	20.0	96.2
=	-153.5	0.0	20.0	96.3
=	-152.8	0.0	20.0	96.3
=	-152.0	0.0	20.0	96.4
=	-151.2	0.0	20.0	96.4
=	-150.4	0.0	20.0	96.5
=	-149.7	0.0	20.0	96.6
=	-148.9	0.0	20.0	96.6
=	-148.2	0.0	20.0	96.6
=	-147.5	0.0	20.0	96.7
=	-146.9	0.0	20.0	96.8
=	-146.4	0.0	20.0	96.8
=	-145.9	0.0	20.0	96.8
=	-145.2	0.0	20.0	96.9
=	-144.4	0.0	20.0	96.9
=	-143.9	0.0	20.0	97.0
=	-143.2	0.0	20.0	97.0
=	-142.7	0.0	20.0	97.0
=	-142.2	0.0	20.0	97.0
=	-141.7	0.0	20.0	97.1
=	-141.1	0.0	20.0	97.1
=	-140.6	0.0	20.0	97.1
=	-140.1	0.0	20.0	97.2
=	-139.6	0.0	20.0	97.2
=	-139.1	0.0	20.0	97.2
=	-138.6	0.0	20.0	97.3
=	-138.1	0.0	20.0	97.3
=	-137.6	0.0	20.0	97.3
=	-137.1	0.0	20.0	97.3
=	-136.6	0.0	20.0	97.4
=	-136.1	0.0	20.0	97.4
=	-135.6	0.0	20.0	97.4
=	-134.9	0.0	20.0	97.4
=	-134.4	0.0	20.0	97.5
=	-133.9	0.0	20.0	97.5
=	-133.4	0.0	20.0	97.6
=	-132.9	0.0	20.0	97.6
=	-132.3	0.0	20.0	97.7
=	-131.8	0.0	20.0	97.7
=	-131.2	0.0	20.0	97.7
=	-130.6	0.0	20.0	97.8
=	-130.1	0.0	20.0	97.8
=	-129.6	0.0	20.0	97.8
=	-129.1	0.0	20.0	97.9
=	-128.6	0.0	20.0	97.9
=	-128.0	0.0	20.0	97.9
=	-127.5	0.0	20.0	97.9
=	-127.0	0.0	20.0	98.0
=	-126.5	0.0	20.0	98.0
=	-126.0	0.0	20.0	98.0
=	-125.5	0.0	20.0	98.0
=	-125.0	0.0	20.0	98.0
=	-124.4	0.0	20.0	98.0
=	-123.6	0.0	20.0	98.0
=	-122.8	0.0	20.0	98.1
=	-122.0	0.0	20.0	98.1
=	-121.3	0.0	20.0	98.2
=	-120.5	0.0	20.0	98.2
=	-119.8	0.0	20.0	98.2
=	-119.0	0.0	20.0	98.2
=	-118.3	0.0	20.0	98.2
=	-117.5	0.0	20.0	98.2
=	-116.8	0.0	20.0	98.3
=	-116.0	0.0	20.0	98.4
=	-115.3	0.0	20.0	98.4
=	-114.5	0.0	20.0	98.4
=	-113.7	0.0	20.0	98.4
=	-112.9	0.0	20.0	98.5
=	-112.2	0.0	20.0	98.5
=	-111.5	0.0	20.0	98.5
=	-110.7	0.0	20.0	98.5
=	-109.9	0.0	20.0	98.6
=	-109.2	0.0	20.0	98.6
=	-108.4	0.0	20.0	98.7
=	-107.7	0.0	20.0	98.7
=	-106.9	0.0	20.0	98.7
=	-106.2	0.0	20.0	98.7
=	-105.4	0.0	20.0	98.8
=	-104.8	0.0	20.0	98.8
=	-104.3	0.0	20.0	98.8
=	-103.8	0.0	20.0	98.8
=	-103.3	0.0	20.0	98.8
=	-102.8	0.0	20.0	98.9
=	-102.3	0.0	20.0	98.9
=	-101.8	0.0	20.0	98.9
=	-101.3	0.0	20.0	98.9
=	-100.8	0.0	20.0	98.9
=	-100.3	0.0	20.0	98.9
=	-99.8	0.0	20.0	98.9
=	-99.1	0.0	20.0	99.0
=	-98.5	0.0	20.0	99.0
=	-97.8	0.0	20.0	99.0
=	-97.0	0.0	20.0	99.1
=	-96.4	0.0	20.0	99.1
=	-95.7	0.0	20.0	99.1
=	-95.0	0.0	20.0	99.1
=	-94.4	0.0	20.0	99.1
=	-93.7	0.0	20.0	99.2
=	-92.9	0.0	20.0	99.2
=	-92.1	0.0	20.0	99.2
=	-91.3	0.0	20.0	99.3
=	-90.6	0.0	20.0	99.3
=	-89.8	0.0	20.0	99.4
=	-89.1	0.0	20.0	99.4
=	-88.3	0.0	20.0	99.4
=	-87.6	0.0	20.0	99.4
=	-86.5	0.0	20.0	99.5
=	-84.9	0.0	20.0	99.5
=	-83.4	0.0	20.0	99.5
=	-82.3	0.0	20.0	99.5
=	-80.9	0.0	20.0	99.6
=	-79.4	0.0	20.0	99.7
=	-78.3	0.0	20.0	99.7
=	-76.8	0.0	20.0	99.7
=	-75.3	0.0	20.0	99.7
=	-74.1	0.0	20.0	99.7
=	-72.8	0.0	20.0	99.7
=	-71.9	0.0	20.0	99.7
=	-71.1	0.0	20.0	99.7
=	-70.1	0.0	20.0	99.8
=	-69.4	0.0	20.0	99.8
=	-68.6	0.0	20.0	99.8
=	-67.8	0.0	20.0	99.8
=	-67.0	0.0	20.0	99.8
=	-66.3	0.0	20.0	99.8
=	-65.5	0.0	20.0	99.8
=	-64.8	0.0	20.0	99.8
=	-64.0	0.0	20.0	99.8
=	-63.2	0.0	20.0	99.9
=	-62.5	0.0	20.0	99.9
=	-61.7	0.0	20.0	99.9
=	-61.0	0.0	20.0	99.9
=	-60.2	0.0	20.0	100.0
=	-59.5	0.0	20.0	100.0
=	-58.7	0.0	20.0	100.0
=	-58.0	0.0	20.0	100.0
=	-57.2	0.0	20.0	100.0
=	-56.5	0.0	20.0	100.0
=	-55.7	0.0	20.0	100.0
=	-55.0	0.0	20.0	100.0
=	-54.4	0.0	20.0	100.0
=	-53.9	0.0	20.0	100.0
=	-53.4	0.0	20.0	100.1
=	-52.7	0.0	20.0	100.1
=	-52.2	0.0	20.0	100.1
=	-51.7	0.0	20.0	100.1
=	-51.2	0.0	20.0	100.1
=	-50.7	0.0	20.0	100.1
=	-50.2	0.0	20.0	100.1
=	-49.7	0.0	20.0	100.1
=	-49.2	0.0	20.0	100.1
=	-48.6	0.0	20.0	100.1
=	-47.8	0.0	20.0	100.1
=	-47.0	0.0	20.0	100.1
=	-46.3	0.0	20.0	100.1
=	-45.5	0.0	20.0	100.2
=	-44.6	0.0	20.0	100.2
=	-43.7	0.0	20.0	100.2
=	-42.9	0.0	20.0	100.2
=	-42.2	0.0	20.0	100.1
=	-41.2	0.0	20.0	100.1
=	-40.4	0.0	20.0	100.1
=	-39.7	0.0	20.0	100.1
=	-39.2	0.0	20.0	100.1
=	-38.7	0.0	20.0	100.1
=	-38.2	0.0	20.0	100.1
=	-37.7	0.0	20.0	100.1
=	-37.2	0.0	20.0	100.1
=	-36.7	0.0	20.0	100.1
=	-36.1	0.0	20.0	100.1
=	-35.6	0.0	20.0	100.1
=	-35.1	0.0	20.0	100.1
=	-34.6	0.0	20.0	100.2
=	-34.1	0.0	20.0	100.2
=	-33.6	0.0	20.0	100.2
=	-33.1	0.0	20.0	100.2
=	-32.6	0.0	20.0	100.2
=	-32.1	0.0	20.0	100.2
=	-31.6	0.0	20.0	100.2
=	-31.1	0.0	20.0	100.2
=	-30.6	0.0	20.0	100.1
=	-30.1	0.0	20.0	100.1
=	-29.6	0.0	20.0	100.1
=	-29.1	0.0	20.0	100.1
=	-28.4	0.0	20.0	100.1
=	-27.7	0.0	20.0	100.1
=	-27.1	0.0	20.0	100.1
=	-26.4	0.0	20.0	100.1
=	-25.6	0.0	20.0	100.1
=	-24.8	0.0	20.0	100.1
=	-24.1	0.0	20.0	100.1
=	-23.3	0.0	20.0	100.1
=	-22.6	0.0	20.0	100.1
=	-21.8	0.0	20.0	100.1
=	-21.1	0.0	20.0	100.1
=	-20.3	0.0	20.0	100.1
=	-19.5	0.0	20.0	100.1
=	-18.8	0.0	20.0	100.1
=	-18.0	0.0	20.0	100.1
=	-17.3	0.0	20.0	100.1
=	-16.6	0.0	20.0	100.1
=	-15.8	0.0	20.0	100.1
=	-15.2	0.0	20.0	100.1
=	-14.6	0.0	20.0	100.1
=	-14.0	0.0	20.0	100.0
=	-13.3	0.0	20.0	100.0
=	-12.5	0.0	20.0	100.0
=	-11.8	0.0	20.0	100.0
=	-11.0	0.0	20.0	100.0
=	-10.3	0.0	20.0	100.0
=	-9.5	0.0	20.0	100.0
=	-8.7	0.0	20.0	100.0
=	-8.0	0.0	20.0	100.0
=	-7.2	0.0	20.0	100.0
=	-6.5	0.0	20.0	100.0
=	-5.7	0.0	20.0	100.0
=	-4.9	0.0	20.0	100.0
=	-4.4	0.0	20.0	100.0
=	-3.7	0.0	20.0	100.0
=	-2.9	0.0	20.0	100.0
=	-2.2	0.0	20.0	100.0
=	-1.4	0.0	20.0	100.0
=	-0.7	0.0	20.0	100.0
=	0.0	0.0	20.0	100.0
=	0.2	0.0	20.0	100.0
=	0.9	0.0	20.0	100.0
=	1.7	0.0	20.0	100.0
=	2.4	0.0	20.0	100.0
=	3.2	0.0	20.0	100.0
=	3.9	0.0	20.0	100.0
=	4.6	0.0	20.0	100.0
=	5.2	0.0	20.0	100.0
=	6.0	0.0	20.0	100.0
=	6.7	0.0	20.0	100.0
=	7.5	0.0	20.0	100.0
=	8.2	0.0	20.0	100.0
=	9.0	0.0	20.0	100.0
=	9.7	0.0	20.0	100.0
=	10.5	0.0	20.0	100.0
=	11.3	0.0	20.0	100.0
=	12.0	0.0	20.0	100.0
=	12.8	0.0	20.0	100.0
=	13.6	0.0	20.0	100.0
=	14.2	0.0	20.0	100.0
=	14.8	0.0	20.0	100.1
=	15.4	0.0	20.0	100.1
=	16.1	0.0	20.0	100.1
=	16.8	0.0	20.0	100.1
=	17.5	0.0	20.0	100.1
=	18.3	0.0	20.0	100.1
=	19.1	0.0	20.0	100.1
=	19.8	0.0	20.0	100.1
=	20.5	0.0	20.0	100.1
=	21.3	0.0	20.0	100.1
=	22.1	0.0	20.0	100.1
=	22.8	0.0	20.0	100.1
=	23.6	0.0	20.0	100.1
=	24.3	0.0	20.0	100.1
=	25.1	0.0	20.0	100.1
=	25.9	0.0	20.0	100.1
=	26.6	0.0	20.0	100.1
=	27.4	0.0	20.0	100.1
=	27.9	0.0	20.0	100.1
=	28.7	0.0	20.0	100.1
=	29.2	0.0	20.0	100.1
=	29.7	0.0	20.0	100.1
=	30.2	0.0	20.0	100.1
=	30.8	0.0	20.0	100.1
=	31.3	0.0	20.0	100.2
=	31.7	0.0	20.0	100.2
=	32.2	0.0	20.0	100.2
=	32.8	0.0	20.0	100.2
=	33.3	0.0	20.0	100.2
=	33.8	0.0	20.0	100.2
=	34.3	0.0	20.0	100.2
=	34.8	0.0	20.0	100.2
=	35.3	0.0	20.0	100.1
=	35.8	0.0	20.0	100.1
=	36.3	0.0	20.0	100.1
=	36.8	0.0	20.0	100.1
=	37.3	0.0	20.0	100.1
=	37.8	0.0	20.0	100.1
=	38.3	0.0	20.0	100.1
=	38.8	0.0	20.0	100.1
=	39.4	0.0	20.0	100.1
=	39.9	0.0	20.0	100.1
=	40.7	0.0	20.0	100.1
=	41.6	0.0	20.0	100.1
=	42.4	0.0	20.0	100.1
=	43.2	0.0	20.0	100.2
=	43.9	0.0	20.0	100.2
=	45.0	0.0	20.0	100.2
=	45.8	0.0	20.0	100.1
=	46.5	0.0	20.0	100.1
=	47.3	0.0	20.0	100.1
=	48.0	0.0	20.0	100.1
=	48.8	0.0	20.0	100.1
=	49.4	0.0	20.0	100.1
=	49.9	0.0	20.0	100.1
=	50.4	0.0	20.0	100.1
=	50.9	0.0	20.0	100.1
=	51.4	0.0	20.0	100.1
=	51.9	0.0	20.0	100.1
=	52.4	0.0	20.0	100.1
=	52.9	0.0	20.0	100.1
=	53.6	0.0	20.0	100.1
=	54.1	0.0	20.0	100.0
=	54.6	0.0	20.0	100.0
=	55.2	0.0	20.0	100.0
=	56.0	0.0	20.0	100.0
=	56.7	0.0	20.0	100.0
=	57.5	0.0	20.0	100.0
=	58.2	0.0	20.0	100.0
=	59.0	0.0	20.0	100.0
=	59.7	0.0	20.0	99.9
=	60.5	0.0	20.0	100.0
=	61.2	0.0	20.0	99.9
=	62.0	0.0	20.0	99.9
=	62.7	0.0	20.0	99.9
=	63.5	0.0	20.0	99.9
=	64.2	0.0	20.0	99.8
=	65.0	0.0	20.0	99.8
=	65.8	0.0	20.0	99.8
=	66.5	0.0	20.0	99.8
=	67.3	0.0	20.0	99.8
=	68.0	0.0	20.0	99.8
=	68.8	0.0	20.0	99.8
=	69.6	0.0	20.0	99.8
=	70.4	0.0	20.0	99.8
=	71.4	0.0	20.0	99.7
=	72.1	0.0	20.0	99.7
=	73.3	0.0	20.0	99.7
=	74.5	0.0	20.0	99.7
=	75.8	0.0	20.0	99.7
=	77.3	0.0	20.0	99.7
=	78.7	0.0	20.0	99.7
=	79.9	0.0	20.0	99.6
=	81.4	0.0	20.0	99.6
=	82.6	0.0	20.0	99.5
=	83.9	0.0	20.0	99.5
=	85.4	0.0	20.0	99.5
=	86.9	0.0	20.0	99.5
=	87.8	0.0	20.0	99.4
=	88.6	0.0	20.0	99.4
=	89.3	0.0	20.0	99.4
=	90.1	0.0	20.0	99.4
=	90.8	0.0	20.0	99.3
=	91.6	0.0	20.0	99.2
=	92.4	0.0	20.0	99.2
=	93.2	0.0	20.0	99.2
=	93.9	0.0	20.0	99.2
=	94.7	0.0	20.0	99.1
=	95.2	0.0	20.0	99.1
=	96.0	0.0	20.0	99.1
=	96.6	0.0	20.0	99.1
=	97.2	0.0	20.0	99.0
=	98.0	0.0	20.0	99.0
=	98.7	0.0	20.0	99.0
=	99.3	0.0	20.0	99.0
=	99.9	0.0	20.0	98.9
=	100.4	0.0	20.0	98.9
=	100.9	0.0	20.0	98.9
=	101.4	0.0	20.0	98.9
=	101.9	0.0	20.0	98.9
=	102.5	0.0	20.0	98.9
=	103.0	0.0	20.0	98.9
=	103.4	0.0	20.0	98.8
=	104.0	0.0	20.0	98.8
=	104.5	0.0	20.0	98.8
=	105.0	0.0	20.0	98.8
=	105.7	0.0	20.0	98.8
=	106.4	0.0	20.0	98.7
=	107.2	0.0	20.0	98.7
=	107.9	0.0	20.0	98.7
=	108.7	0.0	20.0	98.6
=	109.4	0.0	20.0	98.6
=	110.2	0.0	20.0	98.6
=	110.9	0.0	20.0	98.5
=	111.7	0.0	20.0	98.5
=	112.4	0.0	20.0	98.5
=	113.2	0.0	20.0	98.4
=	114.0	0.0	20.0	98.4
=	114.8	0.0	20.0	98.4
=	115.5	0.0	20.0	98.4
=	116.3	0.0	20.0	98.3
=	117.0	0.0	20.0	98.3
=	117.8	0.0	20.0	98.2
=	118.5	0.0	20.0	98.2
=	119.3	0.0	20.0	98.2
=	120.0	0.0	20.0	98.2
=	120.8	0.0	20.0	98.2
=	121.5	0.0	20.0	98.2
=	122.3	0.0	20.0	98.1
=	123.1	0.0	20.0	98.1
=	123.9	0.0	20.0	98.0
=	124.6	0.0	20.0	98.0
=	125.2	0.0	20.0	98.0
=	125.7	0.0	20.0	98.0
=	126.2	0.0	20.0	98.0
=	126.7	0.0	20.0	98.0
=	127.2	0.0	20.0	97.9
=	127.7	0.0	20.0	97.9
=	128.2	0.0	20.0	97.9
=	128.7	0.0	20.0	97.9
=	129.2	0.0	20.0	97.8
=	129.7	0.0	20.0	97.8
=	130.2	0.0	20.0	97.8
=	130.8	0.0	20.0	97.8
=	131.4	0.0	20.0	97.7
=	131.9	0.0	20.0	97.7
=	132.4	0.0	20.0	97.7
=	133.1	0.0	20.0	97.6
=	133.6	0.0	20.0	97.6
=	134.1	0.0	20.0	97.5
=	134.6	0.0	20.0	97.5
=	135.2	0.0	20.0	97.4
=	135.8	0.0	20.0	97.4
=	136.3	0.0	20.0	97.4
=	136.8	0.0	20.0	97.4
=	137.3	0.0	20.0	97.3
=	137.8	0.0	20.0	97.3
=	138.3	0.0	20.0	97.3
=	138.8	0.0	20.0	97.3
=	139.3	0.0	20.0	97.2
=	139.8	0.0	20.0	97.2
=	140.3	0.0	20.0	97.1
=	140.8	0.0	20.0	97.1
=	141.3	0.0	20.0	97.1
=	141.8	0.0	20.0	97.1
=	142.3	0.0	20.0	97.0
=	142.8	0.0	20.0	97.0
=	143.4	0.0	20.0	97.0
=	144.0	0.0	20.0	97.0
=	144.7	0.0	20.0	96.9
=	145.4	0.0	20.0	96.9
=	146.0	0.0	20.0	96.8
=	146.5	0.0	20.0	96.8
=	147.0	0.0	20.0	96.7
=	147.7	0.0	20.0	96.7
=	148.4	0.0	20.0	96.6
=	149.2	0.0	20.0	96.6
=	149.9	0.0	20.0	96.5
=	150.7	0.0	20.0	96.5
=	151.5	0.0	20.0	96.4
=	152.3	0.0	20.0	96.4
=	153.0	0.0	20.0	96.3
=	153.8	0.0	20.0	96.3
=	155.0	0.0	20.0	96.2
=	155.8	0.0	20.0	96.1
=	156.5	0.0	20.0	96.0
=	157.3	0.0	20.0	96.0
=	158.2	0.0	20.0	95.9
=	159.0	0.0	20.0	95.8
=	160.2	0.0	20.0	95.8
=	161.3	0.0	20.0	95.7
=	162.1	0.0	20.0	95.6
=	162.7	0.0	20.0	95.6
=	163.4	0.0	20.0	95.5
=	163.9	0.0	20.0	95.5
=	164.4	0.0	20.0	95.5
=	164.9	0.0	20.0	95.4
=	165.4	0.0	20.0	95.4
=	166.0	0.0	20.0	95.4
=	166.7	0.0	20.0	95.3
=	167.5	0.0	20.0	95.2
=	168.2	0.0	20.0	95.1
=	169.0	0.0	20.0	95.1
=	169.7	0.0	20.0	95.0
=	170.5	0.0	20.0	95.0
=	171.1	0.0	20.0	94.9
=	171.7	0.0	20.0	94.9
=	172.5	0.0	20.0	94.8
=	173.0	0.0	20.0	94.7
=	173.6	0.0	20.0	94.6
=	174.1	0.0	20.0	94.6
=	174.7	0.0	20.0	94.6
=	175.5	0.0	20.0	94.5
=	176.2	0.0	20.0	94.4
=	177.0	0.0	20.0	94.2
=	177.7	0.0	20.0	94.2
=	178.5	0.0	20.0	94.1
=	179.2	0.0	20.0	94.0
=	180.0	0.0	20.0	93.9
=	180.5	0.0	20.0	93.9
=	181.0	0.0	20.0	93.8
=	181.8	0.0	20.0	93.7
=	182.5	0.0	20.0	93.6
=	183.1	0.0	20.0	93.5
=	183.8	0.0	20.0	93.4
=	184.6	0.0	20.0	93.3
=	185.2	0.0	20.0	93.1
=	185.8	0.0	20.0	93.1
=	186.6	0.0	20.0	93.0
=	187.3	0.0	20.0	92.9
=	188.1	0.0	20.0	92.6
=	188.8	0.0	20.0	92.5
=	189.6	0.0	20.0	92.3
=	190.2	0.0	20.0	92.2
=	190.7	0.0	20.0	92.0
=	191.2	0.0	20.0	91.9
=	191.7	0.0	20.0	91.6
=	192.2	0.0	20.0	91.5
=	192.7	0.0	20.0	91.3
=	193.2	0.0	20.0	91.1
=	193.7	0.0	20.0	90.8
=	194.2	0.0	20.0	90.6
=	194.8	0.0	20.0	90.2
=	195.3	0.0	20.0	89.8
=	195.8	0.0	20.0	89.3
=	196.3	0.0	20.0	88.7
=	196.8	0.0	20.0	88.1
=	197.3	0.0	20.0	87.3
=	197.8	0.0	20.0	86.2
=	198.3	0.0	20.0	84.9
=	198.8	0.0	20.0	83.4
=	199.3	0.0	20.0	81.5
=	199.8	0.0	20.0	79.1
=	200.3	0.0	20.0	76.3
=	200.8	0.0	20.0	73.1
=	201.3	0.0	20.0	69.6
=	201.8	0.0	20.0	65.7
=	202.3	0.0	20.0	61.9
=	202.8	0.0	20.0	57.7
=	203.3	0.0	20.0	53.3
=	203.8	0.0	20.0	48.6
=	204.5	0.0	20.0	43.1
=	205.0	0.0	20.0	39.2
=	205.5	0.0	20.0	35.5
=	206.0	0.0	20.0	31.8
=	206.5	0.0	20.0	28.7
=	207.0	0.0	20.0	26.0
=	207.5	0.0	20.0	23.5
=	208.0	0.0	20.0	21.3
=	208.5	0.0	20.0	19.5
=	209.0	0.0	20.0	17.9
=	209.5	0.0	20.0	16.6
=	210.0	0.0	20.0	15.5
=	210.6	0.0	20.0	14.5
=	211.2	0.0	20.0	13.7
=	211.7	0.0	20.0	13.2
=	212.2	0.0	20.0	12.7
=	212.7	0.0	20.0	12.3
=	213.2	0.0	20.0	12.0
=	213.7	0.0	20.0	11.7
=	214.2	0.0	20.0	11.5
=	214.7	0.0	20.0	11.3
=	215.2	0.0	20.0	11.1
=	215.7	0.0	20.0	10.9
=	216.2	0.0	20.0	10.8
=	216.7	0.0	20.0	10.7
=	217.2	0.0	20.0	10.6
=	217.7	0.0	20.0	10.5
=	218.2	0.0	20.0	10.4
=	218.7	0.0	20.0	10.3
=	219.2	0.0	20.0	10.2
=	219.7	0.0	20.0	10.1
=	220.2	0.0	20.0	10.0
=	220.7	0.0	20.0	10.0
=	221.2	0.0	20.0	9.9
=	221.8	0.0	20.0	9.8
=	222.4	0.0	20.0	9.7
=	222.9	0.0	20.0	9.6
=	223.4	0.0	20.0	9.6
=	223.9	0.0	20.0	9.5
=	224.4	0.0	20.0	9.4
=	224.9	0.0	20.0	9.4
=	225.5	0.0	20.0	9.3
=	226.1	0.0	20.0	9.2
=	226.6	0.0	20.0	9.1
=	227.1	0.0	20.0	9.1
=	227.7	0.0	20.0	9.0
=	228.5	0.0	20.0	8.9
=	229.2	0.0	20.0	8.9
=	229.9	0.0	20.0	8.8
=	230.7	0.0	20.0	8.7
=	231.5	0.0	20.0	8.6
=	232.2	0.0	20.0	8.5
=	233.0	0.0	20.0	8.5
=	233.7	0.0	20.0	8.4
=	234.5	0.0	20.0	8.4
=	235.2	0.0	20.0	8.3
=	235.8	0.0	20.0	8.3
=	236.5	0.0	20.0	8.2
=	237.2	0.0	20.0	8.2
=	238.0	0.0	20.0	8.1
=	238.7	0.0	20.0	8.1
=	239.5	0.0	20.0	8.0
=	240.2	0.0	20.0	8.0
=	241.0	0.0	20.0	7.9
=	241.7	0.0	20.0	7.9
=	242.2	0.0	20.0	7.8
=	242.9	0.0	20.0	7.8
=	243.7	0.0	20.0	7.8
=	244.5	0.0	20.0	7.7
=	245.2	0.0	20.0	7.7
=	245.9	0.0	20.0	7.7
=	246.7	0.0	20.0	7.6
=	247.4	0.0	20.0	7.6
=	248.1	0.0	20.0	7.5
=	248.8	0.0	20.0	7.5
=	249.4	0.0	20.0	7.5
=	250.2	0.0	20.0	7.4
=	251.0	0.0	20.0	7.4
=	251.6	0.0	20.0	7.3
=	252.4	0.0	20.0	7.3
=	253.1	0.0	20.0	7.2
=	253.9	0.0	20.0	7.2
=	254.6	0.0	20.0	7.2
=	255.4	0.0	20.0	7.1
=	256.4	0.0	20.0	7.1
=	257.1	0.0	20.0	7.1
=	257.9	0.0	20.0	7.0
=	258.7	0.0	20.0	7.0
=	259.4	0.0	20.0	6.9
=	260.1	0.0	20.0	6.9
=	261.3	0.0	20.0	6.8
=	262.8	0.0	20.0	6.7
=	264.0	0.0	20.0	6.7
=	265.3	0.0	20.0	6.6
=	266.2	0.0	20.0	6.6
=	267.1	0.0	20.0	6.6
=	268.3	0.0	20.0	6.5
=	269.1	0.0	20.0	6.5
=	269.9	0.0	20.0	6.4
=	270.6	0.0	20.0	6.4
=	271.4	0.0	20.0	6.4
=	272.1	0.0	20.0	6.3
=	272.9	0.0	20.0	6.3
:EOM # End of Measurement
#
# RFA300 ASCII Measurement Dump ( BDS format )
#
# Measurement number 	2
#
%VNR 1.0
%MOD 	RAT
%TYP 	SCN
%SCN 	PRO
%FLD 	ION
%DAT 	02-03-2012
%TIM 	12:00:00
%FSZ 	400	200
%BMT 	PHO	   8.0
%SSD 	1000
%BUP 	0
%BRD 	1000
%FSH 	1
%ASC 	0
%WEG 	45
%GPO 	0
%CPO 	0
%MEA 	6
%PRD 	50,0
%PTS 	728
%STS 	    -283.3	  0.0	   50.0 # Start Scan values in mm ( X , Y , Z )
%EDS 	    282.8	   0.0	   50.0 # End Scan values in mm ( X , Y , Z )
#
#	  X      Y      Z     Dose
#
=	-283.3	0.0	50.0	6.1
=	-282.5	0.0	50.0	6.1
=	-281.6	0.0	50.0	6.2
=	-280.8	0.0	50.0	6.2
=	-280.1	0.0	50.0	6.3
=	-279.3	0.0	50.0	6.3
=	-278.1	0.0	50.0	6.4
=	-277.4	0.0	50.0	6.4
=	-276.6	0.0	50.0	6.4
=	-275.9	0.0	50.0	6.5
=	-275.1	0.0	50.0	6.5
=	-274.3	0.0	50.0	6.6
=	-273.6	0.0	50.0	6.6
=	-272.8	0.0	50.0	6.6
=	-272.0	0.0	50.0	6.7
=	-271.3	0.0	50.0	6.7
=	-270.5	0.0	50.0	6.8
=	-269.8	0.0	50.0	6.8
=	-269.0	0.0	50.0	6.8
=	-268.1	0.0	50.0	6.9
=	-267.4	0.0	50.0	6.9
=	-266.6	0.0	50.0	7.0
=	-265.9	0.0	50.0	7.0
=	-265.1	0.0	50.0	7.1
=	-264.4	0.0	50.0	7.1
=	-263.6	0.0	50.0	7.1
=	-262.6	0.0	50.0	7.2
=	-261.9	0.0	50.0	7.2
=	-261.1	0.0	50.0	7.3
=	-260.4	0.0	50.0	7.4
=	-259.6	0.0	50.0	7.4
=	-258.9	0.0	50.0	7.4
=	-257.9	0.0	50.0	7.5
=	-257.0	0.0	50.0	7.5
=	-256.3	0.0	50.0	7.6
=	-255.5	0.0	50.0	7.6
=	-254.7	0.0	50.0	7.7
=	-253.8	0.0	50.0	7.8
=	-253.0	0.0	50.0	7.8
=	-252.2	0.0	50.0	7.9
=	-251.5	0.0	50.0	7.9
=	-250.7	0.0	50.0	8.0
=	-250.0	0.0	50.0	8.0
=	-249.2	0.0	50.0	8.1
=	-248.5	0.0	50.0	8.1
=	-247.7	0.0	50.0	8.2
=	-247.0	0.0	50.0	8.2
=	-246.2	0.0	50.0	8.3
=	-245.4	0.0	50.0	8.3
=	-244.7	0.0	50.0	8.4
=	-243.9	0.0	50.0	8.4
=	-243.2	0.0	50.0	8.5
=	-242.4	0.0	50.0	8.6
=	-241.6	0.0	50.0	8.7
=	-241.0	0.0	50.0	8.7
=	-240.1	0.0	50.0	8.8
=	-239.4	0.0	50.0	8.9
=	-238.6	0.0	50.0	9.0
=	-237.9	0.0	50.0	9.1
=	-237.1	0.0	50.0	9.2
=	-236.4	0.0	50.0	9.3
=	-235.6	0.0	50.0	9.3
=	-234.9	0.0	50.0	9.4
=	-234.1	0.0	50.0	9.6
=	-233.4	0.0	50.0	9.7
=	-232.6	0.0	50.0	9.8
=	-231.9	0.0	50.0	9.9
=	-231.1	0.0	50.0	10.0
=	-230.3	0.0	50.0	10.1
=	-229.6	0.0	50.0	10.3
=	-228.9	0.0	50.0	10.4
=	-228.1	0.0	50.0	10.5
=	-227.3	0.0	50.0	10.6
=	-226.6	0.0	50.0	10.8
=	-225.9	0.0	50.0	10.9
=	-225.1	0.0	50.0	11.1
=	-224.3	0.0	50.0	11.3
=	-223.6	0.0	50.0	11.5
=	-222.8	0.0	50.0	11.7
=	-222.1	0.0	50.0	11.9
=	-221.3	0.0	50.0	12.2
=	-220.5	0.0	50.0	12.5
=	-219.8	0.0	50.0	12.9
=	-219.0	0.0	50.0	13.4
=	-218.3	0.0	50.0	13.9
=	-217.5	0.0	50.0	14.7
=	-216.8	0.0	50.0	15.6
=	-216.0	0.0	50.0	16.9
=	-215.3	0.0	50.0	18.5
=	-214.5	0.0	50.0	20.7
=	-213.8	0.0	50.0	23.3
=	-213.0	0.0	50.0	26.8
=	-212.3	0.0	50.0	30.7
=	-211.5	0.0	50.0	35.7
=	-210.8	0.0	50.0	40.6
=	-210.0	0.0	50.0	46.4
=	-209.3	0.0	50.0	52.0
=	-208.5	0.0	50.0	58.3
=	-207.8	0.0	50.0	63.5
=	-207.0	0.0	50.0	68.8
=	-206.2	0.0	50.0	73.3
=	-205.5	0.0	50.0	77.0
=	-204.7	0.0	50.0	80.0
=	-203.9	0.0	50.0	82.4
=	-203.2	0.0	50.0	84.0
=	-202.4	0.0	50.0	85.4
=	-201.7	0.0	50.0	86.3
=	-200.9	0.0	50.0	87.1
=	-200.2	0.0	50.0	87.8
=	-199.4	0.0	50.0	88.3
=	-198.7	0.0	50.0	88.7
=	-197.9	0.0	50.0	89.1
=	-197.2	0.0	50.0	89.4
=	-196.4	0.0	50.0	89.7
=	-195.7	0.0	50.0	89.9
=	-194.9	0.0	50.0	90.2
=	-194.3	0.0	50.0	90.3
=	-193.7	0.0	50.0	90.5
=	-192.9	0.0	50.0	90.8
=	-192.1	0.0	50.0	91.0
=	-191.6	0.0	50.0	91.1
=	-190.9	0.0	50.0	91.2
=	-190.4	0.0	50.0	91.4
=	-189.8	0.0	50.0	91.5
=	-189.1	0.0	50.0	91.6
=	-188.3	0.0	50.0	91.7
=	-187.8	0.0	50.0	91.8
=	-187.2	0.0	50.0	91.9
=	-186.7	0.0	50.0	92.0
=	-186.2	0.0	50.0	92.1
=	-185.6	0.0	50.0	92.3
=	-184.8	0.0	50.0	92.4
=	-184.1	0.0	50.0	92.4
=	-183.3	0.0	50.0	92.5
=	-182.6	0.0	50.0	92.7
=	-181.8	0.0	50.0	92.8
=	-181.1	0.0	50.0	92.8
=	-180.3	0.0	50.0	92.9
=	-179.6	0.0	50.0	93.0
=	-178.8	0.0	50.0	93.1
=	-178.1	0.0	50.0	93.2
=	-177.5	0.0	50.0	93.2
=	-176.8	0.0	50.0	93.4
=	-176.1	0.0	50.0	93.5
=	-175.3	0.0	50.0	93.5
=	-174.6	0.0	50.0	93.6
=	-173.8	0.0	50.0	93.7
=	-173.0	0.0	50.0	93.8
=	-172.3	0.0	50.0	93.9
=	-171.5	0.0	50.0	94.0
=	-170.8	0.0	50.0	94.0
=	-170.0	0.0	50.0	94.1
=	-169.3	0.0	50.0	94.2
=	-168.3	0.0	50.0	94.3
=	-166.9	0.0	50.0	94.4
=	-165.7	0.0	50.0	94.6
=	-164.2	0.0	50.0	94.7
=	-162.9	0.0	50.0	94.8
=	-161.9	0.0	50.0	94.8
=	-161.0	0.0	50.0	94.9
=	-160.3	0.0	50.0	95.0
=	-159.5	0.0	50.0	95.1
=	-158.8	0.0	50.0	95.1
=	-158.0	0.0	50.0	95.1
=	-157.3	0.0	50.0	95.2
=	-156.5	0.0	50.0	95.3
=	-155.8	0.0	50.0	95.3
=	-155.0	0.0	50.0	95.4
=	-154.3	0.0	50.0	95.5
=	-153.5	0.0	50.0	95.5
=	-152.8	0.0	50.0	95.6
=	-152.0	0.0	50.0	95.6
=	-151.3	0.0	50.0	95.7
=	-150.5	0.0	50.0	95.7
=	-149.7	0.0	50.0	95.8
=	-149.0	0.0	50.0	95.9
=	-148.2	0.0	50.0	95.9
=	-147.4	0.0	50.0	96.0
=	-146.7	0.0	50.0	96.0
=	-145.9	0.0	50.0	96.1
=	-145.2	0.0	50.0	96.1
=	-144.4	0.0	50.0	96.1
=	-143.7	0.0	50.0	96.2
=	-142.9	0.0	50.0	96.3
=	-142.2	0.0	50.0	96.4
=	-141.4	0.0	50.0	96.4
=	-140.7	0.0	50.0	96.5
=	-139.9	0.0	50.0	96.5
=	-139.2	0.0	50.0	96.6
=	-138.4	0.0	50.0	96.6
=	-137.7	0.0	50.0	96.6
=	-136.9	0.0	50.0	96.7
=	-136.2	0.0	50.0	96.7
=	-135.4	0.0	50.0	96.7
=	-134.6	0.0	50.0	96.8
=	-133.9	0.0	50.0	96.9
=	-133.1	0.0	50.0	96.9
=	-132.3	0.0	50.0	96.9
=	-131.6	0.0	50.0	97.0
=	-130.9	0.0	50.0	97.0
=	-130.1	0.0	50.0	97.0
=	-129.3	0.0	50.0	97.1
=	-128.6	0.0	50.0	97.2
=	-127.8	0.0	50.0	97.2
=	-127.1	0.0	50.0	97.3
=	-126.3	0.0	50.0	97.3
=	-125.5	0.0	50.0	97.4
=	-125.0	0.0	50.0	97.4
=	-124.5	0.0	50.0	97.4
=	-124.0	0.0	50.0	97.4
=	-123.5	0.0	50.0	97.5
=	-122.8	0.0	50.0	97.5
=	-122.3	0.0	50.0	97.5
=	-121.5	0.0	50.0	97.6
=	-121.0	0.0	50.0	97.6
=	-120.2	0.0	50.0	97.6
=	-119.5	0.0	50.0	97.6
=	-118.7	0.0	50.0	97.7
=	-118.0	0.0	50.0	97.7
=	-117.3	0.0	50.0	97.7
=	-116.5	0.0	50.0	97.8
=	-115.7	0.0	50.0	97.9
=	-115.0	0.0	50.0	97.9
=	-114.2	0.0	50.0	97.9
=	-113.4	0.0	50.0	98.0
=	-112.7	0.0	50.0	98.0
=	-111.9	0.0	50.0	98.0
=	-111.2	0.0	50.0	98.1
=	-110.4	0.0	50.0	98.1
=	-109.7	0.0	50.0	98.1
=	-108.9	0.0	50.0	98.2
=	-108.2	0.0	50.0	98.2
=	-107.4	0.0	50.0	98.2
=	-106.7	0.0	50.0	98.2
=	-105.9	0.0	50.0	98.3
=	-105.1	0.0	50.0	98.4
=	-104.3	0.0	50.0	98.4
=	-103.6	0.0	50.0	98.4
=	-102.8	0.0	50.0	98.5
=	-102.1	0.0	50.0	98.5
=	-101.3	0.0	50.0	98.5
=	-100.6	0.0	50.0	98.5
=	-99.8	0.0	50.0	98.6
=	-99.1	0.0	50.0	98.6
=	-98.3	0.0	50.0	98.6
=	-97.6	0.0	50.0	98.6
=	-97.0	0.0	50.0	98.7
=	-96.2	0.0	50.0	98.7
=	-95.5	0.0	50.0	98.7
=	-94.7	0.0	50.0	98.7
=	-94.0	0.0	50.0	98.8
=	-93.2	0.0	50.0	98.8
=	-92.6	0.0	50.0	98.8
=	-91.9	0.0	50.0	98.9
=	-91.1	0.0	50.0	98.9
=	-90.3	0.0	50.0	98.9
=	-89.6	0.0	50.0	98.9
=	-88.7	0.0	50.0	99.0
=	-88.0	0.0	50.0	99.0
=	-86.9	0.0	50.0	99.0
=	-85.7	0.0	50.0	99.1
=	-84.3	0.0	50.0	99.1
=	-82.9	0.0	50.0	99.2
=	-81.3	0.0	50.0	99.2
=	-79.8	0.0	50.0	99.2
=	-78.3	0.0	50.0	99.3
=	-77.1	0.0	50.0	99.3
=	-76.1	0.0	50.0	99.3
=	-75.1	0.0	50.0	99.3
=	-74.3	0.0	50.0	99.4
=	-73.5	0.0	50.0	99.4
=	-72.8	0.0	50.0	99.4
=	-72.0	0.0	50.0	99.5
=	-71.3	0.0	50.0	99.5
=	-70.5	0.0	50.0	99.5
=	-69.8	0.0	50.0	99.6
=	-69.0	0.0	50.0	99.6
=	-68.2	0.0	50.0	99.6
=	-67.5	0.0	50.0	99.6
=	-66.7	0.0	50.0	99.6
=	-66.0	0.0	50.0	99.6
=	-65.2	0.0	50.0	99.6
=	-64.5	0.0	50.0	99.6
=	-63.7	0.0	50.0	99.7
=	-62.9	0.0	50.0	99.7
=	-62.1	0.0	50.0	99.7
=	-61.4	0.0	50.0	99.7
=	-60.6	0.0	50.0	99.7
=	-59.9	0.0	50.0	99.8
=	-59.1	0.0	50.0	99.8
=	-58.4	0.0	50.0	99.8
=	-57.6	0.0	50.0	99.8
=	-56.9	0.0	50.0	99.8
=	-56.1	0.0	50.0	99.8
=	-55.3	0.0	50.0	99.8
=	-54.5	0.0	50.0	99.8
=	-53.8	0.0	50.0	99.9
=	-53.0	0.0	50.0	99.9
=	-52.3	0.0	50.0	99.9
=	-51.5	0.0	50.0	99.9
=	-50.1	0.0	50.0	100.0
=	-48.6	0.0	50.0	100.0
=	-47.1	0.0	50.0	100.0
=	-45.6	0.0	50.0	100.0
=	-44.0	0.0	50.0	100.0
=	-42.8	0.0	50.0	100.0
=	-41.8	0.0	50.0	100.0
=	-41.1	0.0	50.0	100.0
=	-40.3	0.0	50.0	100.0
=	-39.6	0.0	50.0	100.0
=	-38.8	0.0	50.0	100.0
=	-38.1	0.0	50.0	100.0
=	-37.1	0.0	50.0	100.1
=	-36.3	0.0	50.0	100.1
=	-35.5	0.0	50.0	100.1
=	-34.7	0.0	50.0	100.1
=	-34.0	0.0	50.0	100.1
=	-33.3	0.0	50.0	100.1
=	-32.5	0.0	50.0	100.1
=	-31.7	0.0	50.0	100.1
=	-30.9	0.0	50.0	100.1
=	-30.1	0.0	50.0	100.1
=	-29.4	0.0	50.0	100.1
=	-28.7	0.0	50.0	100.1
=	-28.1	0.0	50.0	100.1
=	-27.4	0.0	50.0	100.1
=	-26.8	0.0	50.0	100.1
=	-26.3	0.0	50.0	100.1
=	-25.8	0.0	50.0	100.1
=	-25.1	0.0	50.0	100.1
=	-24.6	0.0	50.0	100.1
=	-24.0	0.0	50.0	100.1
=	-23.2	0.0	50.0	100.1
=	-22.6	0.0	50.0	100.1
=	-22.0	0.0	50.0	100.1
=	-21.4	0.0	50.0	100.1
=	-20.7	0.0	50.0	100.1
=	-20.0	0.0	50.0	100.1
=	-19.4	0.0	50.0	100.1
=	-18.7	0.0	50.0	100.1
=	-17.9	0.0	50.0	100.1
=	-17.2	0.0	50.0	100.1
=	-16.4	0.0	50.0	100.1
=	-15.6	0.0	50.0	100.1
=	-15.0	0.0	50.0	100.1
=	-14.1	0.0	50.0	100.0
=	-13.4	0.0	50.0	100.0
=	-12.6	0.0	50.0	100.0
=	-11.9	0.0	50.0	100.0
=	-11.1	0.0	50.0	100.0
=	-10.4	0.0	50.0	100.0
=	-9.6	0.0	50.0	100.0
=	-8.9	0.0	50.0	100.0
=	-8.1	0.0	50.0	100.0
=	-7.4	0.0	50.0	100.0
=	-6.6	0.0	50.0	100.0
=	-5.8	0.0	50.0	100.0
=	-5.1	0.0	50.0	100.0
=	-4.3	0.0	50.0	100.0
=	-3.6	0.0	50.0	100.0
=	-2.8	0.0	50.0	100.0
=	-2.0	0.0	50.0	100.0
=	-1.3	0.0	50.0	100.0
=	-0.5	0.0	50.0	100.0
=	0.1	0.0	50.0	100.0
=	0.8	0.0	50.0	100.0
=	1.6	0.0	50.0	100.0
=	2.3	0.0	50.0	100.0
=	3.0	0.0	50.0	100.0
=	3.8	0.0	50.0	100.0
=	4.6	0.0	50.0	100.0
=	5.3	0.0	50.0	100.0
=	6.1	0.0	50.0	100.0
=	6.9	0.0	50.0	100.0
=	7.6	0.0	50.0	100.0
=	8.4	0.0	50.0	100.0
=	9.1	0.0	50.0	100.0
=	9.9	0.0	50.0	100.0
=	10.6	0.0	50.0	100.0
=	11.4	0.0	50.0	100.0
=	12.1	0.0	50.0	100.0
=	12.9	0.0	50.0	100.0
=	13.6	0.0	50.0	100.0
=	14.4	0.0	50.0	100.0
=	15.2	0.0	50.0	100.1
=	15.9	0.0	50.0	100.1
=	16.7	0.0	50.0	100.1
=	17.4	0.0	50.0	100.1
=	18.2	0.0	50.0	100.1
=	19.0	0.0	50.0	100.1
=	19.5	0.0	50.0	100.1
=	20.2	0.0	50.0	100.1
=	21.0	0.0	50.0	100.1
=	21.6	0.0	50.0	100.1
=	22.2	0.0	50.0	100.1
=	22.7	0.0	50.0	100.1
=	23.5	0.0	50.0	100.1
=	24.2	0.0	50.0	100.1
=	24.8	0.0	50.0	100.1
=	25.4	0.0	50.0	100.1
=	26.0	0.0	50.0	100.1
=	26.4	0.0	50.0	100.1
=	26.9	0.0	50.0	100.1
=	27.7	0.0	50.0	100.1
=	28.3	0.0	50.0	100.1
=	28.9	0.0	50.0	100.1
=	29.6	0.0	50.0	100.1
=	30.4	0.0	50.0	100.1
=	31.2	0.0	50.0	100.1
=	32.0	0.0	50.0	100.1
=	32.7	0.0	50.0	100.1
=	33.5	0.0	50.0	100.1
=	34.2	0.0	50.0	100.1
=	35.0	0.0	50.0	100.1
=	35.8	0.0	50.0	100.1
=	36.6	0.0	50.0	100.1
=	37.5	0.0	50.0	100.1
=	38.3	0.0	50.0	100.0
=	39.1	0.0	50.0	100.0
=	39.8	0.0	50.0	100.0
=	40.6	0.0	50.0	100.0
=	41.3	0.0	50.0	100.0
=	42.2	0.0	50.0	100.0
=	43.2	0.0	50.0	100.0
=	44.6	0.0	50.0	100.0
=	46.1	0.0	50.0	100.0
=	47.6	0.0	50.0	100.0
=	49.1	0.0	50.0	100.0
=	50.6	0.0	50.0	100.0
=	51.8	0.0	50.0	99.9
=	52.5	0.0	50.0	99.9
=	53.3	0.0	50.0	99.9
=	54.0	0.0	50.0	99.9
=	54.8	0.0	50.0	99.8
=	55.6	0.0	50.0	99.8
=	56.3	0.0	50.0	99.8
=	57.1	0.0	50.0	99.8
=	57.9	0.0	50.0	99.8
=	58.6	0.0	50.0	99.8
=	59.4	0.0	50.0	99.8
=	60.1	0.0	50.0	99.7
=	60.9	0.0	50.0	99.7
=	61.6	0.0	50.0	99.7
=	62.4	0.0	50.0	99.7
=	63.2	0.0	50.0	99.7
=	63.9	0.0	50.0	99.7
=	64.7	0.0	50.0	99.6
=	65.4	0.0	50.0	99.6
=	66.2	0.0	50.0	99.6
=	67.0	0.0	50.0	99.6
=	67.7	0.0	50.0	99.6
=	68.5	0.0	50.0	99.6
=	69.3	0.0	50.0	99.6
=	70.0	0.0	50.0	99.5
=	70.8	0.0	50.0	99.5
=	71.5	0.0	50.0	99.5
=	72.3	0.0	50.0	99.4
=	73.0	0.0	50.0	99.4
=	73.8	0.0	50.0	99.4
=	74.5	0.0	50.0	99.3
=	75.4	0.0	50.0	99.3
=	76.4	0.0	50.0	99.3
=	77.4	0.0	50.0	99.3
=	78.8	0.0	50.0	99.3
=	80.3	0.0	50.0	99.2
=	81.8	0.0	50.0	99.2
=	83.3	0.0	50.0	99.2
=	84.9	0.0	50.0	99.1
=	86.0	0.0	50.0	99.1
=	87.4	0.0	50.0	99.0
=	88.2	0.0	50.0	99.0
=	89.1	0.0	50.0	98.9
=	89.8	0.0	50.0	98.9
=	90.6	0.0	50.0	98.9
=	91.4	0.0	50.0	98.9
=	92.2	0.0	50.0	98.9
=	92.8	0.0	50.0	98.8
=	93.4	0.0	50.0	98.8
=	94.2	0.0	50.0	98.7
=	95.0	0.0	50.0	98.7
=	95.7	0.0	50.0	98.7
=	96.5	0.0	50.0	98.7
=	97.2	0.0	50.0	98.7
=	97.8	0.0	50.0	98.6
=	98.6	0.0	50.0	98.6
=	99.3	0.0	50.0	98.6
=	100.1	0.0	50.0	98.5
=	100.8	0.0	50.0	98.5
=	101.6	0.0	50.0	98.5
=	102.3	0.0	50.0	98.5
=	103.1	0.0	50.0	98.5
=	103.8	0.0	50.0	98.4
=	104.6	0.0	50.0	98.4
=	105.4	0.0	50.0	98.3
