:MSR 	5	 # No. of measurement in file
:SYS BDS 0   # Beam Data Scanner System
#
# RFA300 ASCII Measurement Dump ( BDS format )
#
# Measurement number 	1
#
%VNR 1.0
%MOD 	RAT
%TYP 	SCN
%SCN 	PRO
%FLD 	ION
%DAT 	02-03-2012
%TIM 	12:00:00
%FSZ 	400	200
%BMT 	PHO	   8.0
%SSD 	1000
%BUP 	0
%BRD 	1000
%FSH 	1
%ASC 	0
%WEG 	45
%GPO 	0
%CPO 	0
%MEA 	6
%PRD 	20,0
%PTS 	809
%STS 	    0.0	  -273.4	   20.0 # Start Scan values in mm ( X , Y , Z )
%EDS 	    0.0	   272.9	   20.0 # End Scan values in mm ( X , Y , Z )
#
#	  X      Y      Z     Dose
#
=	0.0	-273.4	20.0	6.3
=	0.0	-272.6	20.0	6.3
=	0.0	-271.9	20.0	6.4
=	0.0	-271.1	20.0	6.4
=	0.0	-270.4	20.0	6.4
=	0.0	-269.6	20.0	6.4
=	0.0	-268.9	20.0	6.5
=	0.0	-267.8	20.0	6.5
=	0.0	-266.8	20.0	6.6
=	0.0	-266.0	20.0	6.6
=	0.0	-264.8	20.0	6.7
=	0.0	-263.6	20.0	6.7
=	0.0	-262.3	20.0	6.8
=	0.0	-260.8	20.0	6.8
=	0.0	-259.9	20.0	6.9
=	0.0	-259.2	20.0	7.0
=	0.0	-258.4	20.0	7.0
=	0.0	-257.6	20.0	7.0
=	0.0	-256.9	20.0	7.1
=	0.0	-256.1	20.0	7.1
=	0.0	-255.1	20.0	7.1
=	0.0	-254.4	20.0	7.2
=	0.0	-253.6	20.0	7.2
=	0.0	-252.9	20.0	7.3
=	0.0	-252.1	20.0	7.3
=	0.0	-251.4	20.0	7.3
=	0.0	-250.7	20.0	7.4
=	0.0	-250.0	20.0	7.4
=	0.0	-249.2	20.0	7.5
=	0.0	-248.6	20.0	7.5
=	0.0	-247.9	20.0	7.5
=	0.0	-247.2	20.0	7.6
=	0.0	-246.4	20.0	7.6
=	0.0	-245.7	20.0	7.7
=	0.0	-245.0	20.0	7.7
=	0.0	-244.2	20.0	7.7
=	0.0	-243.5	20.0	7.8
=	0.0	-242.7	20.0	7.8
=	0.0	-242.0	20.0	7.9
=	0.0	-241.5	20.0	7.9
=	0.0	-240.7	20.0	7.9
=	0.0	-240.0	20.0	8.0
=	0.0	-239.2	20.0	8.0
=	0.0	-238.5	20.0	8.1
=	0.0	-237.7	20.0	8.1
=	0.0	-237.0	20.0	8.2
=	0.0	-236.2	20.0	8.2
=	0.0	-235.6	20.0	8.3
=	0.0	-235.0	20.0	8.3
=	0.0	-234.2	20.0	8.4
=	0.0	-233.5	20.0	8.4
=	0.0	-232.7	20.0	8.5
=	0.0	-232.0	20.0	8.6
=	0.0	-231.2	20.0	8.7
=	0.0	-230.5	20.0	8.7
=	0.0	-229.7	20.0	8.8
=	0.0	-229.0	20.0	8.9
=	0.0	-228.2	20.0	9.0
=	0.0	-227.4	20.0	9.1
=	0.0	-226.9	20.0	9.1
=	0.0	-226.4	20.0	9.2
=	0.0	-225.9	20.0	9.2
=	0.0	-225.3	20.0	9.3
=	0.0	-224.7	20.0	9.4
=	0.0	-224.2	20.0	9.5
=	0.0	-223.7	20.0	9.5
=	0.0	-223.2	20.0	9.6
=	0.0	-222.7	20.0	9.6
=	0.0	-222.2	20.0	9.7
=	0.0	-221.6	20.0	9.8
=	0.0	-221.1	20.0	9.9
=	0.0	-220.5	20.0	10.0
=	0.0	-220.0	20.0	10.1
=	0.0	-219.6	20.0	10.1
=	0.0	-219.1	20.0	10.2
=	0.0	-218.5	20.0	10.3
=	0.0	-218.0	20.0	10.4
=	0.0	-217.5	20.0	10.5
=	0.0	-217.0	20.0	10.6
=	0.0	-216.5	20.0	10.7
=	0.0	-216.0	20.0	10.8
=	0.0	-215.5	20.0	11.0
=	0.0	-215.0	20.0	11.1
=	0.0	-214.5	20.0	11.3
=	0.0	-214.0	20.0	11.6
=	0.0	-213.5	20.0	11.8
=	0.0	-213.0	20.0	12.1
=	0.0	-212.5	20.0	12.4
=	0.0	-212.0	20.0	12.8
=	0.0	-211.5	20.0	13.4
=	0.0	-211.0	20.0	14.0
=	0.0	-210.4	20.0	14.9
=	0.0	-209.8	20.0	15.9
=	0.0	-209.3	20.0	17.0
=	0.0	-208.8	20.0	18.4
=	0.0	-208.3	20.0	20.1
=	0.0	-207.8	20.0	22.0
=	0.0	-207.3	20.0	24.3
=	0.0	-206.8	20.0	26.8
=	0.0	-206.3	20.0	29.7
=	0.0	-205.8	20.0	33.0
=	0.0	-205.3	20.0	36.7
=	0.0	-204.8	20.0	40.5
=	0.0	-204.3	20.0	44.6
=	0.0	-203.6	20.0	50.4
=	0.0	-203.1	20.0	54.8
=	0.0	-202.6	20.0	59.1
=	0.0	-202.1	20.0	63.2
=	0.0	-201.6	20.0	67.1
=	0.0	-201.1	20.0	70.8
=	0.0	-200.6	20.0	74.2
=	0.0	-200.1	20.0	77.3
=	0.0	-199.6	20.0	79.9
=	0.0	-199.1	20.0	82.1
=	0.0	-198.6	20.0	83.9
=	0.0	-198.1	20.0	85.4
=	0.0	-197.6	20.0	86.6
=	0.0	-197.1	20.0	87.7
=	0.0	-196.6	20.0	88.3
=	0.0	-196.1	20.0	88.9
=	0.0	-195.6	20.0	89.5
=	0.0	-195.1	20.0	90.0
=	0.0	-194.6	20.0	90.4
=	0.0	-194.1	20.0	90.7
=	0.0	-193.6	20.0	90.9
=	0.0	-193.1	20.0	91.2
=	0.0	-192.6	20.0	91.4
=	0.0	-192.1	20.0	91.6
=	0.0	-191.6	20.0	91.7
=	0.0	-191.1	20.0	91.9
=	0.0	-190.6	20.0	92.1
=	0.0	-190.1	20.0	92.2
=	0.0	-189.3	20.0	92.4
=	0.0	-188.6	20.0	92.5
=	0.0	-187.8	20.0	92.7
=	0.0	-187.1	20.0	92.9
=	0.0	-186.3	20.0	93.0
=	0.0	-185.6	20.0	93.1
=	0.0	-185.0	20.0	93.2
=	0.0	-184.3	20.0	93.3
=	0.0	-183.6	20.0	93.4
=	0.0	-182.9	20.0	93.5
=	0.0	-182.3	20.0	93.6
=	0.0	-181.5	20.0	93.7
=	0.0	-180.8	20.0	93.8
=	0.0	-180.3	20.0	93.9
=	0.0	-179.7	20.0	94.0
=	0.0	-179.0	20.0	94.1
=	0.0	-178.2	20.0	94.1
=	0.0	-177.5	20.0	94.2
=	0.0	-176.7	20.0	94.3
=	0.0	-176.0	20.0	94.4
=	0.0	-175.2	20.0	94.5
=	0.0	-174.5	20.0	94.6
=	0.0	-174.0	20.0	94.6
=	0.0	-173.5	20.0	94.6
=	0.0	-172.8	20.0	94.7
=	0.0	-172.2	20.0	94.8
=	0.0	-171.5	20.0	94.9
=	0.0	-171.0	20.0	94.9
=	0.0	-170.2	20.0	95.0
=	0.0	-169.5	20.0	95.0
=	0.0	-168.7	20.0	95.1
=	0.0	-168.0	20.0	95.2
=	0.0	-167.2	20.0	95.3
=	0.0	-166.5	20.0	95.3
=	0.0	-165.7	20.0	95.4
=	0.0	-165.3	20.0	95.4
=	0.0	-164.8	20.0	95.4
=	0.0	-164.3	20.0	95.5
=	0.0	-163.7	20.0	95.5
=	0.0	-163.2	20.0	95.5
=	0.0	-162.5	20.0	95.6
=	0.0	-161.8	20.0	95.7
=	0.0	-161.0	20.0	95.7
=	0.0	-159.7	20.0	95.8
=	0.0	-158.8	20.0	95.9
=	0.0	-157.8	20.0	95.9
=	0.0	-157.0	20.0	96.0
=	0.0	-156.3	20.0	96.0
=	0.0	-155.5	20.0	96.1
=	0.0	-154.7	20.0	96.2
=	0.0	-153.5	20.0	96.3
=	0.0	-152.8	20.0	96.3
=	0.0	-152.0	20.0	96.4
=	0.0	-151.2	20.0	96.4
=	0.0	-150.4	20.0	96.5
=	0.0	-149.7	20.0	96.6
=	0.0	-148.9	20.0	96.6
=	0.0	-148.2	20.0	96.6
=	0.0	-147.5	20.0	96.7
=	0.0	-146.9	20.0	96.8
=	0.0	-146.4	20.0	96.8
=	0.0	-145.9	20.0	96.8
=	0.0	-145.2	20.0	96.9
=	0.0	-144.4	20.0	96.9
=	0.0	-143.9	20.0	97.0
=	0.0	-143.2	20.0	97.0
=	0.0	-142.7	20.0	97.0
=	0.0	-142.2	20.0	97.0
=	0.0	-141.7	20.0	97.1
=	0.0	-141.1	20.0	97.1
=	0.0	-140.6	20.0	97.1
=	0.0	-140.1	20.0	97.2
=	0.0	-139.6	20.0	97.2
=	0.0	-139.1	20.0	97.2
=	0.0	-138.6	20.0	97.3
=	0.0	-138.1	20.0	97.3
=	0.0	-137.6	20.0	97.3
=	0.0	-137.1	20.0	97.3
=	0.0	-136.6	20.0	97.4
=	0.0	-136.1	20.0	97.4
=	0.0	-135.6	20.0	97.4
=	0.0	-134.9	20.0	97.4
=	0.0	-134.4	20.0	97.5
=	0.0	-133.9	20.0	97.5
=	0.0	-133.4	20.0	97.6
=	0.0	-132.9	20.0	97.6
=	0.0	-132.3	20.0	97.7
=	0.0	-131.8	20.0	97.7
=	0.0	-131.2	20.0	97.7
=	0.0	-130.6	20.0	97.8
=	0.0	-130.1	20.0	97.8
=	0.0	-129.6	20.0	97.8
=	0.0	-129.1	20.0	97.9
=	0.0	-128.6	20.0	97.9
=	0.0	-128.0	20.0	97.9
=	0.0	-127.5	20.0	97.9
=	0.0	-127.0	20.0	98.0
=	0.0	-126.5	20.0	98.0
=	0.0	-126.0	20.0	98.0
=	0.0	-125.5	20.0	98.0
=	0.0	-125.0	20.0	98.0
=	0.0	-124.4	20.0	98.0
=	0.0	-123.6	20.0	98.0
=	0.0	-122.8	20.0	98.1
=	0.0	-122.0	20.0	98.1
=	0.0	-121.3	20.0	98.2
=	0.0	-120.5	20.0	98.2
=	0.0	-119.8	20.0	98.2
=	0.0	-119.0	20.0	98.2
=	0.0	-118.3	20.0	98.2
=	0.0	-117.5	20.0	98.2
=	0.0	-116.8	20.0	98.3
=	0.0	-116.0	20.0	98.4
=	0.0	-115.3	20.0	98.4
=	0.0	-114.5	20.0	98.4
=	0.0	-113.7	20.0	98.4
=	0.0	-112.9	20.0	98.5
=	0.0	-112.2	20.0	98.5
=	0.0	-111.5	20.0	98.5
=	0.0	-110.7	20.0	98.5
=	0.0	-109.9	20.0	98.6
=	0.0	-109.2	20.0	98.6
=	0.0	-108.4	20.0	98.7
=	0.0	-107.7	20.0	98.7
=	0.0	-106.9	20.0	98.7
=	0.0	-106.2	20.0	98.7
=	0.0	-105.4	20.0	98.8
=	0.0	-104.8	20.0	98.8
=	0.0	-104.3	20.0	98.8
=	0.0	-103.8	20.0	98.8
=	0.0	-103.3	20.0	98.8
=	0.0	-102.8	20.0	98.9
=	0.0	-102.3	20.0	98.9
=	0.0	-101.8	20.0	98.9
=	0.0	-101.3	20.0	98.9
=	0.0	-100.8	20.0	98.9
=	0.0	-100.3	20.0	98.9
=	0.0	-99.8	20.0	98.9
=	0.0	-99.1	20.0	99.0
=	0.0	-98.5	20.0	99.0
=	0.0	-97.8	20.0	99.0
=	0.0	-97.0	20.0	99.1
=	0.0	-96.4	20.0	99.1
=	0.0	-95.7	20.0	99.1
=	0.0	-95.0	20.0	99.1
=	0.0	-94.4	20.0	99.1
=	0.0	-93.7	20.0	99.2
=	0.0	-92.9	20.0	99.2
=	0.0	-92.1	20.0	99.2
=	0.0	-91.3	20.0	99.3
=	0.0	-90.6	20.0	99.3
=	0.0	-89.8	20.0	99.4
=	0.0	-89.1	20.0	99.4
=	0.0	-88.3	20.0	99.4
=	0.0	-87.6	20.0	99.4
=	0.0	-86.5	20.0	99.5
=	0.0	-84.9	20.0	99.5
=	0.0	-83.4	20.0	99.5
=	0.0	-82.3	20.0	99.5
=	0.0	-80.9	20.0	99.6
=	0.0	-79.4	20.0	99.7
=	0.0	-78.3	20.0	99.7
=	0.0	-76.8	20.0	99.7
=	0.0	-75.3	20.0	99.7
=	0.0	-74.1	20.0	99.7
=	0.0	-72.8	20.0	99.7
=	0.0	-71.9	20.0	99.7
=	0.0	-71.1	20.0	99.7
=	0.0	-70.1	20.0	99.8
=	0.0	-69.4	20.0	99.8
=	0.0	-68.6	20.0	99.8
=	0.0	-67.8	20.0	99.8
=	0.0	-67.0	20.0	99.8
=	0.0	-66.3	20.0	99.8
=	0.0	-65.5	20.0	99.8
=	0.0	-64.8	20.0	99.8
=	0.0	-64.0	20.0	99.8
=	0.0	-63.2	20.0	99.9
=	0.0	-62.5	20.0	99.9
=	0.0	-61.7	20.0	99.9
=	0.0	-61.0	20.0	99.9
=	0.0	-60.2	20.0	100.0
=	0.0	-59.5	20.0	100.0
=	0.0	-58.7	20.0	100.0
=	0.0	-58.0	20.0	100.0
=	0.0	-57.2	20.0	100.0
=	0.0	-56.5	20.0	100.0
=	0.0	-55.7	20.0	100.0
=	0.0	-55.0	20.0	100.0
=	0.0	-54.4	20.0	100.0
=	0.0	-53.9	20.0	100.0
=	0.0	-53.4	20.0	100.1
=	0.0	-52.7	20.0	100.1
=	0.0	-52.2	20.0	100.1
=	0.0	-51.7	20.0	100.1
=	0.0	-51.2	20.0	100.1
=	0.0	-50.7	20.0	100.1
=	0.0	-50.2	20.0	100.1
=	0.0	-49.7	20.0	100.1
=	0.0	-49.2	20.0	100.1
=	0.0	-48.6	20.0	100.1
=	0.0	-47.8	20.0	100.1
=	0.0	-47.0	20.0	100.1
=	0.0	-46.3	20.0	100.1
=	0.0	-45.5	20.0	100.2
=	0.0	-44.6	20.0	100.2
=	0.0	-43.7	20.0	100.2
=	0.0	-42.9	20.0	100.2
=	0.0	-42.2	20.0	100.1
=	0.0	-41.2	20.0	100.1
=	0.0	-40.4	20.0	100.1
=	0.0	-39.7	20.0	100.1
=	0.0	-39.2	20.0	100.1
=	0.0	-38.7	20.0	100.1
=	0.0	-38.2	20.0	100.1
=	0.0	-37.7	20.0	100.1
=	0.0	-37.2	20.0	100.1
=	0.0	-36.7	20.0	100.1
=	0.0	-36.1	20.0	100.1
=	0.0	-35.6	20.0	100.1
=	0.0	-35.1	20.0	100.1
=	0.0	-34.6	20.0	100.2
=	0.0	-34.1	20.0	100.2
=	0.0	-33.6	20.0	100.2
=	0.0	-33.1	20.0	100.2
=	0.0	-32.6	20.0	100.2
=	0.0	-32.1	20.0	100.2
=	0.0	-31.6	20.0	100.2
=	0.0	-31.1	20.0	100.2
=	0.0	-30.6	20.0	100.1
=	0.0	-30.1	20.0	100.1
=	0.0	-29.6	20.0	100.1
=	0.0	-29.1	20.0	100.1
=	0.0	-28.4	20.0	100.1
=	0.0	-27.7	20.0	100.1
=	0.0	-27.1	20.0	100.1
=	0.0	-26.4	20.0	100.1
=	0.0	-25.6	20.0	100.1
=	0.0	-24.8	20.0	100.1
=	0.0	-24.1	20.0	100.1
=	0.0	-23.3	20.0	100.1
=	0.0	-22.6	20.0	100.1
=	0.0	-21.8	20.0	100.1
=	0.0	-21.1	20.0	100.1
=	0.0	-20.3	20.0	100.1
=	0.0	-19.5	20.0	100.1
=	0.0	-18.8	20.0	100.1
=	0.0	-18.0	20.0	100.1
=	0.0	-17.3	20.0	100.1
=	0.0	-16.6	20.0	100.1
=	0.0	-15.8	20.0	100.1
=	0.0	-15.2	20.0	100.1
=	0.0	-14.6	20.0	100.1
=	0.0	-14.0	20.0	100.0
=	0.0	-13.3	20.0	100.0
=	0.0	-12.5	20.0	100.0
=	0.0	-11.8	20.0	100.0
=	0.0	-11.0	20.0	100.0
=	0.0	-10.3	20.0	100.0
=	0.0	-9.5	20.0	100.0
=	0.0	-8.7	20.0	100.0
=	0.0	-8.0	20.0	100.0
=	0.0	-7.2	20.0	100.0
=	0.0	-6.5	20.0	100.0
=	0.0	-5.7	20.0	100.0
=	0.0	-4.9	20.0	100.0
=	0.0	-4.4	20.0	100.0
=	0.0	-3.7	20.0	100.0
=	0.0	-2.9	20.0	100.0
=	0.0	-2.2	20.0	100.0
=	0.0	-1.4	20.0	100.0
=	0.0	-0.7	20.0	100.0
=	0.0	0.0	20.0	100.0
=	0.0	0.2	20.0	100.0
=	0.0	0.9	20.0	100.0
=	0.0	1.7	20.0	100.0
=	0.0	2.4	20.0	100.0
=	0.0	3.2	20.0	100.0
=	0.0	3.9	20.0	100.0
=	0.0	4.6	20.0	100.0
=	0.0	5.2	20.0	100.0
=	0.0	6.0	20.0	100.0
=	0.0	6.7	20.0	100.0
=	0.0	7.5	20.0	100.0
=	0.0	8.2	20.0	100.0
=	0.0	9.0	20.0	100.0
=	0.0	9.7	20.0	100.0
=	0.0	10.5	20.0	100.0
=	0.0	11.3	20.0	100.0
=	0.0	12.0	20.0	100.0
=	0.0	12.8	20.0	100.0
=	0.0	13.6	20.0	100.0
=	0.0	14.2	20.0	100.0
=	0.0	14.8	20.0	100.1
=	0.0	15.4	20.0	100.1
=	0.0	16.1	20.0	100.1
=	0.0	16.8	20.0	100.1
=	0.0	17.5	20.0	100.1
=	0.0	18.3	20.0	100.1
=	0.0	19.1	20.0	100.1
=	0.0	19.8	20.0	100.1
=	0.0	20.5	20.0	100.1
=	0.0	21.3	20.0	100.1
=	0.0	22.1	20.0	100.1
=	0.0	22.8	20.0	100.1
=	0.0	23.6	20.0	100.1
=	0.0	24.3	20.0	100.1
=	0.0	25.1	20.0	100.1
=	0.0	25.9	20.0	100.1
=	0.0	26.6	20.0	100.1
=	0.0	27.4	20.0	100.1
=	0.0	27.9	20.0	100.1
=	0.0	28.7	20.0	100.1
=	0.0	29.2	20.0	100.1
=	0.0	29.7	20.0	100.1
=	0.0	30.2	20.0	100.1
=	0.0	30.8	20.0	100.1
=	0.0	31.3	20.0	100.2
=	0.0	31.7	20.0	100.2
=	0.0	32.2	20.0	100.2
=	0.0	32.8	20.0	100.2
=	0.0	33.3	20.0	100.2
=	0.0	33.8	20.0	100.2
=	0.0	34.3	20.0	100.2
=	0.0	34.8	20.0	100.2
=	0.0	35.3	20.0	100.1
=	0.0	35.8	20.0	100.1
=	0.0	36.3	20.0	100.1
=	0.0	36.8	20.0	100.1
=	0.0	37.3	20.0	100.1
=	0.0	37.8	20.0	100.1
=	0.0	38.3	20.0	100.1
=	0.0	38.8	20.0	100.1
=	0.0	39.4	20.0	100.1
=	0.0	39.9	20.0	100.1
=	0.0	40.7	20.0	100.1
=	0.0	41.6	20.0	100.1
=	0.0	42.4	20.0	100.1
=	0.0	43.2	20.0	100.2
=	0.0	43.9	20.0	100.2
=	0.0	45.0	20.0	100.2
=	0.0	45.8	20.0	100.1
=	0.0	46.5	20.0	100.1
=	0.0	47.3	20.0	100.1
=	0.0	48.0	20.0	100.1
=	0.0	48.8	20.0	100.1
=	0.0	49.4	20.0	100.1
=	0.0	49.9	20.0	100.1
=	0.0	50.4	20.0	100.1
=	0.0	50.9	20.0	100.1
=	0.0	51.4	20.0	100.1
=	0.0	51.9	20.0	100.1
=	0.0	52.4	20.0	100.1
=	0.0	52.9	20.0	100.1
=	0.0	53.6	20.0	100.1
=	0.0	54.1	20.0	100.0
=	0.0	54.6	20.0	100.0
=	0.0	55.2	20.0	100.0
=	0.0	56.0	20.0	100.0
=	0.0	56.7	20.0	100.0
=	0.0	57.5	20.0	100.0
=	0.0	58.2	20.0	100.0
=	0.0	59.0	20.0	100.0
=	0.0	59.7	20.0	99.9
=	0.0	60.5	20.0	100.0
=	0.0	61.2	20.0	99.9
=	0.0	62.0	20.0	99.9
=	0.0	62.7	20.0	99.9
=	0.0	63.5	20.0	99.9
=	0.0	64.2	20.0	99.8
=	0.0	65.0	20.0	99.8
=	0.0	65.8	20.0	99.8
=	0.0	66.5	20.0	99.8
=	0.0	67.3	20.0	99.8
=	0.0	68.0	20.0	99.8
=	0.0	68.8	20.0	99.8
=	0.0	69.6	20.0	99.8
=	0.0	70.4	20.0	99.8
=	0.0	71.4	20.0	99.7
=	0.0	72.1	20.0	99.7
=	0.0	73.3	20.0	99.7
=	0.0	74.5	20.0	99.7
=	0.0	75.8	20.0	99.7
=	0.0	77.3	20.0	99.7
=	0.0	78.7	20.0	99.7
=	0.0	79.9	20.0	99.6
=	0.0	81.4	20.0	99.6
=	0.0	82.6	20.0	99.5
=	0.0	83.9	20.0	99.5
=	0.0	85.4	20.0	99.5
=	0.0	86.9	20.0	99.5
=	0.0	87.8	20.0	99.4
=	0.0	88.6	20.0	99.4
=	0.0	89.3	20.0	99.4
=	0.0	90.1	20.0	99.4
=	0.0	90.8	20.0	99.3
=	0.0	91.6	20.0	99.2
=	0.0	92.4	20.0	99.2
=	0.0	93.2	20.0	99.2
=	0.0	93.9	20.0	99.2
=	0.0	94.7	20.0	99.1
=	0.0	95.2	20.0	99.1
=	0.0	96.0	20.0	99.1
=	0.0	96.6	20.0	99.1
=	0.0	97.2	20.0	99.0
=	0.0	98.0	20.0	99.0
=	0.0	98.7	20.0	99.0
=	0.0	99.3	20.0	99.0
=	0.0	99.9	20.0	98.9
=	0.0	100.4	20.0	98.9
=	0.0	100.9	20.0	98.9
=	0.0	101.4	20.0	98.9
=	0.0	101.9	20.0	98.9
=	0.0	102.5	20.0	98.9
=	0.0	103.0	20.0	98.9
=	0.0	103.4	20.0	98.8
=	0.0	104.0	20.0	98.8
=	0.0	104.5	20.0	98.8
=	0.0	105.0	20.0	98.8
=	0.0	105.7	20.0	98.8
=	0.0	106.4	20.0	98.7
=	0.0	107.2	20.0	98.7
=	0.0	107.9	20.0	98.7
=	0.0	108.7	20.0	98.6
=	0.0	109.4	20.0	98.6
=	0.0	110.2	20.0	98.6
=	0.0	110.9	20.0	98.5
=	0.0	111.7	20.0	98.5
=	0.0	112.4	20.0	98.5
=	0.0	113.2	20.0	98.4
=	0.0	114.0	20.0	98.4
=	0.0	114.8	20.0	98.4
=	0.0	115.5	20.0	98.4
=	0.0	116.3	20.0	98.3
=	0.0	117.0	20.0	98.3
=	0.0	117.8	20.0	98.2
=	0.0	118.5	20.0	98.2
=	0.0	119.3	20.0	98.2
=	0.0	120.0	20.0	98.2
=	0.0	120.8	20.0	98.2
=	0.0	121.5	20.0	98.2
=	0.0	122.3	20.0	98.1
=	0.0	123.1	20.0	98.1
=	0.0	123.9	20.0	98.0
=	0.0	124.6	20.0	98.0
=	0.0	125.2	20.0	98.0
=	0.0	125.7	20.0	98.0
=	0.0	126.2	20.0	98.0
=	0.0	126.7	20.0	98.0
=	0.0	127.2	20.0	97.9
=	0.0	127.7	20.0	97.9
=	0.0	128.2	20.0	97.9
=	0.0	128.7	20.0	97.9
=	0.0	129.2	20.0	97.8
=	0.0	129.7	20.0	97.8
=	0.0	130.2	20.0	97.8
=	0.0	130.8	20.0	97.8
=	0.0	131.4	20.0	97.7
=	0.0	131.9	20.0	97.7
=	0.0	132.4	20.0	97.7
=	0.0	133.1	20.0	97.6
=	0.0	133.6	20.0	97.6
=	0.0	134.1	20.0	97.5
=	0.0	134.6	20.0	97.5
=	0.0	135.2	20.0	97.4
=	0.0	135.8	20.0	97.4
=	0.0	136.3	20.0	97.4
=	0.0	136.8	20.0	97.4
=	0.0	137.3	20.0	97.3
=	0.0	137.8	20.0	97.3
=	0.0	138.3	20.0	97.3
=	0.0	138.8	20.0	97.3
=	0.0	139.3	20.0	97.2
=	0.0	139.8	20.0	97.2
=	0.0	140.3	20.0	97.1
=	0.0	140.8	20.0	97.1
=	0.0	141.3	20.0	97.1
=	0.0	141.8	20.0	97.1
=	0.0	142.3	20.0	97.0
=	0.0	142.8	20.0	97.0
=	0.0	143.4	20.0	97.0
=	0.0	144.0	20.0	97.0
=	0.0	144.7	20.0	96.9
=	0.0	145.4	20.0	96.9
=	0.0	146.0	20.0	96.8
=	0.0	146.5	20.0	96.8
=	0.0	147.0	20.0	96.7
=	0.0	147.7	20.0	96.7
=	0.0	148.4	20.0	96.6
=	0.0	149.2	20.0	96.6
=	0.0	149.9	20.0	96.5
=	0.0	150.7	20.0	96.5
=	0.0	151.5	20.0	96.4
=	0.0	152.3	20.0	96.4
=	0.0	153.0	20.0	96.3
=	0.0	153.8	20.0	96.3
=	0.0	155.0	20.0	96.2
=	0.0	155.8	20.0	96.1
=	0.0	156.5	20.0	96.0
=	0.0	157.3	20.0	96.0
=	0.0	158.2	20.0	95.9
=	0.0	159.0	20.0	95.8
=	0.0	160.2	20.0	95.8
=	0.0	161.3	20.0	95.7
=	0.0	162.1	20.0	95.6
=	0.0	162.7	20.0	95.6
=	0.0	163.4	20.0	95.5
=	0.0	163.9	20.0	95.5
=	0.0	164.4	20.0	95.5
=	0.0	164.9	20.0	95.4
=	0.0	165.4	20.0	95.4
=	0.0	166.0	20.0	95.4
=	0.0	166.7	20.0	95.3
=	0.0	167.5	20.0	95.2
=	0.0	168.2	20.0	95.1
=	0.0	169.0	20.0	95.1
=	0.0	169.7	20.0	95.0
=	0.0	170.5	20.0	95.0
=	0.0	171.1	20.0	94.9
=	0.0	171.7	20.0	94.9
=	0.0	172.5	20.0	94.8
=	0.0	173.0	20.0	94.7
=	0.0	173.6	20.0	94.6
=	0.0	174.1	20.0	94.6
=	0.0	174.7	20.0	94.6
=	0.0	175.5	20.0	94.5
=	0.0	176.2	20.0	94.4
=	0.0	177.0	20.0	94.2
=	0.0	177.7	20.0	94.2
=	0.0	178.5	20.0	94.1
=	0.0	179.2	20.0	94.0
=	0.0	180.0	20.0	93.9
=	0.0	180.5	20.0	93.9
=	0.0	181.0	20.0	93.8
=	0.0	181.8	20.0	93.7
=	0.0	182.5	20.0	93.6
=	0.0	183.1	20.0	93.5
=	0.0	183.8	20.0	93.4
=	0.0	184.6	20.0	93.3
=	0.0	185.2	20.0	93.1
=	0.0	185.8	20.0	93.1
=	0.0	186.6	20.0	93.0
=	0.0	187.3	20.0	92.9
=	0.0	188.1	20.0	92.6
=	0.0	188.8	20.0	92.5
=	0.0	189.6	20.0	92.3
=	0.0	190.2	20.0	92.2
=	0.0	190.7	20.0	92.0
=	0.0	191.2	20.0	91.9
=	0.0	191.7	20.0	91.6
=	0.0	192.2	20.0	91.5
=	0.0	192.7	20.0	91.3
=	0.0	193.2	20.0	91.1
=	0.0	193.7	20.0	90.8
=	0.0	194.2	20.0	90.6
=	0.0	194.8	20.0	90.2
=	0.0	195.3	20.0	89.8
=	0.0	195.8	20.0	89.3
=	0.0	196.3	20.0	88.7
=	0.0	196.8	20.0	88.1
=	0.0	197.3	20.0	87.3
=	0.0	197.8	20.0	86.2
=	0.0	198.3	20.0	84.9
=	0.0	198.8	20.0	83.4
=	0.0	199.3	20.0	81.5
=	0.0	199.8	20.0	79.1
=	0.0	200.3	20.0	76.3
=	0.0	200.8	20.0	73.1
=	0.0	201.3	20.0	69.6
=	0.0	201.8	20.0	65.7
=	0.0	202.3	20.0	61.9
=	0.0	202.8	20.0	57.7
=	0.0	203.3	20.0	53.3
=	0.0	203.8	20.0	48.6
=	0.0	204.5	20.0	43.1
=	0.0	205.0	20.0	39.2
=	0.0	205.5	20.0	35.5
=	0.0	206.0	20.0	31.8
=	0.0	206.5	20.0	28.7
=	0.0	207.0	20.0	26.0
=	0.0	207.5	20.0	23.5
=	0.0	208.0	20.0	21.3
=	0.0	208.5	20.0	19.5
=	0.0	209.0	20.0	17.9
=	0.0	209.5	20.0	16.6
=	0.0	210.0	20.0	15.5
=	0.0	210.6	20.0	14.5
=	0.0	211.2	20.0	13.7
=	0.0	211.7	20.0	13.2
=	0.0	212.2	20.0	12.7
=	0.0	212.7	20.0	12.3
=	0.0	213.2	20.0	12.0
=	0.0	213.7	20.0	11.7
=	0.0	214.2	20.0	11.5
=	0.0	214.7	20.0	11.3
=	0.0	215.2	20.0	11.1
=	0.0	215.7	20.0	10.9
=	0.0	216.2	20.0	10.8
=	0.0	216.7	20.0	10.7
=	0.0	217.2	20.0	10.6
=	0.0	217.7	20.0	10.5
=	0.0	218.2	20.0	10.4
=	0.0	218.7	20.0	10.3
=	0.0	219.2	20.0	10.2
=	0.0	219.7	20.0	10.1
=	0.0	220.2	20.0	10.0
=	0.0	220.7	20.0	10.0
=	0.0	221.2	20.0	9.9
=	0.0	221.8	20.0	9.8
=	0.0	222.4	20.0	9.7
=	0.0	222.9	20.0	9.6
=	0.0	223.4	20.0	9.6
=	0.0	223.9	20.0	9.5
=	0.0	224.4	20.0	9.4
=	0.0	224.9	20.0	9.4
=	0.0	225.5	20.0	9.3
=	0.0	226.1	20.0	9.2
=	0.0	226.6	20.0	9.1
=	0.0	227.1	20.0	9.1
=	0.0	227.7	20.0	9.0
=	0.0	228.5	20.0	8.9
=	0.0	229.2	20.0	8.9
=	0.0	229.9	20.0	8.8
=	0.0	230.7	20.0	8.7
=	0.0	231.5	20.0	8.6
=	0.0	232.2	20.0	8.5
=	0.0	233.0	20.0	8.5
=	0.0	233.7	20.0	8.4
=	0.0	234.5	20.0	8.4
=	0.0	235.2	20.0	8.3
=	0.0	235.8	20.0	8.3
=	0.0	236.5	20.0	8.2
=	0.0	237.2	20.0	8.2
=	0.0	238.0	20.0	8.1
=	0.0	238.7	20.0	8.1
=	0.0	239.5	20.0	8.0
=	0.0	240.2	20.0	8.0
=	0.0	241.0	20.0	7.9
=	0.0	241.7	20.0	7.9
=	0.0	242.2	20.0	7.8
=	0.0	242.9	20.0	7.8
=	0.0	243.7	20.0	7.8
=	0.0	244.5	20.0	7.7
=	0.0	245.2	20.0	7.7
=	0.0	245.9	20.0	7.7
=	0.0	246.7	20.0	7.6
=	0.0	247.4	20.0	7.6
=	0.0	248.1	20.0	7.5
=	0.0	248.8	20.0	7.5
=	0.0	249.4	20.0	7.5
=	0.0	250.2	20.0	7.4
=	0.0	251.0	20.0	7.4
=	0.0	251.6	20.0	7.3
=	0.0	252.4	20.0	7.3
=	0.0	253.1	20.0	7.2
=	0.0	253.9	20.0	7.2
=	0.0	254.6	20.0	7.2
=	0.0	255.4	20.0	7.1
=	0.0	256.4	20.0	7.1
=	0.0	257.1	20.0	7.1
=	0.0	257.9	20.0	7.0
=	0.0	258.7	20.0	7.0
=	0.0	259.4	20.0	6.9
=	0.0	260.1	20.0	6.9
=	0.0	261.3	20.0	6.8
=	0.0	262.8	20.0	6.7
=	0.0	264.0	20.0	6.7
=	0.0	265.3	20.0	6.6
=	0.0	266.2	20.0	6.6
=	0.0	267.1	20.0	6.6
=	0.0	268.3	20.0	6.5
=	0.0	269.1	20.0	6.5
=	0.0	269.9	20.0	6.4
=	0.0	270.6	20.0	6.4
=	0.0	271.4	20.0	6.4
=	0.0	272.1	20.0	6.3
=	0.0	272.9	20.0	6.3
:EOM # End of Measurement
#
# RFA300 ASCII Measurement Dump ( BDS format )
#
# Measurement number 	2
#
%VNR 1.0
%MOD 	RAT
%TYP 	SCN
%SCN 	PRO
%FLD 	ION
%DAT 	02-03-2012
%TIM 	12:00:00
%FSZ 	400	200
%BMT 	PHO	   8.0
%SSD 	1000
%BUP 	0
%BRD 	1000
%FSH 	1
%ASC 	0
%WEG 	45
%GPO 	0
%CPO 	0
%MEA 	6
%PRD 	50,0
%PTS 	728
%STS 	    0.0	  -283.3	   50.0 # Start Scan values in mm ( X , Y , Z )
%EDS 	    0.0	   282.8	   50.0 # End Scan values in mm ( X , Y , Z )
#
#	  X      Y      Z     Dose
#
=	0.0	-283.3	50.0	6.1
=	0.0	-282.5	50.0	6.1
=	0.0	-281.6	50.0	6.2
=	0.0	-280.8	50.0	6.2
=	0.0	-280.1	50.0	6.3
=	0.0	-279.3	50.0	6.3
=	0.0	-278.1	50.0	6.4
=	0.0	-277.4	50.0	6.4
=	0.0	-276.6	50.0	6.4
=	0.0	-275.9	50.0	6.5
=	0.0	-275.1	50.0	6.5
=	0.0	-274.3	50.0	6.6
=	0.0	-273.6	50.0	6.6
=	0.0	-272.8	50.0	6.6
=	0.0	-272.0	50.0	6.7
=	0.0	-271.3	50.0	6.7
=	0.0	-270.5	50.0	6.8
=	0.0	-269.8	50.0	6.8
=	0.0	-269.0	50.0	6.8
=	0.0	-268.1	50.0	6.9
=	0.0	-267.4	50.0	6.9
=	0.0	-266.6	50.0	7.0
=	0.0	-265.9	50.0	7.0
=	0.0	-265.1	50.0	7.1
=	0.0	-264.4	50.0	7.1
=	0.0	-263.6	50.0	7.1
=	0.0	-262.6	50.0	7.2
=	0.0	-261.9	50.0	7.2
=	0.0	-261.1	50.0	7.3
=	0.0	-260.4	50.0	7.4
=	0.0	-259.6	50.0	7.4
=	0.0	-258.9	50.0	7.4
=	0.0	-257.9	50.0	7.5
=	0.0	-257.0	50.0	7.5
=	0.0	-256.3	50.0	7.6
=	0.0	-255.5	50.0	7.6
=	0.0	-254.7	50.0	7.7
=	0.0	-253.8	50.0	7.8
=	0.0	-253.0	50.0	7.8
=	0.0	-252.2	50.0	7.9
=	0.0	-251.5	50.0	7.9
=	0.0	-250.7	50.0	8.0
=	0.0	-250.0	50.0	8.0
=	0.0	-249.2	50.0	8.1
=	0.0	-248.5	50.0	8.1
=	0.0	-247.7	50.0	8.2
=	0.0	-247.0	50.0	8.2
=	0.0	-246.2	50.0	8.3
=	0.0	-245.4	50.0	8.3
=	0.0	-244.7	50.0	8.4
=	0.0	-243.9	50.0	8.4
=	0.0	-243.2	50.0	8.5
=	0.0	-242.4	50.0	8.6
=	0.0	-241.6	50.0	8.7
=	0.0	-241.0	50.0	8.7
=	0.0	-240.1	50.0	8.8
=	0.0	-239.4	50.0	8.9
=	0.0	-238.6	50.0	9.0
=	0.0	-237.9	50.0	9.1
=	0.0	-237.1	50.0	9.2
=	0.0	-236.4	50.0	9.3
=	0.0	-235.6	50.0	9.3
=	0.0	-234.9	50.0	9.4
=	0.0	-234.1	50.0	9.6
=	0.0	-233.4	50.0	9.7
=	0.0	-232.6	50.0	9.8
=	0.0	-231.9	50.0	9.9
=	0.0	-231.1	50.0	10.0
=	0.0	-230.3	50.0	10.1
=	0.0	-229.6	50.0	10.3
=	0.0	-228.9	50.0	10.4
=	0.0	-228.1	50.0	10.5
=	0.0	-227.3	50.0	10.6
=	0.0	-226.6	50.0	10.8
=	0.0	-225.9	50.0	10.9
=	0.0	-225.1	50.0	11.1
=	0.0	-224.3	50.0	11.3
=	0.0	-223.6	50.0	11.5
=	0.0	-222.8	50.0	11.7
=	0.0	-222.1	50.0	11.9
=	0.0	-221.3	50.0	12.2
=	0.0	-220.5	50.0	12.5
=	0.0	-219.8	50.0	12.9
=	0.0	-219.0	50.0	13.4
=	0.0	-218.3	50.0	13.9
=	0.0	-217.5	50.0	14.7
=	0.0	-216.8	50.0	15.6
=	0.0	-216.0	50.0	16.9
=	0.0	-215.3	50.0	18.5
=	0.0	-214.5	50.0	20.7
=	0.0	-213.8	50.0	23.3
=	0.0	-213.0	50.0	26.8
=	0.0	-212.3	50.0	30.7
=	0.0	-211.5	50.0	35.7
=	0.0	-210.8	50.0	40.6
=	0.0	-210.0	50.0	46.4
=	0.0	-209.3	50.0	52.0
=	0.0	-208.5	50.0	58.3
=	0.0	-207.8	50.0	63.5
=	0.0	-207.0	50.0	68.8
=	0.0	-206.2	50.0	73.3
=	0.0	-205.5	50.0	77.0
=	0.0	-204.7	50.0	80.0
=	0.0	-203.9	50.0	82.4
=	0.0	-203.2	50.0	84.0
=	0.0	-202.4	50.0	85.4
=	0.0	-201.7	50.0	86.3
=	0.0	-200.9	50.0	87.1
=	0.0	-200.2	50.0	87.8
=	0.0	-199.4	50.0	88.3
=	0.0	-198.7	50.0	88.7
=	0.0	-197.9	50.0	89.1
=	0.0	-197.2	50.0	89.4
=	0.0	-196.4	50.0	89.7
=	0.0	-195.7	50.0	89.9
=	0.0	-194.9	50.0	90.2
=	0.0	-194.3	50.0	90.3
=	0.0	-193.7	50.0	90.5
=	0.0	-192.9	50.0	90.8
=	0.0	-192.1	50.0	91.0
=	0.0	-191.6	50.0	91.1
=	0.0	-190.9	50.0	91.2
=	0.0	-190.4	50.0	91.4
=	0.0	-189.8	50.0	91.5
=	0.0	-189.1	50.0	91.6
=	0.0	-188.3	50.0	91.7
=	0.0	-187.8	50.0	91.8
=	0.0	-187.2	50.0	91.9
=	0.0	-186.7	50.0	92.0
=	0.0	-186.2	50.0	92.1
=	0.0	-185.6	50.0	92.3
=	0.0	-184.8	50.0	92.4
=	0.0	-184.1	50.0	92.4
=	0.0	-183.3	50.0	92.5
=	0.0	-182.6	50.0	92.7
=	0.0	-181.8	50.0	92.8
=	0.0	-181.1	50.0	92.8
=	0.0	-180.3	50.0	92.9
=	0.0	-179.6	50.0	93.0
=	0.0	-178.8	50.0	93.1
=	0.0	-178.1	50.0	93.2
=	0.0	-177.5	50.0	93.2
=	0.0	-176.8	50.0	93.4
=	0.0	-176.1	50.0	93.5
=	0.0	-175.3	50.0	93.5
=	0.0	-174.6	50.0	93.6
=	0.0	-173.8	50.0	93.7
=	0.0	-173.0	50.0	93.8
=	0.0	-172.3	50.0	93.9
=	0.0	-171.5	50.0	94.0
=	0.0	-170.8	50.0	94.0
=	0.0	-170.0	50.0	94.1
=	0.0	-169.3	50.0	94.2
=	0.0	-168.3	50.0	94.3
=	0.0	-166.9	50.0	94.4
=	0.0	-165.7	50.0	94.6
=	0.0	-164.2	50.0	94.7
=	0.0	-162.9	50.0	94.8
=	0.0	-161.9	50.0	94.8
=	0.0	-161.0	50.0	94.9
=	0.0	-160.3	50.0	95.0
=	0.0	-159.5	50.0	95.1
=	0.0	-158.8	50.0	95.1
=	0.0	-158.0	50.0	95.1
=	0.0	-157.3	50.0	95.2
=	0.0	-156.5	50.0	95.3
=	0.0	-155.8	50.0	95.3
=	0.0	-155.0	50.0	95.4
=	0.0	-154.3	50.0	95.5
=	0.0	-153.5	50.0	95.5
=	0.0	-152.8	50.0	95.6
=	0.0	-152.0	50.0	95.6
=	0.0	-151.3	50.0	95.7
=	0.0	-150.5	50.0	95.7
=	0.0	-149.7	50.0	95.8
=	0.0	-149.0	50.0	95.9
=	0.0	-148.2	50.0	95.9
=	0.0	-147.4	50.0	96.0
=	0.0	-146.7	50.0	96.0
=	0.0	-145.9	50.0	96.1
=	0.0	-145.2	50.0	96.1
=	0.0	-144.4	50.0	96.1
=	0.0	-143.7	50.0	96.2
=	0.0	-142.9	50.0	96.3
=	0.0	-142.2	50.0	96.4
=	0.0	-141.4	50.0	96.4
=	0.0	-140.7	50.0	96.5
=	0.0	-139.9	50.0	96.5
=	0.0	-139.2	50.0	96.6
=	0.0	-138.4	50.0	96.6
=	0.0	-137.7	50.0	96.6
=	0.0	-136.9	50.0	96.7
=	0.0	-136.2	50.0	96.7
=	0.0	-135.4	50.0	96.7
=	0.0	-134.6	50.0	96.8
=	0.0	-133.9	50.0	96.9
=	0.0	-133.1	50.0	96.9
=	0.0	-132.3	50.0	96.9
=	0.0	-131.6	50.0	97.0
=	0.0	-130.9	50.0	97.0
=	0.0	-130.1	50.0	97.0
=	0.0	-129.3	50.0	97.1
=	0.0	-128.6	50.0	97.2
=	0.0	-127.8	50.0	97.2
=	0.0	-127.1	50.0	97.3
=	0.0	-126.3	50.0	97.3
=	0.0	-125.5	50.0	97.4
=	0.0	-125.0	50.0	97.4
=	0.0	-124.5	50.0	97.4
=	0.0	-124.0	50.0	97.4
=	0.0	-123.5	50.0	97.5
=	0.0	-122.8	50.0	97.5
=	0.0	-122.3	50.0	97.5
=	0.0	-121.5	50.0	97.6
=	0.0	-121.0	50.0	97.6
=	0.0	-120.2	50.0	97.6
=	0.0	-119.5	50.0	97.6
=	0.0	-118.7	50.0	97.7
=	0.0	-118.0	50.0	97.7
=	0.0	-117.3	50.0	97.7
=	0.0	-116.5	50.0	97.8
=	0.0	-115.7	50.0	97.9
=	0.0	-115.0	50.0	97.9
=	0.0	-114.2	50.0	97.9
=	0.0	-113.4	50.0	98.0
=	0.0	-112.7	50.0	98.0
=	0.0	-111.9	50.0	98.0
=	0.0	-111.2	50.0	98.1
=	0.0	-110.4	50.0	98.1
=	0.0	-109.7	50.0	98.1
=	0.0	-108.9	50.0	98.2
=	0.0	-108.2	50.0	98.2
=	0.0	-107.4	50.0	98.2
=	0.0	-106.7	50.0	98.2
=	0.0	-105.9	50.0	98.3
=	0.0	-105.1	50.0	98.4
=	0.0	-104.3	50.0	98.4
=	0.0	-103.6	50.0	98.4
=	0.0	-102.8	50.0	98.5
=	0.0	-102.1	50.0	98.5
=	0.0	-101.3	50.0	98.5
=	0.0	-100.6	50.0	98.5
=	0.0	-99.8	50.0	98.6
=	0.0	-99.1	50.0	98.6
=	0.0	-98.3	50.0	98.6
=	0.0	-97.6	50.0	98.6
=	0.0	-97.0	50.0	98.7
=	0.0	-96.2	50.0	98.7
=	0.0	-95.5	50.0	98.7
=	0.0	-94.7	50.0	98.7
=	0.0	-94.0	50.0	98.8
=	0.0	-93.2	50.0	98.8
=	0.0	-92.6	50.0	98.8
=	0.0	-91.9	50.0	98.9
=	0.0	-91.1	50.0	98.9
=	0.0	-90.3	50.0	98.9
=	0.0	-89.6	50.0	98.9
=	0.0	-88.7	50.0	99.0
=	0.0	-88.0	50.0	99.0
=	0.0	-86.9	50.0	99.0
=	0.0	-85.7	50.0	99.1
=	0.0	-84.3	50.0	99.1
=	0.0	-82.9	50.0	99.2
=	0.0	-81.3	50.0	99.2
=	0.0	-79.8	50.0	99.2
=	0.0	-78.3	50.0	99.3
=	0.0	-77.1	50.0	99.3
=	0.0	-76.1	50.0	99.3
=	0.0	-75.1	50.0	99.3
=	0.0	-74.3	50.0	99.4
=	0.0	-73.5	50.0	99.4
=	0.0	-72.8	50.0	99.4
=	0.0	-72.0	50.0	99.5
=	0.0	-71.3	50.0	99.5
=	0.0	-70.5	50.0	99.5
=	0.0	-69.8	50.0	99.6
=	0.0	-69.0	50.0	99.6
=	0.0	-68.2	50.0	99.6
=	0.0	-67.5	50.0	99.6
=	0.0	-66.7	50.0	99.6
=	0.0	-66.0	50.0	99.6
=	0.0	-65.2	50.0	99.6
=	0.0	-64.5	50.0	99.6
=	0.0	-63.7	50.0	99.7
=	0.0	-62.9	50.0	99.7
=	0.0	-62.1	50.0	99.7
=	0.0	-61.4	50.0	99.7
=	0.0	-60.6	50.0	99.7
=	0.0	-59.9	50.0	99.8
=	0.0	-59.1	50.0	99.8
=	0.0	-58.4	50.0	99.8
=	0.0	-57.6	50.0	99.8
=	0.0	-56.9	50.0	99.8
=	0.0	-56.1	50.0	99.8
=	0.0	-55.3	50.0	99.8
=	0.0	-54.5	50.0	99.8
=	0.0	-53.8	50.0	99.9
=	0.0	-53.0	50.0	99.9
=	0.0	-52.3	50.0	99.9
=	0.0	-51.5	50.0	99.9
=	0.0	-50.1	50.0	100.0
=	0.0	-48.6	50.0	100.0
=	0.0	-47.1	50.0	100.0
=	0.0	-45.6	50.0	100.0
=	0.0	-44.0	50.0	100.0
=	0.0	-42.8	50.0	100.0
=	0.0	-41.8	50.0	100.0
=	0.0	-41.1	50.0	100.0
=	0.0	-40.3	50.0	100.0
=	0.0	-39.6	50.0	100.0
=	0.0	-38.8	50.0	100.0
=	0.0	-38.1	50.0	100.0
=	0.0	-37.1	50.0	100.1
=	0.0	-36.3	50.0	100.1
=	0.0	-35.5	50.0	100.1
=	0.0	-34.7	50.0	100.1
=	0.0	-34.0	50.0	100.1
=	0.0	-33.3	50.0	100.1
=	0.0	-32.5	50.0	100.1
=	0.0	-31.7	50.0	100.1
=	0.0	-30.9	50.0	100.1
=	0.0	-30.1	50.0	100.1
=	0.0	-29.4	50.0	100.1
=	0.0	-28.7	50.0	100.1
=	0.0	-28.1	50.0	100.1
=	0.0	-27.4	50.0	100.1
=	0.0	-26.8	50.0	100.1
=	0.0	-26.3	50.0	100.1
=	0.0	-25.8	50.0	100.1
=	0.0	-25.1	50.0	100.1
=	0.0	-24.6	50.0	100.1
=	0.0	-24.0	50.0	100.1
=	0.0	-23.2	50.0	100.1
=	0.0	-22.6	50.0	100.1
=	0.0	-22.0	50.0	100.1
=	0.0	-21.4	50.0	100.1
=	0.0	-20.7	50.0	100.1
=	0.0	-20.0	50.0	100.1
=	0.0	-19.4	50.0	100.1
=	0.0	-18.7	50.0	100.1
=	0.0	-17.9	50.0	100.1
=	0.0	-17.2	50.0	100.1
=	0.0	-16.4	50.0	100.1
=	0.0	-15.6	50.0	100.1
=	0.0	-15.0	50.0	100.1
=	0.0	-14.1	50.0	100.0
=	0.0	-13.4	50.0	100.0
=	0.0	-12.6	50.0	100.0
=	0.0	-11.9	50.0	100.0
=	0.0	-11.1	50.0	100.0
=	0.0	-10.4	50.0	100.0
=	0.0	-9.6	50.0	100.0
=	0.0	-8.9	50.0	100.0
=	0.0	-8.1	50.0	100.0
=	0.0	-7.4	50.0	100.0
=	0.0	-6.6	50.0	100.0
=	0.0	-5.8	50.0	100.0
=	0.0	-5.1	50.0	100.0
=	0.0	-4.3	50.0	100.0
=	0.0	-3.6	50.0	100.0
=	0.0	-2.8	50.0	100.0
=	0.0	-2.0	50.0	100.0
=	0.0	-1.3	50.0	100.0
=	0.0	-0.5	50.0	100.0
=	0.0	0.1	50.0	100.0
=	0.0	0.8	50.0	100.0
=	0.0	1.6	50.0	100.0
=	0.0	2.3	50.0	100.0
=	0.0	3.0	50.0	100.0
=	0.0	3.8	50.0	100.0
=	0.0	4.6	50.0	100.0
=	0.0	5.3	50.0	100.0
=	0.0	6.1	50.0	100.0
=	0.0	6.9	50.0	100.0
=	0.0	7.6	50.0	100.0
=	0.0	8.4	50.0	100.0
=	0.0	9.1	50.0	100.0
=	0.0	9.9	50.0	100.0
=	0.0	10.6	50.0	100.0
=	0.0	11.4	50.0	100.0
=	0.0	12.1	50.0	100.0
=	0.0	12.9	50.0	100.0
=	0.0	13.6	50.0	100.0
=	0.0	14.4	50.0	100.0
=	0.0	15.2	50.0	100.1
=	0.0	15.9	50.0	100.1
=	0.0	16.7	50.0	100.1
=	0.0	17.4	50.0	100.1
=	0.0	18.2	50.0	100.1
=	0.0	19.0	50.0	100.1
=	0.0	19.5	50.0	100.1
=	0.0	20.2	50.0	100.1
=	0.0	21.0	50.0	100.1
=	0.0	21.6	50.0	100.1
=	0.0	22.2	50.0	100.1
=	0.0	22.7	50.0	100.1
=	0.0	23.5	50.0	100.1
=	0.0	24.2	50.0	100.1
=	0.0	24.8	50.0	100.1
=	0.0	25.4	50.0	100.1
=	0.0	26.0	50.0	100.1
=	0.0	26.4	50.0	100.1
=	0.0	26.9	50.0	100.1
=	0.0	27.7	50.0	100.1
=	0.0	28.3	50.0	100.1
=	0.0	28.9	50.0	100.1
=	0.0	29.6	50.0	100.1
=	0.0	30.4	50.0	100.1
=	0.0	31.2	50.0	100.1
=	0.0	32.0	50.0	100.1
=	0.0	32.7	50.0	100.1
=	0.0	33.5	50.0	100.1
=	0.0	34.2	50.0	100.1
=	0.0	35.0	50.0	100.1
=	0.0	35.8	50.0	100.1
=	0.0	36.6	50.0	100.1
=	0.0	37.5	50.0	100.1
=	0.0	38.3	50.0	100.0
=	0.0	39.1	50.0	100.0
=	0.0	39.8	50.0	100.0
=	0.0	40.6	50.0	100.0
=	0.0	41.3	50.0	100.0
=	0.0	42.2	50.0	100.0
=	0.0	43.2	50.0	100.0
=	0.0	44.6	50.0	100.0
=	0.0	46.1	50.0	100.0
=	0.0	47.6	50.0	100.0
=	0.0	49.1	50.0	100.0
=	0.0	50.6	50.0	100.0
=	0.0	51.8	50.0	99.9
=	0.0	52.5	50.0	99.9
=	0.0	53.3	50.0	99.9
=	0.0	54.0	50.0	99.9
=	0.0	54.8	50.0	99.8
=	0.0	55.6	50.0	99.8
=	0.0	56.3	50.0	99.8
=	0.0	57.1	50.0	99.8
=	0.0	57.9	50.0	99.8
=	0.0	58.6	50.0	99.8
=	0.0	59.4	50.0	99.8
=	0.0	60.1	50.0	99.7
=	0.0	60.9	50.0	99.7
=	0.0	61.6	50.0	99.7
=	0.0	62.4	50.0	99.7
=	0.0	63.2	50.0	99.7
=	0.0	63.9	50.0	99.7
=	0.0	64.7	50.0	99.6
=	0.0	65.4	50.0	99.6
=	0.0	66.2	50.0	99.6
=	0.0	67.0	50.0	99.6
=	0.0	67.7	50.0	99.6
=	0.0	68.5	50.0	99.6
=	0.0	69.3	50.0	99.6
=	0.0	70.0	50.0	99.5
=	0.0	70.8	50.0	99.5
=	0.0	71.5	50.0	99.5
=	0.0	72.3	50.0	99.4
=	0.0	73.0	50.0	99.4
=	0.0	73.8	50.0	99.4
=	0.0	74.5	50.0	99.3
=	0.0	75.4	50.0	99.3
=	0.0	76.4	50.0	99.3
=	0.0	77.4	50.0	99.3
=	0.0	78.8	50.0	99.3
=	0.0	80.3	50.0	99.2
=	0.0	81.8	50.0	99.2
=	0.0	83.3	50.0	99.2
=	0.0	84.9	50.0	99.1
=	0.0	86.0	50.0	99.1
=	0.0	87.4	50.0	99.0
=	0.0	88.2	50.0	99.0
=	0.0	89.1	50.0	98.9
=	0.0	89.8	50.0	98.9
=	0.0	90.6	50.0	98.9
=	0.0	91.4	50.0	98.9
=	0.0	92.2	50.0	98.9
=	0.0	92.8	50.0	98.8
=	0.0	93.4	50.0	98.8
=	0.0	94.2	50.0	98.7
=	0.0	95.0	50.0	98.7
=	0.0	95.7	50.0	98.7
=	0.0	96.5	50.0	98.7
=	0.0	97.2	50.0	98.7
=	0.0	97.8	50.0	98.6
=	0.0	98.6	50.0	98.6
=	0.0	99.3	50.0	98.6
=	0.0	100.1	50.0	98.5
=	0.0	100.8	50.0	98.5
=	0.0	101.6	50.0	98.5
=	0.0	102.3	50.0	98.5
=	0.0	103.1	50.0	98.5
=	0.0	103.8	50.0	98.4
=	0.0	104.6	50.0	98.4
=	0.0	105.4	50.0	98.3
