:MSR 	5	 # No. of measurement in file
:SYS BDS 0   # Beam Data Scanner System
#
# RFA300 ASCII Measurement Dump ( BDS format )
#
# Measurement number 	1
#
%VNR 1.0
%MOD 	RAT
%TYP 	SCN
%SCN 	DPT
%FLD 	ION
%DAT 	02-03-2012
%TIM 	12:00:00
%FSZ 	040	040
%BMT 	PHO	   4.0
%SSD 	1200
%BUP 	0
%BRD 	1200
%FSH 	1
%ASC 	0
%WEG 	30
%GPO 	0
%CPO 	0
%MEA 	5
%PRD 	0,0
%PTS 	778
%STS 	    0.0	  0.0	   0.0 # Start Scan values in mm ( X , Y , Z )
%EDS 	    0.0	   0.0	   300.6 # End Scan values in mm ( X , Y , Z )
#
#	  X      Y      Z     Dose
#
=	0.0	0.0	0.0	55.2
=	0.0	0.0	0.4	57.1
=	0.0	0.0	0.8	59.1
=	0.0	0.0	1.2	62.1
=	0.0	0.0	1.6	65.9
=	0.0	0.0	2.1	70.5
=	0.0	0.0	2.4	74.1
=	0.0	0.0	2.8	77.8
=	0.0	0.0	3.2	81.3
=	0.0	0.0	3.6	84.4
=	0.0	0.0	4.0	87.0
=	0.0	0.0	4.5	89.1
=	0.0	0.0	4.9	90.9
=	0.0	0.0	5.3	92.6
=	0.0	0.0	5.7	93.9
=	0.0	0.0	6.1	95.0
=	0.0	0.0	6.5	96.0
=	0.0	0.0	6.9	96.9
=	0.0	0.0	7.3	97.8
=	0.0	0.0	7.7	98.4
=	0.0	0.0	8.1	98.8
=	0.0	0.0	8.4	99.1
=	0.0	0.0	8.7	99.3
=	0.0	0.0	9.1	99.6
=	0.0	0.0	9.5	99.8
=	0.0	0.0	9.8	99.9
=	0.0	0.0	10.2	100.0
=	0.0	0.0	10.5	100.0
=	0.0	0.0	10.9	100.0
=	0.0	0.0	11.3	100.0
=	0.0	0.0	11.7	100.0
=	0.0	0.0	12.1	100.0
=	0.0	0.0	12.5	99.9
=	0.0	0.0	12.9	99.8
=	0.0	0.0	13.3	99.7
=	0.0	0.0	13.7	99.6
=	0.0	0.0	14.1	99.6
=	0.0	0.0	14.5	99.5
=	0.0	0.0	14.9	99.3
=	0.0	0.0	15.3	99.1
=	0.0	0.0	15.7	98.9
=	0.0	0.0	16.1	98.8
=	0.0	0.0	16.5	98.7
=	0.0	0.0	16.9	98.5
=	0.0	0.0	17.4	98.3
=	0.0	0.0	17.8	98.1
=	0.0	0.0	18.2	97.9
=	0.0	0.0	18.6	97.7
=	0.0	0.0	19.0	97.5
=	0.0	0.0	19.4	97.4
=	0.0	0.0	19.8	97.2
=	0.0	0.0	20.2	97.1
=	0.0	0.0	20.6	97.0
=	0.0	0.0	21.0	96.8
=	0.0	0.0	21.4	96.4
=	0.0	0.0	21.8	96.2
=	0.0	0.0	22.2	96.0
=	0.0	0.0	22.6	95.8
=	0.0	0.0	23.0	95.6
=	0.0	0.0	23.4	95.4
=	0.0	0.0	23.7	95.3
=	0.0	0.0	24.0	95.2
=	0.0	0.0	24.3	95.0
=	0.0	0.0	24.6	94.9
=	0.0	0.0	25.0	94.7
=	0.0	0.0	25.4	94.5
=	0.0	0.0	25.8	94.4
=	0.0	0.0	26.1	94.3
=	0.0	0.0	26.4	94.1
=	0.0	0.0	26.9	93.7
=	0.0	0.0	27.3	93.6
=	0.0	0.0	27.7	93.5
=	0.0	0.0	28.1	93.3
=	0.0	0.0	28.5	93.1
=	0.0	0.0	28.9	92.8
=	0.0	0.0	29.3	92.6
=	0.0	0.0	29.7	92.4
=	0.0	0.0	30.1	92.3
=	0.0	0.0	30.5	92.1
=	0.0	0.0	30.9	92.0
=	0.0	0.0	31.3	91.8
=	0.0	0.0	31.7	91.6
=	0.0	0.0	32.1	91.3
=	0.0	0.0	32.5	91.1
=	0.0	0.0	32.9	90.9
=	0.0	0.0	33.3	90.7
=	0.0	0.0	33.8	90.5
=	0.0	0.0	34.2	90.4
=	0.0	0.0	34.6	90.2
=	0.0	0.0	34.9	90.0
=	0.0	0.0	35.3	89.9
=	0.0	0.0	35.8	89.7
=	0.0	0.0	36.2	89.5
=	0.0	0.0	36.6	89.2
=	0.0	0.0	37.0	89.1
=	0.0	0.0	37.4	88.9
=	0.0	0.0	37.8	88.6
=	0.0	0.0	38.2	88.2
=	0.0	0.0	38.6	88.0
=	0.0	0.0	39.0	87.9
=	0.0	0.0	39.4	87.8
=	0.0	0.0	39.7	87.7
=	0.0	0.0	40.0	87.5
=	0.0	0.0	40.2	87.4
=	0.0	0.0	40.6	87.3
=	0.0	0.0	41.0	87.1
=	0.0	0.0	41.4	86.9
=	0.0	0.0	41.8	86.7
=	0.0	0.0	42.2	86.4
=	0.0	0.0	42.6	86.1
=	0.0	0.0	43.1	85.9
=	0.0	0.0	43.5	85.7
=	0.0	0.0	43.8	85.5
=	0.0	0.0	44.3	85.3
=	0.0	0.0	44.6	85.2
=	0.0	0.0	45.1	84.9
=	0.0	0.0	45.5	84.8
=	0.0	0.0	45.9	84.6
=	0.0	0.0	46.3	84.4
=	0.0	0.0	46.7	84.3
=	0.0	0.0	47.1	84.1
=	0.0	0.0	47.5	83.8
=	0.0	0.0	47.9	83.5
=	0.0	0.0	48.3	83.3
=	0.0	0.0	48.7	83.2
=	0.0	0.0	49.1	83.0
=	0.0	0.0	49.5	82.8
=	0.0	0.0	49.9	82.7
=	0.0	0.0	50.3	82.5
=	0.0	0.0	50.7	82.3
=	0.0	0.0	51.1	82.2
=	0.0	0.0	51.5	81.9
=	0.0	0.0	51.9	81.7
=	0.0	0.0	52.3	81.6
=	0.0	0.0	52.7	81.5
=	0.0	0.0	53.2	81.2
=	0.0	0.0	53.5	81.0
=	0.0	0.0	53.8	80.9
=	0.0	0.0	54.1	80.8
=	0.0	0.0	54.4	80.7
=	0.0	0.0	54.8	80.5
=	0.0	0.0	55.2	80.3
=	0.0	0.0	55.6	80.1
=	0.0	0.0	56.0	79.9
=	0.0	0.0	56.4	79.6
=	0.0	0.0	56.8	79.3
=	0.0	0.0	57.2	79.2
=	0.0	0.0	57.6	79.1
=	0.0	0.0	58.0	78.9
=	0.0	0.0	58.4	78.8
=	0.0	0.0	58.8	78.6
=	0.0	0.0	59.1	78.5
=	0.0	0.0	59.4	78.3
=	0.0	0.0	59.6	78.1
=	0.0	0.0	59.9	78.0
=	0.0	0.0	60.2	77.9
=	0.0	0.0	60.5	77.8
=	0.0	0.0	60.8	77.6
=	0.0	0.0	61.1	77.5
=	0.0	0.0	61.4	77.4
=	0.0	0.0	61.7	77.2
=	0.0	0.0	62.0	77.1
=	0.0	0.0	62.3	77.0
=	0.0	0.0	62.6	76.8
=	0.0	0.0	63.1	76.6
=	0.0	0.0	63.4	76.4
=	0.0	0.0	63.9	76.3
=	0.0	0.0	64.3	76.0
=	0.0	0.0	64.7	75.8
=	0.0	0.0	65.1	75.6
=	0.0	0.0	65.5	75.5
=	0.0	0.0	65.9	75.3
=	0.0	0.0	66.3	75.1
=	0.0	0.0	66.7	74.9
=	0.0	0.0	67.1	74.7
=	0.0	0.0	67.5	74.5
=	0.0	0.0	67.8	74.4
=	0.0	0.0	68.1	74.2
=	0.0	0.0	68.5	74.1
=	0.0	0.0	68.9	74.0
=	0.0	0.0	69.3	73.9
=	0.0	0.0	69.7	73.6
=	0.0	0.0	70.1	73.4
=	0.0	0.0	70.5	73.3
=	0.0	0.0	70.9	73.0
=	0.0	0.0	71.3	72.7
=	0.0	0.0	71.6	72.6
=	0.0	0.0	72.0	72.5
=	0.0	0.0	72.3	72.4
=	0.0	0.0	72.8	72.2
=	0.0	0.0	73.2	72.0
=	0.0	0.0	73.5	71.9
=	0.0	0.0	73.7	71.8
=	0.0	0.0	74.0	71.7
=	0.0	0.0	74.4	71.4
=	0.0	0.0	74.8	71.2
=	0.0	0.0	75.2	71.2
=	0.0	0.0	75.6	71.1
=	0.0	0.0	76.0	70.9
=	0.0	0.0	76.4	70.7
=	0.0	0.0	76.8	70.4
=	0.0	0.0	77.2	70.2
=	0.0	0.0	77.6	70.0
=	0.0	0.0	77.9	69.9
=	0.0	0.0	78.2	69.8
=	0.0	0.0	78.6	69.6
=	0.0	0.0	78.8	69.5
=	0.0	0.0	79.2	69.4
=	0.0	0.0	79.6	69.3
=	0.0	0.0	80.0	69.1
=	0.0	0.0	80.4	69.0
=	0.0	0.0	80.8	68.8
=	0.0	0.0	81.3	68.6
=	0.0	0.0	81.6	68.4
=	0.0	0.0	82.0	68.2
=	0.0	0.0	82.3	68.1
=	0.0	0.0	82.7	68.0
=	0.0	0.0	83.1	67.9
=	0.0	0.0	83.5	67.7
=	0.0	0.0	83.8	67.6
=	0.0	0.0	84.2	67.4
=	0.0	0.0	84.6	67.1
=	0.0	0.0	85.1	67.0
=	0.0	0.0	85.5	66.9
=	0.0	0.0	85.9	66.8
=	0.0	0.0	86.1	66.6
=	0.0	0.0	86.5	66.4
=	0.0	0.0	86.9	66.3
=	0.0	0.0	87.3	66.1
=	0.0	0.0	87.7	66.0
=	0.0	0.0	88.1	65.8
=	0.0	0.0	88.4	65.6
=	0.0	0.0	88.8	65.5
=	0.0	0.0	89.1	65.4
=	0.0	0.0	89.4	65.2
=	0.0	0.0	89.8	65.0
=	0.0	0.0	90.3	64.9
=	0.0	0.0	90.6	64.8
=	0.0	0.0	90.9	64.7
=	0.0	0.0	91.2	64.5
=	0.0	0.0	91.6	64.3
=	0.0	0.0	91.9	64.2
=	0.0	0.0	92.3	64.0
=	0.0	0.0	92.7	63.8
=	0.0	0.0	93.1	63.7
=	0.0	0.0	93.5	63.6
=	0.0	0.0	93.9	63.4
=	0.0	0.0	94.3	63.2
=	0.0	0.0	94.7	63.0
=	0.0	0.0	95.0	62.8
=	0.0	0.0	95.3	62.8
=	0.0	0.0	95.7	62.6
=	0.0	0.0	96.1	62.5
=	0.0	0.0	96.5	62.3
=	0.0	0.0	96.9	62.2
=	0.0	0.0	97.3	62.1
=	0.0	0.0	97.7	61.9
=	0.0	0.0	98.0	61.7
=	0.0	0.0	98.3	61.6
=	0.0	0.0	98.7	61.5
=	0.0	0.0	99.2	61.4
=	0.0	0.0	99.6	61.2
=	0.0	0.0	100.0	61.1
=	0.0	0.0	100.4	61.0
=	0.0	0.0	100.8	60.9
=	0.0	0.0	101.2	60.6
=	0.0	0.0	101.6	60.5
=	0.0	0.0	102.0	60.3
=	0.0	0.0	102.4	60.1
=	0.0	0.0	102.8	60.0
=	0.0	0.0	103.1	59.9
=	0.0	0.0	103.4	59.7
=	0.0	0.0	103.8	59.5
=	0.0	0.0	104.2	59.3
=	0.0	0.0	104.6	59.3
=	0.0	0.0	105.0	59.2
=	0.0	0.0	105.4	59.0
=	0.0	0.0	105.8	58.8
=	0.0	0.0	106.0	58.7
=	0.0	0.0	106.4	58.5
=	0.0	0.0	106.7	58.3
=	0.0	0.0	107.0	58.3
=	0.0	0.0	107.2	58.2
=	0.0	0.0	107.6	58.1
=	0.0	0.0	108.0	58.0
=	0.0	0.0	108.4	57.8
=	0.0	0.0	108.8	57.7
=	0.0	0.0	109.2	57.6
=	0.0	0.0	109.6	57.4
=	0.0	0.0	110.0	57.3
=	0.0	0.0	110.4	57.2
=	0.0	0.0	110.8	57.1
=	0.0	0.0	111.2	57.0
=	0.0	0.0	111.4	56.9
=	0.0	0.0	111.9	56.8
=	0.0	0.0	112.2	56.6
=	0.0	0.0	112.7	56.4
=	0.0	0.0	113.0	56.2
=	0.0	0.0	113.5	56.0
=	0.0	0.0	113.9	55.8
=	0.0	0.0	114.5	55.7
=	0.0	0.0	115.0	55.5
=	0.0	0.0	115.5	55.4
=	0.0	0.0	115.9	55.3
=	0.0	0.0	116.3	55.2
=	0.0	0.0	116.7	55.1
=	0.0	0.0	117.1	54.9
=	0.0	0.0	117.5	54.8
=	0.0	0.0	117.7	54.7
=	0.0	0.0	118.0	54.6
=	0.0	0.0	118.2	54.4
=	0.0	0.0	118.7	54.3
=	0.0	0.0	119.1	54.1
=	0.0	0.0	119.5	54.0
=	0.0	0.0	119.9	53.9
=	0.0	0.0	120.3	53.8
=	0.0	0.0	120.7	53.8
=	0.0	0.0	121.1	53.6
=	0.0	0.0	121.5	53.4
=	0.0	0.0	121.9	53.3
=	0.0	0.0	122.3	53.2
=	0.0	0.0	122.9	52.9
=	0.0	0.0	123.4	52.7
=	0.0	0.0	123.8	52.7
=	0.0	0.0	124.1	52.6
=	0.0	0.0	124.5	52.5
=	0.0	0.0	125.0	52.3
=	0.0	0.0	125.4	52.2
=	0.0	0.0	125.7	52.1
=	0.0	0.0	126.2	52.0
=	0.0	0.0	126.6	51.8
=	0.0	0.0	127.0	51.7
=	0.0	0.0	127.4	51.5
=	0.0	0.0	127.8	51.4
=	0.0	0.0	128.2	51.3
=	0.0	0.0	128.6	51.2
=	0.0	0.0	129.0	51.0
=	0.0	0.0	129.4	50.9
=	0.0	0.0	129.8	50.8
=	0.0	0.0	130.2	50.5
=	0.0	0.0	130.6	50.4
=	0.0	0.0	131.0	50.3
=	0.0	0.0	131.4	50.1
=	0.0	0.0	131.8	50.0
=	0.0	0.0	132.2	49.9
=	0.0	0.0	132.6	49.8
=	0.0	0.0	133.0	49.7
=	0.0	0.0	133.4	49.6
=	0.0	0.0	133.8	49.5
=	0.0	0.0	134.2	49.4
=	0.0	0.0	134.6	49.3
=	0.0	0.0	135.0	49.2
=	0.0	0.0	135.3	48.9
=	0.0	0.0	135.6	48.9
=	0.0	0.0	136.0	48.8
=	0.0	0.0	136.4	48.7
=	0.0	0.0	136.8	48.4
=	0.0	0.0	137.2	48.3
=	0.0	0.0	137.6	48.2
=	0.0	0.0	137.9	48.2
=	0.0	0.0	138.2	48.1
=	0.0	0.0	138.4	48.1
=	0.0	0.0	138.7	48.0
=	0.0	0.0	139.0	47.9
=	0.0	0.0	139.5	47.9
=	0.0	0.0	139.9	47.7
=	0.0	0.0	140.2	47.6
=	0.0	0.0	140.4	47.5
=	0.0	0.0	140.9	47.3
=	0.0	0.0	141.3	47.2
=	0.0	0.0	141.7	47.0
=	0.0	0.0	142.1	46.9
=	0.0	0.0	142.5	46.8
=	0.0	0.0	142.9	46.7
=	0.0	0.0	143.3	46.6
=	0.0	0.0	143.7	46.5
=	0.0	0.0	144.1	46.3
=	0.0	0.0	144.5	46.3
=	0.0	0.0	144.9	46.2
=	0.0	0.0	145.3	46.0
=	0.0	0.0	145.7	45.9
=	0.0	0.0	146.1	45.7
=	0.0	0.0	146.5	45.6
=	0.0	0.0	146.9	45.5
=	0.0	0.0	147.3	45.4
=	0.0	0.0	147.7	45.3
=	0.0	0.0	148.1	45.2
=	0.0	0.0	148.5	45.1
=	0.0	0.0	148.9	44.9
=	0.0	0.0	149.3	44.8
=	0.0	0.0	149.7	44.8
=	0.0	0.0	150.1	44.7
=	0.0	0.0	150.3	44.6
=	0.0	0.0	150.7	44.5
=	0.0	0.0	151.1	44.4
=	0.0	0.0	151.5	44.2
=	0.0	0.0	152.0	44.1
=	0.0	0.0	152.4	44.0
=	0.0	0.0	152.8	43.9
=	0.0	0.0	153.2	43.8
=	0.0	0.0	153.6	43.7
=	0.0	0.0	154.0	43.7
=	0.0	0.0	154.2	43.6
=	0.0	0.0	154.5	43.5
=	0.0	0.0	154.8	43.4
=	0.0	0.0	155.1	43.2
=	0.0	0.0	155.5	43.2
=	0.0	0.0	155.7	43.1
=	0.0	0.0	156.0	43.0
=	0.0	0.0	156.2	43.0
=	0.0	0.0	156.5	42.9
=	0.0	0.0	156.8	42.8
=	0.0	0.0	157.1	42.8
=	0.0	0.0	157.4	42.7
=	0.0	0.0	157.8	42.6
=	0.0	0.0	158.1	42.4
=	0.0	0.0	158.4	42.4
=	0.0	0.0	158.8	42.3
=	0.0	0.0	159.2	42.2
=	0.0	0.0	159.6	42.0
=	0.0	0.0	160.0	41.9
=	0.0	0.0	160.4	41.8
=	0.0	0.0	160.8	41.8
=	0.0	0.0	161.2	41.6
=	0.0	0.0	161.6	41.6
=	0.0	0.0	162.0	41.5
=	0.0	0.0	162.4	41.3
=	0.0	0.0	162.8	41.2
=	0.0	0.0	163.2	41.2
=	0.0	0.0	163.5	41.1
=	0.0	0.0	163.9	41.0
=	0.0	0.0	164.3	40.9
=	0.0	0.0	164.7	40.8
=	0.0	0.0	165.0	40.7
=	0.0	0.0	165.3	40.6
=	0.0	0.0	165.5	40.6
=	0.0	0.0	165.9	40.5
=	0.0	0.0	166.3	40.4
=	0.0	0.0	166.7	40.3
=	0.0	0.0	167.1	40.2
=	0.0	0.0	167.5	40.1
=	0.0	0.0	167.9	40.0
=	0.0	0.0	168.3	39.9
=	0.0	0.0	168.7	39.8
=	0.0	0.0	169.1	39.7
=	0.0	0.0	169.5	39.6
=	0.0	0.0	169.9	39.5
=	0.0	0.0	170.3	39.4
=	0.0	0.0	170.7	39.3
=	0.0	0.0	171.1	39.2
=	0.0	0.0	171.5	39.1
=	0.0	0.0	171.9	39.0
=	0.0	0.0	172.3	38.9
=	0.0	0.0	172.7	38.8
=	0.0	0.0	173.1	38.7
=	0.0	0.0	173.5	38.7
=	0.0	0.0	173.9	38.5
=	0.0	0.0	174.3	38.4
=	0.0	0.0	174.7	38.3
=	0.0	0.0	175.1	38.2
=	0.0	0.0	175.5	38.0
=	0.0	0.0	176.0	37.9
=	0.0	0.0	176.4	37.9
=	0.0	0.0	176.8	37.8
=	0.0	0.0	177.2	37.8
=	0.0	0.0	177.5	37.7
=	0.0	0.0	178.0	37.6
=	0.0	0.0	178.3	37.5
=	0.0	0.0	178.6	37.4
=	0.0	0.0	178.8	37.4
=	0.0	0.0	179.2	37.3
=	0.0	0.0	179.5	37.2
=	0.0	0.0	179.8	37.1
=	0.0	0.0	180.0	37.0
=	0.0	0.0	180.4	37.0
=	0.0	0.0	180.7	36.9
=	0.0	0.0	181.0	36.8
=	0.0	0.0	181.3	36.8
=	0.0	0.0	181.7	36.7
=	0.0	0.0	182.2	36.6
=	0.0	0.0	182.4	36.6
=	0.0	0.0	182.7	36.5
=	0.0	0.0	183.0	36.5
=	0.0	0.0	183.4	36.4
=	0.0	0.0	183.6	36.3
=	0.0	0.0	183.9	36.2
=	0.0	0.0	184.2	36.1
=	0.0	0.0	184.5	36.1
=	0.0	0.0	184.7	36.0
=	0.0	0.0	185.0	36.0
=	0.0	0.0	185.3	36.0
=	0.0	0.0	185.6	35.9
=	0.0	0.0	186.0	35.8
=	0.0	0.0	186.4	35.7
=	0.0	0.0	186.8	35.6
=	0.0	0.0	187.0	35.5
=	0.0	0.0	187.3	35.4
=	0.0	0.0	187.6	35.4
=	0.0	0.0	188.0	35.3
=	0.0	0.0	188.2	35.2
=	0.0	0.0	188.6	35.1
=	0.0	0.0	189.0	35.0
=	0.0	0.0	189.4	34.9
=	0.0	0.0	189.8	34.8
=	0.0	0.0	190.2	34.8
=	0.0	0.0	190.5	34.7
=	0.0	0.0	190.8	34.7
=	0.0	0.0	191.2	34.6
=	0.0	0.0	191.6	34.4
=	0.0	0.0	192.0	34.3
=	0.0	0.0	192.4	34.2
=	0.0	0.0	192.8	34.1
=	0.0	0.0	193.2	34.1
=	0.0	0.0	193.6	34.0
=	0.0	0.0	194.0	34.0
=	0.0	0.0	194.5	33.9
=	0.0	0.0	194.9	33.8
=	0.0	0.0	195.3	33.7
=	0.0	0.0	195.7	33.6
=	0.0	0.0	196.0	33.6
=	0.0	0.0	196.4	33.5
=	0.0	0.0	196.8	33.4
=	0.0	0.0	197.2	33.3
=	0.0	0.0	197.5	33.2
=	0.0	0.0	197.9	33.2
=	0.0	0.0	198.3	33.1
=	0.0	0.0	198.7	33.0
=	0.0	0.0	199.2	32.9
=	0.0	0.0	199.7	32.9
=	0.0	0.0	200.1	32.7
=	0.0	0.0	200.5	32.7
=	0.0	0.0	200.9	32.5
=	0.0	0.0	201.3	32.5
=	0.0	0.0	201.7	32.4
=	0.0	0.0	202.1	32.3
=	0.0	0.0	202.5	32.2
=	0.0	0.0	203.1	32.1
=	0.0	0.0	203.6	32.1
=	0.0	0.0	204.3	31.9
=	0.0	0.0	204.9	31.8
=	0.0	0.0	205.7	31.7
=	0.0	0.0	206.5	31.5
=	0.0	0.0	206.9	31.4
=	0.0	0.0	207.3	31.3
=	0.0	0.0	208.1	31.1
=	0.0	0.0	208.5	31.1
=	0.0	0.0	208.9	31.0
=	0.0	0.0	209.3	31.0
=	0.0	0.0	209.7	30.9
=	0.0	0.0	210.1	30.8
=	0.0	0.0	210.5	30.7
=	0.0	0.0	210.9	30.6
=	0.0	0.0	211.2	30.6
=	0.0	0.0	211.6	30.4
=	0.0	0.0	212.0	30.4
=	0.0	0.0	212.4	30.3
=	0.0	0.0	212.8	30.3
=	0.0	0.0	213.2	30.2
=	0.0	0.0	213.7	30.1
=	0.0	0.0	214.1	30.0
=	0.0	0.0	214.5	29.9
=	0.0	0.0	214.9	29.9
=	0.0	0.0	215.3	29.8
=	0.0	0.0	215.7	29.8
=	0.0	0.0	216.0	29.7
=	0.0	0.0	216.4	29.7
=	0.0	0.0	216.7	29.6
=	0.0	0.0	216.9	29.6
=	0.0	0.0	217.2	29.5
=	0.0	0.0	217.5	29.5
=	0.0	0.0	217.9	29.4
=	0.0	0.0	218.3	29.3
=	0.0	0.0	218.8	29.2
=	0.0	0.0	219.2	29.2
=	0.0	0.0	219.6	29.1
=	0.0	0.0	219.9	29.0
=	0.0	0.0	220.4	28.9
=	0.0	0.0	220.8	28.8
=	0.0	0.0	221.2	28.8
=	0.0	0.0	221.6	28.7
=	0.0	0.0	222.0	28.6
=	0.0	0.0	222.4	28.6
=	0.0	0.0	222.8	28.5
=	0.0	0.0	223.2	28.4
=	0.0	0.0	223.6	28.4
=	0.0	0.0	224.0	28.2
=	0.0	0.0	224.4	28.2
=	0.0	0.0	224.8	28.1
=	0.0	0.0	225.2	28.1
=	0.0	0.0	225.6	28.0
=	0.0	0.0	226.0	27.9
=	0.0	0.0	226.4	27.9
=	0.0	0.0	226.8	27.8
=	0.0	0.0	227.1	27.7
=	0.0	0.0	227.5	27.7
=	0.0	0.0	227.9	27.6
=	0.0	0.0	228.2	27.5
=	0.0	0.0	228.5	27.5
=	0.0	0.0	228.9	27.4
=	0.0	0.0	229.3	27.4
=	0.0	0.0	229.7	27.3
=	0.0	0.0	230.2	27.2
=	0.0	0.0	230.5	27.1
=	0.0	0.0	231.0	27.1
=	0.0	0.0	231.4	27.0
=	0.0	0.0	231.7	27.0
=	0.0	0.0	232.1	26.9
=	0.0	0.0	232.6	26.9
=	0.0	0.0	233.0	26.8
=	0.0	0.0	233.4	26.7
=	0.0	0.0	233.8	26.6
=	0.0	0.0	234.2	26.6
=	0.0	0.0	234.6	26.5
=	0.0	0.0	235.1	26.4
=	0.0	0.0	235.4	26.4
=	0.0	0.0	235.9	26.3
=	0.0	0.0	236.3	26.2
=	0.0	0.0	236.7	26.1
=	0.0	0.0	237.1	26.1
=	0.0	0.0	237.5	26.0
=	0.0	0.0	237.9	26.0
=	0.0	0.0	238.3	25.9
=	0.0	0.0	238.7	25.9
=	0.0	0.0	239.1	25.8
=	0.0	0.0	239.5	25.8
=	0.0	0.0	239.9	25.7
=	0.0	0.0	240.3	25.6
=	0.0	0.0	240.7	25.5
=	0.0	0.0	241.1	25.4
=	0.0	0.0	241.7	25.3
=	0.0	0.0	242.1	25.3
=	0.0	0.0	242.5	25.3
=	0.0	0.0	242.9	25.2
=	0.0	0.0	243.3	25.1
=	0.0	0.0	243.7	25.1
=	0.0	0.0	244.3	25.0
=	0.0	0.0	244.7	24.9
=	0.0	0.0	245.1	24.9
=	0.0	0.0	245.4	24.9
=	0.0	0.0	245.8	24.8
=	0.0	0.0	246.2	24.7
=	0.0	0.0	246.6	24.6
=	0.0	0.0	247.0	24.5
=	0.0	0.0	247.4	24.5
=	0.0	0.0	247.8	24.4
=	0.0	0.0	248.2	24.4
=	0.0	0.0	248.6	24.3
=	0.0	0.0	249.0	24.3
=	0.0	0.0	249.4	24.2
=	0.0	0.0	249.8	24.2
=	0.0	0.0	250.2	24.1
=	0.0	0.0	250.6	24.1
=	0.0	0.0	251.0	24.0
=	0.0	0.0	251.4	23.9
=	0.0	0.0	251.8	23.9
=	0.0	0.0	252.1	23.9
=	0.0	0.0	252.4	23.8
=	0.0	0.0	252.8	23.8
=	0.0	0.0	253.2	23.7
=	0.0	0.0	253.6	23.6
=	0.0	0.0	254.0	23.6
=	0.0	0.0	254.4	23.5
=	0.0	0.0	254.8	23.4
=	0.0	0.0	255.2	23.4
=	0.0	0.0	255.6	23.3
=	0.0	0.0	256.0	23.3
=	0.0	0.0	256.4	23.2
=	0.0	0.0	256.8	23.1
=	0.0	0.0	257.2	23.1
=	0.0	0.0	257.6	23.1
=	0.0	0.0	258.0	23.0
=	0.0	0.0	258.2	22.9
=	0.0	0.0	258.6	22.9
=	0.0	0.0	259.0	22.8
=	0.0	0.0	259.5	22.8
=	0.0	0.0	259.8	22.8
=	0.0	0.0	260.2	22.7
=	0.0	0.0	260.7	22.7
=	0.0	0.0	261.0	22.6
=	0.0	0.0	261.5	22.6
=	0.0	0.0	261.9	22.5
=	0.0	0.0	262.3	22.5
=	0.0	0.0	262.7	22.4
=	0.0	0.0	263.1	22.3
=	0.0	0.0	263.5	22.2
=	0.0	0.0	263.9	22.2
=	0.0	0.0	264.3	22.1
=	0.0	0.0	264.7	22.1
=	0.0	0.0	265.1	22.0
=	0.0	0.0	265.5	22.0
=	0.0	0.0	265.9	21.9
=	0.0	0.0	266.3	21.9
=	0.0	0.0	266.7	21.8
=	0.0	0.0	267.1	21.8
=	0.0	0.0	267.5	21.7
=	0.0	0.0	267.9	21.6
=	0.0	0.0	268.3	21.5
=	0.0	0.0	268.7	21.5
=	0.0	0.0	269.1	21.5
=	0.0	0.0	269.5	21.5
=	0.0	0.0	269.9	21.4
=	0.0	0.0	270.3	21.4
=	0.0	0.0	270.7	21.3
=	0.0	0.0	271.1	21.2
=	0.0	0.0	271.5	21.2
=	0.0	0.0	271.9	21.2
=	0.0	0.0	272.3	21.1
=	0.0	0.0	272.7	21.1
=	0.0	0.0	273.2	21.0
=	0.0	0.0	273.6	21.0
=	0.0	0.0	274.0	20.9
=	0.0	0.0	274.3	20.9
=	0.0	0.0	274.7	20.8
=	0.0	0.0	275.2	20.8
=	0.0	0.0	275.6	20.7
=	0.0	0.0	276.0	20.7
=	0.0	0.0	276.4	20.6
=	0.0	0.0	276.8	20.6
=	0.0	0.0	277.2	20.5
=	0.0	0.0	277.6	20.5
=	0.0	0.0	278.0	20.4
=	0.0	0.0	278.4	20.4
=	0.0	0.0	278.8	20.3
=	0.0	0.0	279.2	20.2
=	0.0	0.0	279.6	20.2
=	0.0	0.0	280.0	20.1
=	0.0	0.0	280.4	20.1
=	0.0	0.0	280.8	20.0
=	0.0	0.0	281.2	20.0
=	0.0	0.0	281.6	20.0
=	0.0	0.0	282.0	19.9
=	0.0	0.0	282.4	19.9
=	0.0	0.0	282.8	19.8
=	0.0	0.0	283.2	19.8
=	0.0	0.0	283.6	19.7
=	0.0	0.0	284.0	19.7
=	0.0	0.0	284.4	19.6
=	0.0	0.0	284.8	19.6
=	0.0	0.0	285.2	19.6
=	0.0	0.0	285.6	19.5
=	0.0	0.0	286.0	19.5
=	0.0	0.0	286.5	19.4
=	0.0	0.0	286.8	19.3
=	0.0	0.0	287.2	19.3
=	0.0	0.0	287.7	19.3
=	0.0	0.0	288.1	19.2
=	0.0	0.0	288.5	19.2
=	0.0	0.0	288.9	19.1
=	0.0	0.0	289.3	19.1
=	0.0	0.0	289.7	19.0
=	0.0	0.0	290.1	18.9
=	0.0	0.0	290.5	18.9
=	0.0	0.0	290.9	18.9
=	0.0	0.0	291.3	18.8
=	0.0	0.0	291.7	18.8
=	0.0	0.0	292.0	18.7
=	0.0	0.0	292.3	18.7
=	0.0	0.0	292.7	18.7
=	0.0	0.0	293.1	18.6
=	0.0	0.0	293.5	18.6
=	0.0	0.0	293.9	18.5
=	0.0	0.0	294.3	18.5
=	0.0	0.0	294.7	18.5
=	0.0	0.0	295.1	18.4
=	0.0	0.0	295.5	18.4
=	0.0	0.0	295.9	18.4
=	0.0	0.0	296.3	18.3
=	0.0	0.0	296.7	18.2
=	0.0	0.0	297.1	18.2
=	0.0	0.0	297.5	18.1
=	0.0	0.0	297.9	18.1
=	0.0	0.0	298.3	18.0
=	0.0	0.0	298.8	18.0
=	0.0	0.0	299.1	18.0
=	0.0	0.0	299.4	17.9
=	0.0	0.0	299.9	17.9
=	0.0	0.0	300.2	17.8
=	0.0	0.0	300.6	17.8
:EOM # End of Measurement
#
# RFA300 ASCII Measurement Dump ( BDS format )
#
# Measurement number 	2
#
%VNR 1.0
%MOD 	RAT
%TYP 	SCN
%SCN 	DPT
%FLD 	ION
%DAT 	02-03-2012
%TIM 	12:00:00
%FSZ 	100	100
%BMT 	PHO	   4.0
%SSD 	1200
%BUP 	0
%BRD 	1200
%FSH 	1
%ASC 	0
%WEG 	30
%GPO 	0
%CPO 	0
%MEA 	5
%PRD 	0,0
%PTS 	732
%STS 	    0.0	  0.0	   0.0 # Start Scan values in mm ( X , Y , Z )
%EDS 	    0.0	   0.0	   300.6 # End Scan values in mm ( X , Y , Z )
#
#	  X      Y      Z     Dose
#
=	0.0	0.0	0.0	60.0
=	0.0	0.0	0.4	61.6
=	0.0	0.0	0.8	63.5
=	0.0	0.0	1.0	64.9
=	0.0	0.0	1.4	67.8
=	0.0	0.0	1.8	71.6
=	0.0	0.0	2.2	75.2
=	0.0	0.0	2.6	78.7
=	0.0	0.0	2.9	81.3
=	0.0	0.0	3.2	83.5
=	0.0	0.0	3.6	86.3
=	0.0	0.0	4.0	88.4
=	0.0	0.0	4.3	89.6
=	0.0	0.0	4.6	91.0
=	0.0	0.0	5.0	92.9
=	0.0	0.0	5.4	94.0
=	0.0	0.0	5.6	94.6
=	0.0	0.0	6.0	95.6
=	0.0	0.0	6.4	96.5
=	0.0	0.0	6.8	97.2
=	0.0	0.0	7.2	97.8
=	0.0	0.0	7.6	98.3
=	0.0	0.0	8.0	98.8
=	0.0	0.0	8.4	99.2
=	0.0	0.0	8.8	99.5
=	0.0	0.0	9.2	99.7
=	0.0	0.0	9.6	99.8
=	0.0	0.0	10.0	99.9
=	0.0	0.0	10.5	100.0
=	0.0	0.0	10.9	100.0
=	0.0	0.0	11.3	100.0
=	0.0	0.0	11.7	100.0
=	0.0	0.0	12.1	100.0
=	0.0	0.0	12.5	99.9
=	0.0	0.0	12.8	99.8
=	0.0	0.0	13.3	99.7
=	0.0	0.0	13.7	99.6
=	0.0	0.0	14.1	99.5
=	0.0	0.0	14.5	99.5
=	0.0	0.0	14.9	99.4
=	0.0	0.0	15.3	99.3
=	0.0	0.0	15.7	99.1
=	0.0	0.0	16.1	98.9
=	0.0	0.0	16.5	98.7
=	0.0	0.0	16.9	98.5
=	0.0	0.0	17.3	98.3
=	0.0	0.0	17.7	98.2
=	0.0	0.0	18.1	98.1
=	0.0	0.0	18.5	98.0
=	0.0	0.0	18.9	97.9
=	0.0	0.0	19.3	97.7
=	0.0	0.0	19.8	97.6
=	0.0	0.0	20.2	97.4
=	0.0	0.0	20.6	97.2
=	0.0	0.0	21.0	97.1
=	0.0	0.0	21.4	96.9
=	0.0	0.0	21.8	96.7
=	0.0	0.0	22.2	96.6
=	0.0	0.0	22.6	96.5
=	0.0	0.0	23.0	96.4
=	0.0	0.0	23.4	96.2
=	0.0	0.0	23.8	96.1
=	0.0	0.0	24.2	95.8
=	0.0	0.0	24.6	95.7
=	0.0	0.0	25.0	95.5
=	0.0	0.0	25.4	95.3
=	0.0	0.0	25.9	95.2
=	0.0	0.0	26.3	95.1
=	0.0	0.0	26.6	94.9
=	0.0	0.0	27.0	94.8
=	0.0	0.0	27.5	94.6
=	0.0	0.0	27.9	94.5
=	0.0	0.0	28.3	94.4
=	0.0	0.0	28.7	94.2
=	0.0	0.0	29.1	94.0
=	0.0	0.0	29.5	93.8
=	0.0	0.0	29.9	93.7
=	0.0	0.0	30.3	93.5
=	0.0	0.0	30.7	93.3
=	0.0	0.0	31.1	93.2
=	0.0	0.0	31.5	93.0
=	0.0	0.0	31.9	92.8
=	0.0	0.0	32.3	92.7
=	0.0	0.0	32.7	92.5
=	0.0	0.0	33.1	92.4
=	0.0	0.0	33.5	92.3
=	0.0	0.0	33.9	92.1
=	0.0	0.0	34.3	92.0
=	0.0	0.0	34.7	91.8
=	0.0	0.0	35.1	91.5
=	0.0	0.0	35.5	91.3
=	0.0	0.0	35.9	91.1
=	0.0	0.0	36.3	91.1
=	0.0	0.0	36.8	91.0
=	0.0	0.0	37.1	90.9
=	0.0	0.0	37.4	90.7
=	0.0	0.0	37.7	90.5
=	0.0	0.0	38.0	90.4
=	0.0	0.0	38.2	90.3
=	0.0	0.0	38.5	90.2
=	0.0	0.0	38.9	90.1
=	0.0	0.0	39.3	89.9
=	0.0	0.0	39.7	89.6
=	0.0	0.0	40.2	89.4
=	0.0	0.0	40.6	89.3
=	0.0	0.0	41.0	89.2
=	0.0	0.0	41.4	89.1
=	0.0	0.0	41.8	88.9
=	0.0	0.0	42.2	88.6
=	0.0	0.0	42.6	88.4
=	0.0	0.0	43.0	88.3
=	0.0	0.0	43.4	88.1
=	0.0	0.0	43.8	88.1
=	0.0	0.0	44.2	88.0
=	0.0	0.0	44.6	87.8
=	0.0	0.0	45.0	87.5
=	0.0	0.0	45.4	87.3
=	0.0	0.0	45.8	87.2
=	0.0	0.0	46.2	87.0
=	0.0	0.0	46.6	86.8
=	0.0	0.0	47.0	86.7
=	0.0	0.0	47.5	86.5
=	0.0	0.0	47.9	86.4
=	0.0	0.0	48.2	86.1
=	0.0	0.0	48.7	86.0
=	0.0	0.0	49.1	85.8
=	0.0	0.0	49.5	85.7
=	0.0	0.0	49.9	85.6
=	0.0	0.0	50.3	85.5
=	0.0	0.0	50.7	85.4
=	0.0	0.0	51.1	85.2
=	0.0	0.0	51.5	84.9
=	0.0	0.0	52.1	84.7
=	0.0	0.0	52.5	84.6
=	0.0	0.0	52.9	84.4
=	0.0	0.0	53.5	84.3
=	0.0	0.0	54.1	84.0
=	0.0	0.0	54.5	83.7
=	0.0	0.0	54.9	83.7
=	0.0	0.0	55.3	83.5
=	0.0	0.0	55.9	83.3
=	0.0	0.0	56.7	83.0
=	0.0	0.0	57.5	82.6
=	0.0	0.0	58.3	82.4
=	0.0	0.0	59.2	81.9
=	0.0	0.0	59.6	81.7
=	0.0	0.0	60.0	81.6
=	0.0	0.0	60.8	81.3
=	0.0	0.0	61.2	81.1
=	0.0	0.0	62.0	80.8
=	0.0	0.0	62.8	80.6
=	0.0	0.0	63.6	80.3
=	0.0	0.0	64.4	80.0
=	0.0	0.0	64.9	79.9
=	0.0	0.0	65.3	79.7
=	0.0	0.0	66.0	79.4
=	0.0	0.0	66.8	79.0
=	0.0	0.0	67.6	78.6
=	0.0	0.0	68.5	78.3
=	0.0	0.0	69.2	78.0
=	0.0	0.0	70.0	77.8
=	0.0	0.0	70.9	77.4
=	0.0	0.0	71.7	77.1
=	0.0	0.0	72.5	76.7
=	0.0	0.0	73.3	76.4
=	0.0	0.0	74.1	76.0
=	0.0	0.0	74.9	75.7
=	0.0	0.0	75.5	75.5
=	0.0	0.0	76.1	75.4
=	0.0	0.0	77.0	75.1
=	0.0	0.0	77.8	74.7
=	0.0	0.0	78.4	74.5
=	0.0	0.0	79.0	74.3
=	0.0	0.0	79.4	74.2
=	0.0	0.0	80.0	74.0
=	0.0	0.0	80.4	73.8
=	0.0	0.0	80.8	73.6
=	0.0	0.0	81.3	73.4
=	0.0	0.0	81.7	73.1
=	0.0	0.0	82.1	73.0
=	0.0	0.0	82.5	72.9
=	0.0	0.0	82.8	72.8
=	0.0	0.0	83.3	72.7
=	0.0	0.0	83.7	72.6
=	0.0	0.0	84.1	72.5
=	0.0	0.0	84.5	72.4
=	0.0	0.0	84.9	72.2
=	0.0	0.0	85.3	72.0
=	0.0	0.0	85.7	71.9
=	0.0	0.0	86.1	71.7
=	0.0	0.0	86.6	71.6
=	0.0	0.0	87.0	71.4
=	0.0	0.0	87.4	71.2
=	0.0	0.0	87.8	71.0
=	0.0	0.0	88.2	70.8
=	0.0	0.0	88.6	70.7
=	0.0	0.0	89.0	70.6
=	0.0	0.0	89.4	70.5
=	0.0	0.0	89.8	70.3
=	0.0	0.0	90.2	70.1
=	0.0	0.0	90.6	69.9
=	0.0	0.0	91.1	69.8
=	0.0	0.0	91.5	69.7
=	0.0	0.0	91.9	69.7
=	0.0	0.0	92.3	69.5
=	0.0	0.0	92.7	69.3
=	0.0	0.0	93.1	69.1
=	0.0	0.0	93.5	68.9
=	0.0	0.0	93.9	68.8
=	0.0	0.0	94.3	68.6
=	0.0	0.0	95.0	68.5
=	0.0	0.0	95.5	68.4
=	0.0	0.0	95.9	68.2
=	0.0	0.0	96.3	68.0
=	0.0	0.0	97.1	67.9
=	0.0	0.0	97.5	67.6
=	0.0	0.0	98.3	67.3
=	0.0	0.0	99.1	67.0
=	0.0	0.0	99.9	66.7
=	0.0	0.0	100.4	66.5
=	0.0	0.0	100.8	66.4
=	0.0	0.0	101.3	66.2
=	0.0	0.0	101.8	66.1
=	0.0	0.0	102.2	65.8
=	0.0	0.0	102.6	65.8
=	0.0	0.0	103.1	65.6
=	0.0	0.0	103.8	65.4
=	0.0	0.0	104.3	65.1
=	0.0	0.0	104.8	65.0
=	0.0	0.0	105.2	64.9
=	0.0	0.0	105.6	64.7
=	0.0	0.0	106.0	64.6
=	0.0	0.0	106.4	64.5
=	0.0	0.0	106.8	64.3
=	0.0	0.0	107.2	64.2
=	0.0	0.0	107.6	64.2
=	0.0	0.0	108.0	64.1
=	0.0	0.0	108.4	63.9
=	0.0	0.0	108.8	63.6
=	0.0	0.0	109.2	63.4
=	0.0	0.0	109.6	63.3
=	0.0	0.0	110.0	63.2
=	0.0	0.0	110.4	63.1
=	0.0	0.0	110.8	63.0
=	0.0	0.0	111.3	62.8
=	0.0	0.0	111.7	62.7
=	0.0	0.0	112.0	62.5
=	0.0	0.0	112.6	62.2
=	0.0	0.0	113.1	62.1
=	0.0	0.0	113.5	62.0
=	0.0	0.0	113.9	62.0
=	0.0	0.0	114.3	61.9
=	0.0	0.0	114.8	61.6
=	0.0	0.0	115.3	61.4
=	0.0	0.0	115.7	61.2
=	0.0	0.0	116.3	61.0
=	0.0	0.0	116.7	61.0
=	0.0	0.0	117.1	60.8
=	0.0	0.0	117.5	60.7
=	0.0	0.0	117.9	60.6
=	0.0	0.0	118.3	60.5
=	0.0	0.0	118.9	60.3
=	0.0	0.0	119.7	60.1
=	0.0	0.0	120.5	59.9
=	0.0	0.0	120.9	59.7
=	0.0	0.0	121.4	59.5
=	0.0	0.0	121.9	59.4
=	0.0	0.0	122.5	59.2
=	0.0	0.0	122.9	59.0
=	0.0	0.0	123.4	58.9
=	0.0	0.0	123.8	58.7
=	0.0	0.0	124.2	58.6
=	0.0	0.0	124.6	58.5
=	0.0	0.0	125.0	58.4
=	0.0	0.0	125.4	58.2
=	0.0	0.0	125.8	58.1
=	0.0	0.0	126.2	58.1
=	0.0	0.0	126.6	57.8
=	0.0	0.0	127.0	57.6
=	0.0	0.0	127.4	57.5
=	0.0	0.0	127.8	57.4
=	0.0	0.0	128.2	57.3
=	0.0	0.0	128.6	57.1
=	0.0	0.0	129.0	57.0
=	0.0	0.0	129.4	56.9
=	0.0	0.0	129.8	56.8
=	0.0	0.0	130.2	56.7
=	0.0	0.0	130.6	56.6
=	0.0	0.0	131.0	56.5
=	0.0	0.0	131.3	56.4
=	0.0	0.0	131.6	56.3
=	0.0	0.0	131.8	56.2
=	0.0	0.0	132.2	56.1
=	0.0	0.0	132.6	56.0
=	0.0	0.0	133.0	55.9
=	0.0	0.0	133.4	55.8
=	0.0	0.0	133.8	55.7
=	0.0	0.0	134.2	55.5
=	0.0	0.0	134.7	55.4
=	0.0	0.0	135.0	55.2
=	0.0	0.0	135.3	55.1
=	0.0	0.0	135.6	55.1
=	0.0	0.0	135.9	55.0
=	0.0	0.0	136.4	54.8
=	0.0	0.0	136.8	54.7
=	0.0	0.0	137.1	54.6
=	0.0	0.0	137.5	54.5
=	0.0	0.0	137.9	54.4
=	0.0	0.0	138.4	54.3
=	0.0	0.0	138.8	54.1
=	0.0	0.0	139.2	54.0
=	0.0	0.0	139.6	53.9
=	0.0	0.0	140.0	53.7
=	0.0	0.0	140.4	53.6
=	0.0	0.0	140.8	53.5
=	0.0	0.0	141.2	53.4
=	0.0	0.0	141.6	53.3
=	0.0	0.0	142.0	53.1
=	0.0	0.0	142.3	53.0
=	0.0	0.0	142.7	53.0
=	0.0	0.0	143.1	52.9
=	0.0	0.0	143.5	52.7
=	0.0	0.0	143.9	52.6
=	0.0	0.0	144.3	52.5
=	0.0	0.0	144.7	52.4
=	0.0	0.0	145.1	52.2
=	0.0	0.0	145.5	52.1
=	0.0	0.0	145.9	51.9
=	0.0	0.0	146.3	51.8
=	0.0	0.0	146.7	51.7
=	0.0	0.0	147.5	51.5
=	0.0	0.0	147.9	51.3
=	0.0	0.0	148.3	51.2
=	0.0	0.0	148.7	51.2
=	0.0	0.0	149.2	51.1
=	0.0	0.0	149.5	51.0
=	0.0	0.0	149.9	50.9
=	0.0	0.0	150.5	50.7
=	0.0	0.0	150.8	50.6
=	0.0	0.0	151.1	50.5
=	0.0	0.0	151.5	50.4
=	0.0	0.0	152.0	50.3
=	0.0	0.0	152.3	50.2
=	0.0	0.0	152.6	50.2
=	0.0	0.0	152.9	50.1
=	0.0	0.0	153.2	50.0
=	0.0	0.0	153.5	49.8
=	0.0	0.0	154.0	49.7
=	0.0	0.0	154.3	49.6
=	0.0	0.0	154.6	49.6
=	0.0	0.0	155.0	49.5
=	0.0	0.0	155.4	49.4
=	0.0	0.0	155.8	49.3
=	0.0	0.0	156.2	49.1
=	0.0	0.0	156.6	49.0
=	0.0	0.0	157.0	48.9
=	0.0	0.0	157.4	48.8
=	0.0	0.0	157.8	48.7
=	0.0	0.0	158.2	48.5
=	0.0	0.0	158.6	48.4
=	0.0	0.0	159.0	48.4
=	0.0	0.0	159.4	48.3
=	0.0	0.0	159.8	48.2
=	0.0	0.0	160.2	48.1
=	0.0	0.0	160.6	48.0
=	0.0	0.0	161.0	47.9
=	0.0	0.0	161.4	47.7
=	0.0	0.0	161.8	47.6
=	0.0	0.0	162.2	47.5
=	0.0	0.0	162.6	47.5
=	0.0	0.0	163.0	47.4
=	0.0	0.0	163.4	47.2
=	0.0	0.0	163.8	47.1
=	0.0	0.0	164.3	47.1
=	0.0	0.0	164.6	47.0
=	0.0	0.0	165.0	46.8
=	0.0	0.0	165.4	46.6
=	0.0	0.0	165.9	46.5
=	0.0	0.0	166.2	46.4
=	0.0	0.0	166.7	46.3
=	0.0	0.0	167.0	46.3
=	0.0	0.0	167.5	46.1
=	0.0	0.0	167.9	46.0
=	0.0	0.0	168.3	45.9
=	0.0	0.0	168.7	45.9
=	0.0	0.0	169.1	45.8
=	0.0	0.0	169.5	45.7
=	0.0	0.0	169.9	45.6
=	0.0	0.0	170.3	45.5
=	0.0	0.0	170.7	45.3
=	0.0	0.0	171.1	45.3
=	0.0	0.0	171.5	45.2
=	0.0	0.0	171.9	45.1
=	0.0	0.0	172.3	45.0
=	0.0	0.0	172.7	44.9
=	0.0	0.0	173.1	44.8
=	0.0	0.0	173.5	44.6
=	0.0	0.0	173.9	44.5
=	0.0	0.0	174.3	44.4
=	0.0	0.0	174.7	44.3
=	0.0	0.0	175.1	44.2
=	0.0	0.0	175.5	44.1
=	0.0	0.0	175.9	44.0
=	0.0	0.0	176.3	43.9
=	0.0	0.0	176.7	43.8
=	0.0	0.0	177.2	43.7
=	0.0	0.0	177.6	43.6
=	0.0	0.0	178.0	43.5
=	0.0	0.0	178.4	43.4
=	0.0	0.0	178.8	43.3
=	0.0	0.0	179.2	43.2
=	0.0	0.0	179.5	43.1
=	0.0	0.0	180.0	43.0
=	0.0	0.0	180.4	43.0
=	0.0	0.0	180.8	42.9
=	0.0	0.0	181.2	42.8
=	0.0	0.0	181.6	42.7
=	0.0	0.0	182.0	42.6
=	0.0	0.0	182.4	42.5
=	0.0	0.0	182.8	42.3
=	0.0	0.0	183.2	42.3
=	0.0	0.0	183.6	42.2
=	0.0	0.0	184.0	42.1
=	0.0	0.0	184.4	42.0
=	0.0	0.0	184.8	42.0
=	0.0	0.0	185.2	41.9
=	0.0	0.0	185.6	41.7
=	0.0	0.0	186.0	41.6
=	0.0	0.0	186.4	41.5
=	0.0	0.0	186.8	41.4
=	0.0	0.0	187.2	41.3
=	0.0	0.0	187.6	41.2
=	0.0	0.0	188.0	41.1
=	0.0	0.0	188.4	41.0
=	0.0	0.0	188.8	40.9
=	0.0	0.0	189.2	40.9
=	0.0	0.0	189.6	40.8
=	0.0	0.0	189.9	40.6
=	0.0	0.0	190.2	40.6
=	0.0	0.0	190.6	40.5
=	0.0	0.0	191.0	40.5
=	0.0	0.0	191.4	40.4
=	0.0	0.0	191.8	40.3
=	0.0	0.0	192.2	40.2
=	0.0	0.0	192.6	40.1
=	0.0	0.0	193.0	40.0
=	0.0	0.0	193.4	39.9
=	0.0	0.0	193.8	39.8
=	0.0	0.0	194.2	39.8
=	0.0	0.0	194.7	39.7
=	0.0	0.0	195.1	39.6
=	0.0	0.0	195.4	39.6
=	0.0	0.0	195.8	39.4
=	0.0	0.0	196.2	39.3
=	0.0	0.0	196.7	39.2
=	0.0	0.0	197.1	39.1
=	0.0	0.0	197.5	39.0
=	0.0	0.0	197.9	38.9
=	0.0	0.0	198.3	38.8
=	0.0	0.0	198.7	38.8
=	0.0	0.0	199.1	38.7
=	0.0	0.0	199.5	38.6
=	0.0	0.0	199.8	38.5
=	0.0	0.0	200.1	38.4
=	0.0	0.0	200.5	38.3
=	0.0	0.0	200.9	38.3
=	0.0	0.0	201.3	38.2
=	0.0	0.0	201.7	38.2
=	0.0	0.0	202.0	38.2
=	0.0	0.0	202.2	38.1
=	0.0	0.0	202.5	38.0
=	0.0	0.0	202.8	38.0
=	0.0	0.0	203.0	37.9
=	0.0	0.0	203.3	37.9
=	0.0	0.0	203.6	37.8
=	0.0	0.0	203.9	37.7
=	0.0	0.0	204.1	37.6
=	0.0	0.0	204.4	37.5
=	0.0	0.0	204.7	37.5
=	0.0	0.0	204.9	37.4
=	0.0	0.0	205.3	37.4
=	0.0	0.0	205.7	37.3
=	0.0	0.0	206.1	37.2
=	0.0	0.0	206.5	37.1
=	0.0	0.0	206.9	36.9
=	0.0	0.0	207.3	36.9
=	0.0	0.0	207.7	36.8
=	0.0	0.0	208.1	36.8
=	0.0	0.0	208.5	36.7
=	0.0	0.0	208.9	36.6
=	0.0	0.0	209.4	36.5
=	0.0	0.0	209.7	36.4
=	0.0	0.0	210.1	36.3
=	0.0	0.0	210.5	36.3
=	0.0	0.0	210.9	36.1
=	0.0	0.0	211.3	36.1
=	0.0	0.0	211.7	36.1
=	0.0	0.0	212.2	36.0
=	0.0	0.0	212.6	35.9
=	0.0	0.0	213.0	35.7
=	0.0	0.0	213.4	35.7
=	0.0	0.0	213.8	35.6
=	0.0	0.0	214.2	35.5
=	0.0	0.0	214.6	35.4
=	0.0	0.0	215.0	35.3
=	0.0	0.0	215.4	35.3
=	0.0	0.0	215.8	35.2
=	0.0	0.0	216.2	35.1
=	0.0	0.0	216.6	35.0
=	0.0	0.0	217.0	35.0
=	0.0	0.0	217.4	34.9
=	0.0	0.0	217.8	34.8
=	0.0	0.0	218.2	34.8
=	0.0	0.0	218.6	34.7
=	0.0	0.0	219.0	34.6
=	0.0	0.0	219.4	34.5
=	0.0	0.0	219.8	34.4
=	0.0	0.0	220.2	34.3
=	0.0	0.0	220.6	34.2
=	0.0	0.0	221.0	34.2
=	0.0	0.0	221.5	34.1
=	0.0	0.0	221.8	34.0
=	0.0	0.0	222.2	33.9
=	0.0	0.0	222.6	33.8
=	0.0	0.0	223.1	33.8
=	0.0	0.0	223.5	33.7
=	0.0	0.0	223.8	33.6
=	0.0	0.0	224.2	33.6
=	0.0	0.0	224.7	33.5
=	0.0	0.0	225.1	33.5
=	0.0	0.0	225.5	33.4
=	0.0	0.0	225.9	33.3
=	0.0	0.0	226.3	33.1
=	0.0	0.0	226.7	33.0
=	0.0	0.0	227.1	33.0
=	0.0	0.0	227.5	32.9
=	0.0	0.0	227.9	32.9
=	0.0	0.0	228.3	32.8
=	0.0	0.0	228.7	32.7
=	0.0	0.0	229.1	32.7
=	0.0	0.0	229.5	32.6
=	0.0	0.0	229.9	32.5
=	0.0	0.0	230.3	32.5
=	0.0	0.0	230.7	32.4
=	0.0	0.0	231.0	32.3
=	0.0	0.0	231.2	32.2
=	0.0	0.0	231.5	32.2
=	0.0	0.0	231.8	32.2
=	0.0	0.0	232.0	32.1
=	0.0	0.0	232.3	32.1
=	0.0	0.0	232.6	32.1
=	0.0	0.0	232.9	32.0
=	0.0	0.0	233.1	32.0
=	0.0	0.0	233.5	31.9
=	0.0	0.0	233.8	31.8
=	0.0	0.0	234.2	31.8
=	0.0	0.0	234.4	31.8
=	0.0	0.0	234.7	31.7
=	0.0	0.0	235.1	31.6
=	0.0	0.0	235.5	31.6
=	0.0	0.0	235.9	31.5
=	0.0	0.0	236.3	31.4
=	0.0	0.0	236.7	31.3
=	0.0	0.0	237.0	31.3
=	0.0	0.0	237.4	31.2
=	0.0	0.0	237.8	31.1
=	0.0	0.0	238.1	31.1
=	0.0	0.0	238.5	31.0
=	0.0	0.0	238.9	30.9
=	0.0	0.0	239.3	30.8
=	0.0	0.0	239.7	30.8
=	0.0	0.0	240.1	30.7
=	0.0	0.0	240.5	30.7
=	0.0	0.0	240.9	30.6
=	0.0	0.0	241.3	30.5
=	0.0	0.0	241.7	30.5
=	0.0	0.0	242.1	30.4
=	0.0	0.0	242.4	30.3
=	0.0	0.0	242.7	30.3
=	0.0	0.0	243.1	30.2
=	0.0	0.0	243.6	30.1
=	0.0	0.0	244.0	30.1
=	0.0	0.0	244.3	30.0
=	0.0	0.0	244.7	30.0
=	0.0	0.0	244.9	30.0
=	0.0	0.0	245.2	29.9
=	0.0	0.0	245.6	29.8
=	0.0	0.0	246.0	29.8
=	0.0	0.0	246.4	29.7
=	0.0	0.0	246.8	29.6
=	0.0	0.0	247.2	29.5
=	0.0	0.0	247.6	29.5
=	0.0	0.0	248.0	29.4
=	0.0	0.0	248.4	29.4
=	0.0	0.0	248.8	29.3
=	0.0	0.0	249.2	29.3
=	0.0	0.0	249.6	29.2
=	0.0	0.0	250.0	29.1
=	0.0	0.0	250.4	29.1
=	0.0	0.0	250.8	29.0
=	0.0	0.0	251.2	28.9
=	0.0	0.0	251.6	28.8
=	0.0	0.0	252.0	28.7
=	0.0	0.0	252.4	28.7
=	0.0	0.0	252.8	28.7
=	0.0	0.0	253.2	28.6
=	0.0	0.0	253.6	28.5
=	0.0	0.0	254.1	28.4
=	0.0	0.0	254.5	28.3
=	0.0	0.0	254.9	28.3
=	0.0	0.0	255.2	28.2
=	0.0	0.0	255.7	28.1
=	0.0	0.0	256.0	28.1
=	0.0	0.0	256.4	28.0
=	0.0	0.0	256.9	28.0
=	0.0	0.0	257.3	27.9
=	0.0	0.0	257.7	27.9
=	0.0	0.0	258.1	27.8
=	0.0	0.0	258.5	27.7
=	0.0	0.0	258.9	27.7
=	0.0	0.0	259.3	27.6
=	0.0	0.0	259.7	27.5
=	0.0	0.0	260.1	27.5
=	0.0	0.0	260.5	27.3
=	0.0	0.0	260.9	27.3
=	0.0	0.0	261.2	27.2
=	0.0	0.0	261.4	27.2
