:MSR 	5	 # No. of measurement in file
:SYS BDS 0   # Beam Data Scanner System
#
# RFA300 ASCII Measurement Dump ( BDS format )
#
# Measurement number 	1
#
%VNR 1.0
%MOD 	RAT
%TYP 	SCN
%SCN 	PRO
%FLD 	ION
%DAT 	02-03-2012
%TIM 	12:00:00
%FSZ 	400	300
%BMT 	PHO	   4.0
%SSD 	1000
%BUP 	0
%BRD 	1000
%FSH 	1
%ASC 	0
%WEG 	30
%GPO 	0
%CPO 	0
%MEA 	6
%PRD 	12,0
%PTS 	697
%STS 	    -270.1	  0.0	   12.0 # Start Scan values in mm ( X , Y , Z )
%EDS 	    270.1	   0.0	   12.0 # End Scan values in mm ( X , Y , Z )
#
#	  X      Y      Z     Dose
#
=	-270.1	0.0	12.0	10.2
=	-269.3	0.0	12.0	10.3
=	-268.6	0.0	12.0	10.3
=	-268.1	0.0	12.0	10.3
=	-267.6	0.0	12.0	10.3
=	-267.0	0.0	12.0	10.4
=	-266.3	0.0	12.0	10.4
=	-265.5	0.0	12.0	10.5
=	-265.0	0.0	12.0	10.5
=	-264.4	0.0	12.0	10.6
=	-263.6	0.0	12.0	10.6
=	-262.2	0.0	12.0	10.6
=	-260.7	0.0	12.0	10.7
=	-259.2	0.0	12.0	10.8
=	-257.7	0.0	12.0	10.9
=	-256.2	0.0	12.0	11.0
=	-254.7	0.0	12.0	11.1
=	-253.1	0.0	12.0	11.2
=	-251.8	0.0	12.0	11.3
=	-251.0	0.0	12.0	11.4
=	-250.0	0.0	12.0	11.5
=	-249.3	0.0	12.0	11.5
=	-248.4	0.0	12.0	11.6
=	-247.7	0.0	12.0	11.6
=	-246.9	0.0	12.0	11.7
=	-246.2	0.0	12.0	11.7
=	-245.4	0.0	12.0	11.8
=	-244.7	0.0	12.0	11.9
=	-243.9	0.0	12.0	12.0
=	-243.2	0.0	12.0	12.0
=	-242.4	0.0	12.0	12.1
=	-241.3	0.0	12.0	12.2
=	-240.4	0.0	12.0	12.3
=	-239.1	0.0	12.0	12.4
=	-237.6	0.0	12.0	12.5
=	-236.4	0.0	12.0	12.6
=	-235.6	0.0	12.0	12.7
=	-234.1	0.0	12.0	12.9
=	-232.6	0.0	12.0	13.0
=	-231.2	0.0	12.0	13.1
=	-230.1	0.0	12.0	13.3
=	-228.6	0.0	12.0	13.4
=	-227.7	0.0	12.0	13.5
=	-226.6	0.0	12.0	13.7
=	-225.0	0.0	12.0	13.9
=	-224.1	0.0	12.0	14.0
=	-223.3	0.0	12.0	14.1
=	-222.6	0.0	12.0	14.3
=	-221.8	0.0	12.0	14.4
=	-221.1	0.0	12.0	14.5
=	-220.3	0.0	12.0	14.6
=	-219.6	0.0	12.0	14.7
=	-218.8	0.0	12.0	14.9
=	-217.8	0.0	12.0	15.0
=	-216.9	0.0	12.0	15.1
=	-215.8	0.0	12.0	15.4
=	-214.8	0.0	12.0	15.6
=	-214.0	0.0	12.0	15.7
=	-213.0	0.0	12.0	15.9
=	-211.7	0.0	12.0	16.3
=	-211.0	0.0	12.0	16.4
=	-210.2	0.0	12.0	16.7
=	-209.5	0.0	12.0	17.1
=	-208.7	0.0	12.0	17.6
=	-208.0	0.0	12.0	18.3
=	-207.2	0.0	12.0	19.4
=	-206.5	0.0	12.0	21.0
=	-205.7	0.0	12.0	23.3
=	-205.0	0.0	12.0	26.3
=	-204.2	0.0	12.0	30.6
=	-203.4	0.0	12.0	35.7
=	-202.7	0.0	12.0	41.6
=	-201.9	0.0	12.0	48.2
=	-201.1	0.0	12.0	55.3
=	-200.4	0.0	12.0	62.1
=	-199.6	0.0	12.0	69.3
=	-198.9	0.0	12.0	75.6
=	-198.2	0.0	12.0	81.1
=	-197.4	0.0	12.0	85.5
=	-196.6	0.0	12.0	88.7
=	-195.9	0.0	12.0	90.7
=	-195.1	0.0	12.0	92.0
=	-194.3	0.0	12.0	92.8
=	-193.6	0.0	12.0	93.3
=	-192.8	0.0	12.0	93.7
=	-192.1	0.0	12.0	94.0
=	-191.3	0.0	12.0	94.2
=	-190.6	0.0	12.0	94.4
=	-189.8	0.0	12.0	94.5
=	-189.0	0.0	12.0	94.7
=	-188.3	0.0	12.0	94.8
=	-187.5	0.0	12.0	94.9
=	-186.8	0.0	12.0	95.0
=	-186.0	0.0	12.0	95.2
=	-185.3	0.0	12.0	95.3
=	-184.6	0.0	12.0	95.4
=	-183.8	0.0	12.0	95.5
=	-183.0	0.0	12.0	95.7
=	-182.2	0.0	12.0	95.8
=	-181.5	0.0	12.0	95.8
=	-180.8	0.0	12.0	95.9
=	-180.0	0.0	12.0	96.0
=	-179.2	0.0	12.0	96.1
=	-178.5	0.0	12.0	96.2
=	-177.7	0.0	12.0	96.3
=	-177.0	0.0	12.0	96.4
=	-176.2	0.0	12.0	96.5
=	-175.5	0.0	12.0	96.6
=	-174.7	0.0	12.0	96.6
=	-174.0	0.0	12.0	96.7
=	-173.2	0.0	12.0	96.8
=	-172.5	0.0	12.0	96.8
=	-171.7	0.0	12.0	96.8
=	-171.0	0.0	12.0	96.9
=	-170.2	0.0	12.0	97.0
=	-169.5	0.0	12.0	97.2
=	-168.7	0.0	12.0	97.3
=	-168.0	0.0	12.0	97.3
=	-167.2	0.0	12.0	97.4
=	-166.4	0.0	12.0	97.5
=	-165.6	0.0	12.0	97.6
=	-164.9	0.0	12.0	97.6
=	-164.2	0.0	12.0	97.7
=	-163.4	0.0	12.0	97.8
=	-162.7	0.0	12.0	97.9
=	-162.0	0.0	12.0	98.0
=	-161.2	0.0	12.0	98.0
=	-160.4	0.0	12.0	98.1
=	-159.8	0.0	12.0	98.1
=	-159.2	0.0	12.0	98.1
=	-158.4	0.0	12.0	98.2
=	-157.8	0.0	12.0	98.3
=	-157.3	0.0	12.0	98.4
=	-156.8	0.0	12.0	98.4
=	-156.3	0.0	12.0	98.5
=	-155.8	0.0	12.0	98.5
=	-155.3	0.0	12.0	98.6
=	-154.7	0.0	12.0	98.6
=	-154.1	0.0	12.0	98.7
=	-153.6	0.0	12.0	98.7
=	-153.1	0.0	12.0	98.8
=	-152.6	0.0	12.0	98.8
=	-152.0	0.0	12.0	98.9
=	-151.4	0.0	12.0	98.9
=	-150.9	0.0	12.0	99.0
=	-150.4	0.0	12.0	99.0
=	-150.0	0.0	12.0	99.1
=	-149.4	0.0	12.0	99.1
=	-148.9	0.0	12.0	99.2
=	-148.4	0.0	12.0	99.2
=	-147.9	0.0	12.0	99.2
=	-147.3	0.0	12.0	99.3
=	-146.8	0.0	12.0	99.3
=	-146.3	0.0	12.0	99.3
=	-145.8	0.0	12.0	99.4
=	-145.2	0.0	12.0	99.4
=	-144.7	0.0	12.0	99.5
=	-144.2	0.0	12.0	99.5
=	-143.7	0.0	12.0	99.5
=	-143.2	0.0	12.0	99.6
=	-142.7	0.0	12.0	99.6
=	-142.2	0.0	12.0	99.6
=	-141.7	0.0	12.0	99.7
=	-141.2	0.0	12.0	99.7
=	-140.7	0.0	12.0	99.7
=	-140.2	0.0	12.0	99.7
=	-139.7	0.0	12.0	99.8
=	-139.1	0.0	12.0	99.8
=	-138.4	0.0	12.0	99.8
=	-137.9	0.0	12.0	99.8
=	-137.3	0.0	12.0	99.8
=	-136.8	0.0	12.0	99.8
=	-136.1	0.0	12.0	99.8
=	-135.3	0.0	12.0	99.8
=	-134.6	0.0	12.0	99.8
=	-133.8	0.0	12.0	99.8
=	-133.3	0.0	12.0	99.8
=	-132.5	0.0	12.0	99.9
=	-131.8	0.0	12.0	99.9
=	-131.3	0.0	12.0	99.9
=	-130.8	0.0	12.0	99.9
=	-130.0	0.0	12.0	100.0
=	-129.2	0.0	12.0	100.0
=	-128.5	0.0	12.0	100.0
=	-127.7	0.0	12.0	100.0
=	-126.9	0.0	12.0	100.1
=	-126.3	0.0	12.0	100.1
=	-125.5	0.0	12.0	100.1
=	-124.9	0.0	12.0	100.1
=	-124.4	0.0	12.0	100.2
=	-123.7	0.0	12.0	100.2
=	-122.9	0.0	12.0	100.2
=	-122.2	0.0	12.0	100.3
=	-121.7	0.0	12.0	100.3
=	-121.0	0.0	12.0	100.3
=	-120.4	0.0	12.0	100.3
=	-119.7	0.0	12.0	100.3
=	-119.0	0.0	12.0	100.4
=	-118.4	0.0	12.0	100.4
=	-117.7	0.0	12.0	100.4
=	-116.9	0.0	12.0	100.4
=	-116.1	0.0	12.0	100.4
=	-115.3	0.0	12.0	100.5
=	-114.6	0.0	12.0	100.5
=	-113.8	0.0	12.0	100.5
=	-113.1	0.0	12.0	100.6
=	-112.3	0.0	12.0	100.6
=	-111.6	0.0	12.0	100.6
=	-110.8	0.0	12.0	100.6
=	-110.1	0.0	12.0	100.6
=	-109.3	0.0	12.0	100.7
=	-108.6	0.0	12.0	100.7
=	-107.8	0.0	12.0	100.7
=	-107.1	0.0	12.0	100.8
=	-106.3	0.0	12.0	100.8
=	-105.6	0.0	12.0	100.8
=	-104.8	0.0	12.0	100.9
=	-104.1	0.0	12.0	100.9
=	-103.3	0.0	12.0	100.9
=	-102.5	0.0	12.0	100.9
=	-101.8	0.0	12.0	100.9
=	-101.0	0.0	12.0	100.9
=	-100.2	0.0	12.0	101.0
=	-99.5	0.0	12.0	101.0
=	-98.7	0.0	12.0	101.0
=	-98.0	0.0	12.0	101.0
=	-97.2	0.0	12.0	101.0
=	-96.5	0.0	12.0	101.0
=	-95.7	0.0	12.0	101.0
=	-95.0	0.0	12.0	101.0
=	-94.3	0.0	12.0	101.0
=	-93.6	0.0	12.0	101.0
=	-93.0	0.0	12.0	101.1
=	-92.4	0.0	12.0	101.1
=	-91.9	0.0	12.0	101.0
=	-91.1	0.0	12.0	101.0
=	-90.4	0.0	12.0	101.1
=	-89.6	0.0	12.0	101.1
=	-88.9	0.0	12.0	101.1
=	-88.1	0.0	12.0	101.0
=	-87.3	0.0	12.0	101.1
=	-86.6	0.0	12.0	101.1
=	-85.8	0.0	12.0	101.1
=	-85.0	0.0	12.0	101.1
=	-84.3	0.0	12.0	101.2
=	-83.5	0.0	12.0	101.2
=	-82.7	0.0	12.0	101.2
=	-82.0	0.0	12.0	101.2
=	-81.2	0.0	12.0	101.2
=	-80.5	0.0	12.0	101.3
=	-79.7	0.0	12.0	101.2
=	-79.0	0.0	12.0	101.2
=	-78.1	0.0	12.0	101.3
=	-77.2	0.0	12.0	101.3
=	-76.4	0.0	12.0	101.3
=	-75.6	0.0	12.0	101.3
=	-74.9	0.0	12.0	101.4
=	-74.1	0.0	12.0	101.4
=	-73.2	0.0	12.0	101.5
=	-72.2	0.0	12.0	101.5
=	-70.8	0.0	12.0	101.5
=	-69.7	0.0	12.0	101.5
=	-68.2	0.0	12.0	101.5
=	-66.7	0.0	12.0	101.5
=	-65.6	0.0	12.0	101.4
=	-64.2	0.0	12.0	101.5
=	-62.9	0.0	12.0	101.5
=	-62.2	0.0	12.0	101.5
=	-61.4	0.0	12.0	101.5
=	-60.7	0.0	12.0	101.5
=	-59.9	0.0	12.0	101.5
=	-59.2	0.0	12.0	101.5
=	-58.4	0.0	12.0	101.5
=	-57.6	0.0	12.0	101.5
=	-56.9	0.0	12.0	101.5
=	-56.1	0.0	12.0	101.5
=	-55.4	0.0	12.0	101.5
=	-54.6	0.0	12.0	101.5
=	-53.8	0.0	12.0	101.5
=	-53.1	0.0	12.0	101.4
=	-52.3	0.0	12.0	101.4
=	-51.6	0.0	12.0	101.4
=	-50.8	0.0	12.0	101.4
=	-50.0	0.0	12.0	101.4
=	-49.3	0.0	12.0	101.4
=	-48.5	0.0	12.0	101.4
=	-47.8	0.0	12.0	101.4
=	-47.0	0.0	12.0	101.4
=	-46.0	0.0	12.0	101.3
=	-44.6	0.0	12.0	101.3
=	-43.1	0.0	12.0	101.3
=	-42.1	0.0	12.0	101.3
=	-41.3	0.0	12.0	101.2
=	-40.6	0.0	12.0	101.2
=	-39.8	0.0	12.0	101.2
=	-39.1	0.0	12.0	101.2
=	-38.3	0.0	12.0	101.2
=	-37.6	0.0	12.0	101.1
=	-36.8	0.0	12.0	101.1
=	-36.1	0.0	12.0	101.2
=	-35.3	0.0	12.0	101.1
=	-34.6	0.0	12.0	101.1
=	-33.8	0.0	12.0	101.1
=	-33.1	0.0	12.0	101.0
=	-32.3	0.0	12.0	101.0
=	-31.6	0.0	12.0	101.0
=	-30.8	0.0	12.0	100.9
=	-30.0	0.0	12.0	100.9
=	-29.3	0.0	12.0	100.9
=	-28.5	0.0	12.0	100.9
=	-27.8	0.0	12.0	100.8
=	-27.0	0.0	12.0	100.8
=	-26.3	0.0	12.0	100.8
=	-25.5	0.0	12.0	100.8
=	-24.8	0.0	12.0	100.7
=	-24.0	0.0	12.0	100.7
=	-23.2	0.0	12.0	100.7
=	-22.5	0.0	12.0	100.7
=	-21.9	0.0	12.0	100.7
=	-21.2	0.0	12.0	100.6
=	-20.5	0.0	12.0	100.6
=	-19.7	0.0	12.0	100.6
=	-19.0	0.0	12.0	100.6
=	-18.2	0.0	12.0	100.6
=	-17.5	0.0	12.0	100.6
=	-16.7	0.0	12.0	100.6
=	-16.0	0.0	12.0	100.5
=	-15.2	0.0	12.0	100.5
=	-14.5	0.0	12.0	100.4
=	-13.7	0.0	12.0	100.4
=	-12.9	0.0	12.0	100.3
=	-12.2	0.0	12.0	100.3
=	-11.4	0.0	12.0	100.3
=	-10.7	0.0	12.0	100.3
=	-9.9	0.0	12.0	100.2
=	-9.2	0.0	12.0	100.2
=	-8.4	0.0	12.0	100.2
=	-7.7	0.0	12.0	100.2
=	-7.0	0.0	12.0	100.2
=	-6.4	0.0	12.0	100.2
=	-5.6	0.0	12.0	100.2
=	-4.9	0.0	12.0	100.2
=	-4.1	0.0	12.0	100.1
=	-3.4	0.0	12.0	100.1
=	-2.8	0.0	12.0	100.1
=	-2.1	0.0	12.0	100.1
=	-1.3	0.0	12.0	100.0
=	-0.7	0.0	12.0	100.0
=	0.0	0.0	12.0	100.0
=	0.7	0.0	12.0	100.0
=	1.3	0.0	12.0	100.0
=	2.1	0.0	12.0	100.1
=	2.8	0.0	12.0	100.1
=	3.4	0.0	12.0	100.1
=	4.1	0.0	12.0	100.1
=	4.9	0.0	12.0	100.2
=	5.6	0.0	12.0	100.2
=	6.4	0.0	12.0	100.2
=	7.0	0.0	12.0	100.2
=	7.7	0.0	12.0	100.2
=	8.4	0.0	12.0	100.2
=	9.2	0.0	12.0	100.2
=	9.9	0.0	12.0	100.2
=	10.7	0.0	12.0	100.3
=	11.4	0.0	12.0	100.3
=	12.2	0.0	12.0	100.3
=	12.9	0.0	12.0	100.3
=	13.7	0.0	12.0	100.4
=	14.5	0.0	12.0	100.4
=	15.2	0.0	12.0	100.5
=	16.0	0.0	12.0	100.5
=	16.7	0.0	12.0	100.6
=	17.5	0.0	12.0	100.6
=	18.2	0.0	12.0	100.6
=	19.0	0.0	12.0	100.6
=	19.7	0.0	12.0	100.6
=	20.5	0.0	12.0	100.6
=	21.2	0.0	12.0	100.6
=	21.9	0.0	12.0	100.7
=	22.5	0.0	12.0	100.7
=	23.2	0.0	12.0	100.7
=	24.0	0.0	12.0	100.7
=	24.8	0.0	12.0	100.7
=	25.5	0.0	12.0	100.8
=	26.3	0.0	12.0	100.8
=	27.0	0.0	12.0	100.8
=	27.8	0.0	12.0	100.8
=	28.5	0.0	12.0	100.9
=	29.3	0.0	12.0	100.9
=	30.0	0.0	12.0	100.9
=	30.8	0.0	12.0	100.9
=	31.6	0.0	12.0	101.0
=	32.3	0.0	12.0	101.0
=	33.1	0.0	12.0	101.0
=	33.8	0.0	12.0	101.1
=	34.6	0.0	12.0	101.1
=	35.3	0.0	12.0	101.1
=	36.1	0.0	12.0	101.2
=	36.8	0.0	12.0	101.1
=	37.6	0.0	12.0	101.1
=	38.3	0.0	12.0	101.2
=	39.1	0.0	12.0	101.2
=	39.8	0.0	12.0	101.2
=	40.6	0.0	12.0	101.2
=	41.3	0.0	12.0	101.2
=	42.1	0.0	12.0	101.3
=	43.1	0.0	12.0	101.3
=	44.6	0.0	12.0	101.3
=	46.0	0.0	12.0	101.3
=	47.0	0.0	12.0	101.4
=	47.8	0.0	12.0	101.4
=	48.5	0.0	12.0	101.4
=	49.3	0.0	12.0	101.4
=	50.0	0.0	12.0	101.4
=	50.8	0.0	12.0	101.4
=	51.6	0.0	12.0	101.4
=	52.3	0.0	12.0	101.4
=	53.1	0.0	12.0	101.4
=	53.8	0.0	12.0	101.5
=	54.6	0.0	12.0	101.5
=	55.4	0.0	12.0	101.5
=	56.1	0.0	12.0	101.5
=	56.9	0.0	12.0	101.5
=	57.6	0.0	12.0	101.5
=	58.4	0.0	12.0	101.5
=	59.2	0.0	12.0	101.5
=	59.9	0.0	12.0	101.5
=	60.7	0.0	12.0	101.5
=	61.4	0.0	12.0	101.5
=	62.2	0.0	12.0	101.5
=	62.9	0.0	12.0	101.5
=	64.2	0.0	12.0	101.5
=	65.6	0.0	12.0	101.4
=	66.7	0.0	12.0	101.5
=	68.2	0.0	12.0	101.5
=	69.7	0.0	12.0	101.5
=	70.8	0.0	12.0	101.5
=	72.2	0.0	12.0	101.5
=	73.2	0.0	12.0	101.5
=	74.1	0.0	12.0	101.4
=	74.9	0.0	12.0	101.4
=	75.6	0.0	12.0	101.3
=	76.4	0.0	12.0	101.3
=	77.2	0.0	12.0	101.3
=	78.1	0.0	12.0	101.3
=	79.0	0.0	12.0	101.2
=	79.7	0.0	12.0	101.2
=	80.5	0.0	12.0	101.3
=	81.2	0.0	12.0	101.2
=	82.0	0.0	12.0	101.2
=	82.7	0.0	12.0	101.2
=	83.5	0.0	12.0	101.2
=	84.3	0.0	12.0	101.2
=	85.0	0.0	12.0	101.1
=	85.8	0.0	12.0	101.1
=	86.6	0.0	12.0	101.1
=	87.3	0.0	12.0	101.1
=	88.1	0.0	12.0	101.0
=	88.9	0.0	12.0	101.1
=	89.6	0.0	12.0	101.1
=	90.4	0.0	12.0	101.1
=	91.1	0.0	12.0	101.0
=	91.9	0.0	12.0	101.0
=	92.4	0.0	12.0	101.1
=	93.0	0.0	12.0	101.1
=	93.6	0.0	12.0	101.0
=	94.3	0.0	12.0	101.0
=	95.0	0.0	12.0	101.0
=	95.7	0.0	12.0	101.0
=	96.5	0.0	12.0	101.0
=	97.2	0.0	12.0	101.0
=	98.0	0.0	12.0	101.0
=	98.7	0.0	12.0	101.0
=	99.5	0.0	12.0	101.0
=	100.2	0.0	12.0	101.0
=	101.0	0.0	12.0	100.9
=	101.8	0.0	12.0	100.9
=	102.5	0.0	12.0	100.9
=	103.3	0.0	12.0	100.9
=	104.1	0.0	12.0	100.9
=	104.8	0.0	12.0	100.9
=	105.6	0.0	12.0	100.8
=	106.3	0.0	12.0	100.8
=	107.1	0.0	12.0	100.8
=	107.8	0.0	12.0	100.7
=	108.6	0.0	12.0	100.7
=	109.3	0.0	12.0	100.7
=	110.1	0.0	12.0	100.6
=	110.8	0.0	12.0	100.6
=	111.6	0.0	12.0	100.6
=	112.3	0.0	12.0	100.6
=	113.1	0.0	12.0	100.6
=	113.8	0.0	12.0	100.5
=	114.6	0.0	12.0	100.5
=	115.3	0.0	12.0	100.5
=	116.1	0.0	12.0	100.4
=	116.9	0.0	12.0	100.4
=	117.7	0.0	12.0	100.4
=	118.4	0.0	12.0	100.4
=	119.0	0.0	12.0	100.4
=	119.7	0.0	12.0	100.3
=	120.4	0.0	12.0	100.3
=	121.0	0.0	12.0	100.3
=	121.7	0.0	12.0	100.3
=	122.2	0.0	12.0	100.3
=	122.9	0.0	12.0	100.2
=	123.7	0.0	12.0	100.2
=	124.4	0.0	12.0	100.2
=	124.9	0.0	12.0	100.1
=	125.5	0.0	12.0	100.1
=	126.3	0.0	12.0	100.1
=	126.9	0.0	12.0	100.1
=	127.7	0.0	12.0	100.0
=	128.5	0.0	12.0	100.0
=	129.2	0.0	12.0	100.0
=	130.0	0.0	12.0	100.0
=	130.8	0.0	12.0	99.9
=	131.3	0.0	12.0	99.9
=	131.8	0.0	12.0	99.9
=	132.5	0.0	12.0	99.9
=	133.3	0.0	12.0	99.8
=	133.8	0.0	12.0	99.8
=	134.6	0.0	12.0	99.8
=	135.3	0.0	12.0	99.8
=	136.1	0.0	12.0	99.8
=	136.8	0.0	12.0	99.8
=	137.3	0.0	12.0	99.8
=	137.9	0.0	12.0	99.8
=	138.4	0.0	12.0	99.8
=	139.1	0.0	12.0	99.8
=	139.7	0.0	12.0	99.8
=	140.2	0.0	12.0	99.7
=	140.7	0.0	12.0	99.7
=	141.2	0.0	12.0	99.7
=	141.7	0.0	12.0	99.7
=	142.2	0.0	12.0	99.6
=	142.7	0.0	12.0	99.6
=	143.2	0.0	12.0	99.6
=	143.7	0.0	12.0	99.5
=	144.2	0.0	12.0	99.5
=	144.7	0.0	12.0	99.5
=	145.2	0.0	12.0	99.4
=	145.8	0.0	12.0	99.4
=	146.3	0.0	12.0	99.3
=	146.8	0.0	12.0	99.3
=	147.3	0.0	12.0	99.3
=	147.9	0.0	12.0	99.2
=	148.4	0.0	12.0	99.2
=	148.9	0.0	12.0	99.2
=	149.4	0.0	12.0	99.1
=	150.0	0.0	12.0	99.1
=	150.4	0.0	12.0	99.0
=	150.9	0.0	12.0	99.0
=	151.4	0.0	12.0	98.9
=	152.0	0.0	12.0	98.9
=	152.6	0.0	12.0	98.8
=	153.1	0.0	12.0	98.8
=	153.6	0.0	12.0	98.7
=	154.1	0.0	12.0	98.7
=	154.7	0.0	12.0	98.6
=	155.3	0.0	12.0	98.6
=	155.8	0.0	12.0	98.5
=	156.3	0.0	12.0	98.5
=	156.8	0.0	12.0	98.4
=	157.3	0.0	12.0	98.4
=	157.8	0.0	12.0	98.3
=	158.4	0.0	12.0	98.2
=	159.2	0.0	12.0	98.1
=	159.8	0.0	12.0	98.1
=	160.4	0.0	12.0	98.1
=	161.2	0.0	12.0	98.0
=	162.0	0.0	12.0	98.0
=	162.7	0.0	12.0	97.9
=	163.4	0.0	12.0	97.8
=	164.2	0.0	12.0	97.7
=	164.9	0.0	12.0	97.6
=	165.6	0.0	12.0	97.6
=	166.4	0.0	12.0	97.5
=	167.2	0.0	12.0	97.4
=	168.0	0.0	12.0	97.3
=	168.7	0.0	12.0	97.3
=	169.5	0.0	12.0	97.2
=	170.2	0.0	12.0	97.0
=	171.0	0.0	12.0	96.9
=	171.7	0.0	12.0	96.8
=	172.5	0.0	12.0	96.8
=	173.2	0.0	12.0	96.8
=	174.0	0.0	12.0	96.7
=	174.7	0.0	12.0	96.6
=	175.5	0.0	12.0	96.6
=	176.2	0.0	12.0	96.5
=	177.0	0.0	12.0	96.4
=	177.7	0.0	12.0	96.3
=	178.5	0.0	12.0	96.2
=	179.2	0.0	12.0	96.1
=	180.0	0.0	12.0	96.0
=	180.8	0.0	12.0	95.9
=	181.5	0.0	12.0	95.8
=	182.2	0.0	12.0	95.8
=	183.0	0.0	12.0	95.7
=	183.8	0.0	12.0	95.5
=	184.6	0.0	12.0	95.4
=	185.3	0.0	12.0	95.3
=	186.0	0.0	12.0	95.2
=	186.8	0.0	12.0	95.0
=	187.5	0.0	12.0	94.9
=	188.3	0.0	12.0	94.8
=	189.0	0.0	12.0	94.7
=	189.8	0.0	12.0	94.5
=	190.6	0.0	12.0	94.4
=	191.3	0.0	12.0	94.2
=	192.1	0.0	12.0	94.0
=	192.8	0.0	12.0	93.7
=	193.6	0.0	12.0	93.3
=	194.3	0.0	12.0	92.8
=	195.1	0.0	12.0	92.0
=	195.9	0.0	12.0	90.7
=	196.6	0.0	12.0	88.7
=	197.4	0.0	12.0	85.5
=	198.2	0.0	12.0	81.1
=	198.9	0.0	12.0	75.6
=	199.6	0.0	12.0	69.3
=	200.4	0.0	12.0	62.1
=	201.1	0.0	12.0	55.3
=	201.9	0.0	12.0	48.2
=	202.7	0.0	12.0	41.6
=	203.4	0.0	12.0	35.7
=	204.2	0.0	12.0	30.6
=	205.0	0.0	12.0	26.3
=	205.7	0.0	12.0	23.3
=	206.5	0.0	12.0	21.0
=	207.2	0.0	12.0	19.4
=	208.0	0.0	12.0	18.3
=	208.7	0.0	12.0	17.6
=	209.5	0.0	12.0	17.1
=	210.2	0.0	12.0	16.7
=	211.0	0.0	12.0	16.4
=	211.7	0.0	12.0	16.3
=	213.0	0.0	12.0	15.9
=	214.0	0.0	12.0	15.7
=	214.8	0.0	12.0	15.6
=	215.8	0.0	12.0	15.4
=	216.9	0.0	12.0	15.1
=	217.8	0.0	12.0	15.0
=	218.8	0.0	12.0	14.9
=	219.6	0.0	12.0	14.7
=	220.3	0.0	12.0	14.6
=	221.1	0.0	12.0	14.5
=	221.8	0.0	12.0	14.4
=	222.6	0.0	12.0	14.3
=	223.3	0.0	12.0	14.1
=	224.1	0.0	12.0	14.0
=	225.0	0.0	12.0	13.9
=	226.6	0.0	12.0	13.7
=	227.7	0.0	12.0	13.5
=	228.6	0.0	12.0	13.4
=	230.1	0.0	12.0	13.3
=	231.2	0.0	12.0	13.1
=	232.6	0.0	12.0	13.0
=	234.1	0.0	12.0	12.9
=	235.6	0.0	12.0	12.7
=	236.4	0.0	12.0	12.6
=	237.6	0.0	12.0	12.5
=	239.1	0.0	12.0	12.4
=	240.4	0.0	12.0	12.3
=	241.3	0.0	12.0	12.2
=	242.4	0.0	12.0	12.1
=	243.2	0.0	12.0	12.0
=	243.9	0.0	12.0	12.0
=	244.7	0.0	12.0	11.9
=	245.4	0.0	12.0	11.8
=	246.2	0.0	12.0	11.7
=	246.9	0.0	12.0	11.7
=	247.7	0.0	12.0	11.6
=	248.4	0.0	12.0	11.6
=	249.3	0.0	12.0	11.5
=	250.0	0.0	12.0	11.5
=	251.0	0.0	12.0	11.4
=	251.8	0.0	12.0	11.3
=	253.1	0.0	12.0	11.2
=	254.7	0.0	12.0	11.1
=	256.2	0.0	12.0	11.0
=	257.7	0.0	12.0	10.9
=	259.2	0.0	12.0	10.8
=	260.7	0.0	12.0	10.7
=	262.2	0.0	12.0	10.6
=	263.6	0.0	12.0	10.6
=	264.4	0.0	12.0	10.6
=	265.0	0.0	12.0	10.5
=	265.5	0.0	12.0	10.5
=	266.3	0.0	12.0	10.4
=	267.0	0.0	12.0	10.4
=	267.6	0.0	12.0	10.3
=	268.1	0.0	12.0	10.3
=	268.6	0.0	12.0	10.3
=	269.3	0.0	12.0	10.3
=	270.1	0.0	12.0	10.2
:EOM # End of Measurement
#
# RFA300 ASCII Measurement Dump ( BDS format )
#
# Measurement number 	2
#
%VNR 1.0
%MOD 	RAT
%TYP 	SCN
%SCN 	PRO
%FLD 	ION
%DAT 	02-03-2012
%TIM 	12:00:00
%FSZ 	400	300
%BMT 	PHO	   4.0
%SSD 	1000
%BUP 	0
%BRD 	1000
%FSH 	1
%ASC 	0
%WEG 	30
%GPO 	0
%CPO 	0
%MEA 	6
%PRD 	50,0
%PTS 	772
%STS 	    -281.2	  0.0	   50.0 # Start Scan values in mm ( X , Y , Z )
%EDS 	    281.0	   0.0	   50.0 # End Scan values in mm ( X , Y , Z )
#
#	  X      Y      Z     Dose
#
=	-281.2	0.0	50.0	10.5
=	-280.7	0.0	50.0	10.6
=	-280.2	0.0	50.0	10.6
=	-279.5	0.0	50.0	10.7
=	-278.9	0.0	50.0	10.7
=	-278.4	0.0	50.0	10.7
=	-277.9	0.0	50.0	10.8
=	-277.2	0.0	50.0	10.8
=	-276.5	0.0	50.0	10.9
=	-275.7	0.0	50.0	10.9
=	-274.9	0.0	50.0	11.0
=	-274.2	0.0	50.0	11.0
=	-273.5	0.0	50.0	11.1
=	-272.7	0.0	50.0	11.1
=	-272.0	0.0	50.0	11.2
=	-271.2	0.0	50.0	11.2
=	-270.3	0.0	50.0	11.3
=	-269.6	0.0	50.0	11.3
=	-268.8	0.0	50.0	11.4
=	-268.1	0.0	50.0	11.5
=	-267.3	0.0	50.0	11.5
=	-266.6	0.0	50.0	11.6
=	-265.8	0.0	50.0	11.6
=	-265.1	0.0	50.0	11.7
=	-264.3	0.0	50.0	11.8
=	-263.6	0.0	50.0	11.9
=	-262.8	0.0	50.0	11.9
=	-262.1	0.0	50.0	11.9
=	-261.3	0.0	50.0	12.0
=	-260.6	0.0	50.0	12.1
=	-259.8	0.0	50.0	12.2
=	-259.0	0.0	50.0	12.2
=	-258.2	0.0	50.0	12.3
=	-257.5	0.0	50.0	12.4
=	-256.8	0.0	50.0	12.5
=	-256.1	0.0	50.0	12.5
=	-255.5	0.0	50.0	12.6
=	-254.8	0.0	50.0	12.7
=	-254.0	0.0	50.0	12.7
=	-253.2	0.0	50.0	12.8
=	-252.5	0.0	50.0	12.9
=	-252.0	0.0	50.0	13.0
=	-251.5	0.0	50.0	13.0
=	-251.0	0.0	50.0	13.1
=	-250.5	0.0	50.0	13.1
=	-250.0	0.0	50.0	13.2
=	-249.5	0.0	50.0	13.3
=	-248.9	0.0	50.0	13.3
=	-248.4	0.0	50.0	13.4
=	-247.8	0.0	50.0	13.5
=	-247.3	0.0	50.0	13.5
=	-246.8	0.0	50.0	13.6
=	-246.3	0.0	50.0	13.6
=	-245.8	0.0	50.0	13.7
=	-245.3	0.0	50.0	13.7
=	-244.8	0.0	50.0	13.8
=	-244.2	0.0	50.0	13.8
=	-243.7	0.0	50.0	13.9
=	-243.2	0.0	50.0	13.9
=	-242.7	0.0	50.0	14.0
=	-242.2	0.0	50.0	14.1
=	-241.6	0.0	50.0	14.2
=	-240.8	0.0	50.0	14.3
=	-240.0	0.0	50.0	14.4
=	-239.3	0.0	50.0	14.5
=	-238.6	0.0	50.0	14.6
=	-238.0	0.0	50.0	14.7
=	-237.3	0.0	50.0	14.9
=	-236.5	0.0	50.0	15.0
=	-235.8	0.0	50.0	15.1
=	-235.0	0.0	50.0	15.2
=	-234.3	0.0	50.0	15.3
=	-233.5	0.0	50.0	15.5
=	-232.8	0.0	50.0	15.6
=	-232.0	0.0	50.0	15.8
=	-231.3	0.0	50.0	15.9
=	-230.5	0.0	50.0	16.0
=	-229.8	0.0	50.0	16.2
=	-229.3	0.0	50.0	16.3
=	-228.5	0.0	50.0	16.5
=	-227.8	0.0	50.0	16.7
=	-227.0	0.0	50.0	16.8
=	-226.2	0.0	50.0	17.0
=	-225.5	0.0	50.0	17.2
=	-224.8	0.0	50.0	17.3
=	-224.2	0.0	50.0	17.5
=	-223.4	0.0	50.0	17.7
=	-222.7	0.0	50.0	17.9
=	-221.9	0.0	50.0	18.2
=	-221.2	0.0	50.0	18.4
=	-220.4	0.0	50.0	18.6
=	-219.7	0.0	50.0	18.9
=	-218.9	0.0	50.0	19.2
=	-218.2	0.0	50.0	19.5
=	-217.4	0.0	50.0	19.9
=	-216.7	0.0	50.0	20.4
=	-215.9	0.0	50.0	21.1
=	-215.2	0.0	50.0	21.9
=	-214.4	0.0	50.0	23.2
=	-213.7	0.0	50.0	25.1
=	-213.0	0.0	50.0	27.2
=	-212.4	0.0	50.0	29.6
=	-211.7	0.0	50.0	33.5
=	-210.9	0.0	50.0	38.0
=	-210.1	0.0	50.0	43.2
=	-209.4	0.0	50.0	49.3
=	-208.6	0.0	50.0	55.2
=	-207.8	0.0	50.0	61.9
=	-206.8	0.0	50.0	69.6
=	-206.1	0.0	50.0	74.7
=	-205.3	0.0	50.0	79.2
=	-204.6	0.0	50.0	82.6
=	-203.8	0.0	50.0	85.2
=	-203.1	0.0	50.0	86.8
=	-202.1	0.0	50.0	88.3
=	-201.0	0.0	50.0	89.4
=	-200.1	0.0	50.0	89.9
=	-199.3	0.0	50.0	90.4
=	-198.6	0.0	50.0	90.7
=	-197.8	0.0	50.0	90.9
=	-196.8	0.0	50.0	91.2
=	-195.6	0.0	50.0	91.8
=	-194.8	0.0	50.0	91.9
=	-193.9	0.0	50.0	92.1
=	-192.6	0.0	50.0	92.4
=	-191.6	0.0	50.0	92.6
=	-190.4	0.0	50.0	92.9
=	-189.4	0.0	50.0	93.1
=	-188.2	0.0	50.0	93.4
=	-187.5	0.0	50.0	93.5
=	-186.7	0.0	50.0	93.7
=	-186.0	0.0	50.0	93.8
=	-185.2	0.0	50.0	93.9
=	-184.4	0.0	50.0	94.1
=	-183.5	0.0	50.0	94.3
=	-182.7	0.0	50.0	94.4
=	-182.0	0.0	50.0	94.4
=	-181.2	0.0	50.0	94.5
=	-180.5	0.0	50.0	94.7
=	-179.7	0.0	50.0	94.9
=	-178.9	0.0	50.0	95.0
=	-178.2	0.0	50.0	95.1
=	-177.4	0.0	50.0	95.2
=	-176.6	0.0	50.0	95.4
=	-175.9	0.0	50.0	95.5
=	-175.1	0.0	50.0	95.6
=	-174.4	0.0	50.0	95.6
=	-173.6	0.0	50.0	95.8
=	-172.9	0.0	50.0	95.9
=	-172.1	0.0	50.0	96.0
=	-171.4	0.0	50.0	96.2
=	-170.6	0.0	50.0	96.3
=	-169.9	0.0	50.0	96.3
=	-169.1	0.0	50.0	96.4
=	-168.4	0.0	50.0	96.5
=	-167.6	0.0	50.0	96.6
=	-166.9	0.0	50.0	96.7
=	-166.1	0.0	50.0	96.8
=	-165.3	0.0	50.0	96.9
=	-164.6	0.0	50.0	96.9
=	-163.9	0.0	50.0	97.0
=	-163.1	0.0	50.0	97.0
=	-162.3	0.0	50.0	97.1
=	-161.5	0.0	50.0	97.2
=	-160.8	0.0	50.0	97.3
=	-160.0	0.0	50.0	97.4
=	-159.3	0.0	50.0	97.6
=	-158.5	0.0	50.0	97.6
=	-157.8	0.0	50.0	97.7
=	-157.0	0.0	50.0	97.8
=	-156.3	0.0	50.0	97.8
=	-155.5	0.0	50.0	97.9
=	-154.7	0.0	50.0	97.9
=	-154.0	0.0	50.0	98.0
=	-153.2	0.0	50.0	98.1
=	-152.5	0.0	50.0	98.1
=	-151.7	0.0	50.0	98.2
=	-151.0	0.0	50.0	98.3
=	-150.2	0.0	50.0	98.4
=	-149.5	0.0	50.0	98.4
=	-148.7	0.0	50.0	98.5
=	-148.1	0.0	50.0	98.6
=	-147.4	0.0	50.0	98.6
=	-146.7	0.0	50.0	98.7
=	-146.0	0.0	50.0	98.7
=	-145.3	0.0	50.0	98.8
=	-144.7	0.0	50.0	98.8
=	-143.9	0.0	50.0	98.8
=	-143.1	0.0	50.0	98.9
=	-142.4	0.0	50.0	98.9
=	-141.6	0.0	50.0	98.9
=	-140.9	0.0	50.0	98.9
=	-140.1	0.0	50.0	99.0
=	-139.4	0.0	50.0	99.0
=	-138.6	0.0	50.0	99.0
=	-137.9	0.0	50.0	99.1
=	-137.1	0.0	50.0	99.1
=	-136.4	0.0	50.0	99.1
=	-135.6	0.0	50.0	99.1
=	-134.8	0.0	50.0	99.1
=	-134.0	0.0	50.0	99.2
=	-133.3	0.0	50.0	99.3
=	-132.5	0.0	50.0	99.3
=	-131.7	0.0	50.0	99.4
=	-130.8	0.0	50.0	99.4
=	-130.0	0.0	50.0	99.4
=	-129.0	0.0	50.0	99.5
=	-127.6	0.0	50.0	99.5
=	-126.1	0.0	50.0	99.6
=	-124.6	0.0	50.0	99.7
=	-123.1	0.0	50.0	99.7
=	-121.6	0.0	50.0	99.8
=	-120.1	0.0	50.0	99.9
=	-118.5	0.0	50.0	99.9
=	-117.0	0.0	50.0	100.0
=	-115.5	0.0	50.0	100.0
=	-114.0	0.0	50.0	100.1
=	-112.5	0.0	50.0	100.2
=	-111.0	0.0	50.0	100.2
=	-109.5	0.0	50.0	100.3
=	-108.0	0.0	50.0	100.3
=	-106.6	0.0	50.0	100.4
=	-105.6	0.0	50.0	100.4
=	-104.7	0.0	50.0	100.5
=	-104.0	0.0	50.0	100.5
=	-103.2	0.0	50.0	100.6
=	-102.5	0.0	50.0	100.6
=	-102.0	0.0	50.0	100.6
=	-101.2	0.0	50.0	100.6
=	-100.7	0.0	50.0	100.6
=	-100.2	0.0	50.0	100.6
=	-99.7	0.0	50.0	100.6
=	-99.0	0.0	50.0	100.6
=	-98.2	0.0	50.0	100.6
=	-97.5	0.0	50.0	100.6
=	-96.7	0.0	50.0	100.6
=	-96.0	0.0	50.0	100.6
=	-95.2	0.0	50.0	100.6
=	-94.5	0.0	50.0	100.6
=	-93.7	0.0	50.0	100.7
=	-93.0	0.0	50.0	100.7
=	-92.2	0.0	50.0	100.7
=	-91.5	0.0	50.0	100.7
=	-90.9	0.0	50.0	100.7
=	-90.4	0.0	50.0	100.7
=	-89.7	0.0	50.0	100.7
=	-89.0	0.0	50.0	100.7
=	-88.2	0.0	50.0	100.8
=	-87.5	0.0	50.0	100.8
=	-86.9	0.0	50.0	100.8
=	-86.4	0.0	50.0	100.8
=	-85.9	0.0	50.0	100.8
=	-85.4	0.0	50.0	100.8
=	-84.9	0.0	50.0	100.8
=	-84.2	0.0	50.0	100.8
=	-83.4	0.0	50.0	100.9
=	-82.9	0.0	50.0	100.9
=	-82.4	0.0	50.0	100.9
=	-81.9	0.0	50.0	100.9
=	-81.4	0.0	50.0	101.0
=	-80.9	0.0	50.0	101.0
=	-80.4	0.0	50.0	101.0
=	-79.9	0.0	50.0	101.0
=	-79.4	0.0	50.0	101.0
=	-78.9	0.0	50.0	101.0
=	-78.4	0.0	50.0	101.0
=	-77.8	0.0	50.0	101.0
=	-77.3	0.0	50.0	101.0
=	-76.8	0.0	50.0	101.1
=	-76.3	0.0	50.0	101.1
=	-75.8	0.0	50.0	101.1
=	-75.3	0.0	50.0	101.1
=	-74.8	0.0	50.0	101.1
=	-74.3	0.0	50.0	101.1
=	-73.8	0.0	50.0	101.1
=	-73.3	0.0	50.0	101.1
=	-72.7	0.0	50.0	101.1
=	-72.2	0.0	50.0	101.2
=	-71.6	0.0	50.0	101.2
=	-70.9	0.0	50.0	101.2
=	-70.1	0.0	50.0	101.2
=	-69.5	0.0	50.0	101.2
=	-68.9	0.0	50.0	101.2
=	-68.3	0.0	50.0	101.2
=	-67.8	0.0	50.0	101.2
=	-67.1	0.0	50.0	101.2
=	-66.4	0.0	50.0	101.2
=	-65.6	0.0	50.0	101.2
=	-65.1	0.0	50.0	101.2
=	-64.6	0.0	50.0	101.2
=	-64.1	0.0	50.0	101.2
=	-63.4	0.0	50.0	101.2
=	-62.9	0.0	50.0	101.2
=	-62.3	0.0	50.0	101.2
=	-61.6	0.0	50.0	101.2
=	-60.8	0.0	50.0	101.2
=	-60.1	0.0	50.0	101.3
=	-59.3	0.0	50.0	101.3
=	-58.6	0.0	50.0	101.3
=	-57.8	0.0	50.0	101.3
=	-57.0	0.0	50.0	101.3
=	-56.3	0.0	50.0	101.3
=	-55.5	0.0	50.0	101.2
=	-54.8	0.0	50.0	101.2
=	-54.0	0.0	50.0	101.2
=	-53.2	0.0	50.0	101.2
=	-52.5	0.0	50.0	101.2
=	-51.9	0.0	50.0	101.2
=	-51.3	0.0	50.0	101.2
=	-50.7	0.0	50.0	101.2
=	-49.9	0.0	50.0	101.2
=	-49.2	0.0	50.0	101.2
=	-48.6	0.0	50.0	101.3
=	-47.9	0.0	50.0	101.2
=	-47.2	0.0	50.0	101.2
=	-46.7	0.0	50.0	101.2
=	-45.9	0.0	50.0	101.2
=	-45.2	0.0	50.0	101.2
=	-44.5	0.0	50.0	101.2
=	-44.1	0.0	50.0	101.2
=	-43.5	0.0	50.0	101.2
=	-43.0	0.0	50.0	101.1
=	-42.5	0.0	50.0	101.1
=	-42.0	0.0	50.0	101.1
=	-41.5	0.0	50.0	101.1
=	-41.0	0.0	50.0	101.1
=	-40.5	0.0	50.0	101.1
=	-40.0	0.0	50.0	101.1
=	-39.5	0.0	50.0	101.1
=	-39.0	0.0	50.0	101.1
=	-38.5	0.0	50.0	101.1
=	-37.9	0.0	50.0	101.0
=	-37.2	0.0	50.0	101.0
=	-36.4	0.0	50.0	101.0
=	-35.6	0.0	50.0	101.0
=	-34.9	0.0	50.0	101.0
=	-34.1	0.0	50.0	100.9
=	-33.3	0.0	50.0	100.9
=	-32.6	0.0	50.0	100.9
=	-31.8	0.0	50.0	100.9
=	-31.1	0.0	50.0	100.9
=	-30.4	0.0	50.0	100.9
=	-29.6	0.0	50.0	100.8
=	-28.8	0.0	50.0	100.8
=	-28.1	0.0	50.0	100.8
=	-27.3	0.0	50.0	100.8
=	-26.5	0.0	50.0	100.7
=	-25.8	0.0	50.0	100.7
=	-25.0	0.0	50.0	100.7
=	-24.3	0.0	50.0	100.7
=	-23.5	0.0	50.0	100.7
=	-22.8	0.0	50.0	100.7
=	-22.0	0.0	50.0	100.6
=	-21.5	0.0	50.0	100.6
=	-21.0	0.0	50.0	100.6
=	-20.5	0.0	50.0	100.6
=	-20.0	0.0	50.0	100.6
=	-19.4	0.0	50.0	100.6
=	-18.9	0.0	50.0	100.6
=	-18.4	0.0	50.0	100.6
=	-17.9	0.0	50.0	100.6
=	-17.3	0.0	50.0	100.6
=	-16.8	0.0	50.0	100.6
=	-16.3	0.0	50.0	100.5
=	-15.8	0.0	50.0	100.5
=	-15.3	0.0	50.0	100.5
=	-14.7	0.0	50.0	100.5
=	-14.1	0.0	50.0	100.4
=	-13.7	0.0	50.0	100.4
=	-12.9	0.0	50.0	100.4
=	-12.2	0.0	50.0	100.4
=	-11.4	0.0	50.0	100.3
=	-10.7	0.0	50.0	100.3
=	-9.9	0.0	50.0	100.3
=	-9.2	0.0	50.0	100.3
=	-8.4	0.0	50.0	100.2
=	-7.7	0.0	50.0	100.2
=	-6.9	0.0	50.0	100.1
=	-6.2	0.0	50.0	100.1
=	-5.4	0.0	50.0	100.1
=	-4.7	0.0	50.0	100.0
=	-3.8	0.0	50.0	100.0
=	-3.1	0.0	50.0	100.0
=	-2.0	0.0	50.0	100.0
=	-1.0	0.0	50.0	100.0
=	-0.2	0.0	50.0	100.0
=	0.0	0.0	50.0	100.0
=	0.8	0.0	50.0	100.0
=	1.6	0.0	50.0	100.0
=	2.8	0.0	50.0	100.0
=	3.6	0.0	50.0	100.0
=	4.4	0.0	50.0	100.0
=	5.2	0.0	50.0	100.1
=	5.9	0.0	50.0	100.1
=	6.7	0.0	50.0	100.1
=	7.4	0.0	50.0	100.1
=	8.2	0.0	50.0	100.2
=	8.9	0.0	50.0	100.3
=	9.7	0.0	50.0	100.3
=	10.4	0.0	50.0	100.3
=	11.2	0.0	50.0	100.3
=	11.9	0.0	50.0	100.4
=	12.7	0.0	50.0	100.4
=	13.4	0.0	50.0	100.4
=	14.0	0.0	50.0	100.4
=	14.5	0.0	50.0	100.5
=	15.2	0.0	50.0	100.5
=	15.7	0.0	50.0	100.5
=	16.1	0.0	50.0	100.5
=	16.7	0.0	50.0	100.6
=	17.2	0.0	50.0	100.6
=	17.7	0.0	50.0	100.6
=	18.2	0.0	50.0	100.6
=	18.7	0.0	50.0	100.6
=	19.2	0.0	50.0	100.6
=	19.8	0.0	50.0	100.6
=	20.4	0.0	50.0	100.6
=	20.9	0.0	50.0	100.6
=	21.4	0.0	50.0	100.6
=	21.9	0.0	50.0	100.6
=	22.5	0.0	50.0	100.7
=	23.3	0.0	50.0	100.7
=	24.0	0.0	50.0	100.7
=	24.8	0.0	50.0	100.7
=	25.5	0.0	50.0	100.7
=	26.3	0.0	50.0	100.7
=	27.1	0.0	50.0	100.8
=	27.9	0.0	50.0	100.8
=	28.5	0.0	50.0	100.8
=	29.3	0.0	50.0	100.8
=	30.1	0.0	50.0	100.8
=	30.9	0.0	50.0	100.9
=	31.6	0.0	50.0	100.9
=	32.3	0.0	50.0	100.9
=	33.1	0.0	50.0	100.9
=	33.9	0.0	50.0	100.9
=	34.6	0.0	50.0	100.9
=	35.4	0.0	50.0	101.0
=	36.1	0.0	50.0	101.0
=	36.9	0.0	50.0	101.0
=	37.7	0.0	50.0	101.0
=	38.3	0.0	50.0	101.1
=	38.9	0.0	50.0	101.1
=	39.3	0.0	50.0	101.1
=	39.8	0.0	50.0	101.1
=	40.4	0.0	50.0	101.1
=	40.9	0.0	50.0	101.1
=	41.4	0.0	50.0	101.1
=	41.9	0.0	50.0	101.1
=	42.4	0.0	50.0	101.1
=	42.9	0.0	50.0	101.1
=	43.4	0.0	50.0	101.1
=	43.9	0.0	50.0	101.2
=	44.4	0.0	50.0	101.2
=	44.9	0.0	50.0	101.2
=	45.7	0.0	50.0	101.2
=	46.4	0.0	50.0	101.2
=	47.1	0.0	50.0	101.2
=	47.7	0.0	50.0	101.2
=	48.4	0.0	50.0	101.3
=	48.9	0.0	50.0	101.3
=	49.7	0.0	50.0	101.2
=	50.5	0.0	50.0	101.2
=	51.1	0.0	50.0	101.2
=	51.8	0.0	50.0	101.2
=	52.3	0.0	50.0	101.2
=	53.0	0.0	50.0	101.2
=	53.7	0.0	50.0	101.2
=	54.5	0.0	50.0	101.2
=	55.3	0.0	50.0	101.2
=	56.0	0.0	50.0	101.2
=	56.8	0.0	50.0	101.3
=	57.5	0.0	50.0	101.3
=	58.3	0.0	50.0	101.3
=	59.1	0.0	50.0	101.3
=	59.8	0.0	50.0	101.3
=	60.6	0.0	50.0	101.3
=	61.3	0.0	50.0	101.2
=	62.1	0.0	50.0	101.2
=	62.7	0.0	50.0	101.2
=	63.2	0.0	50.0	101.2
=	63.8	0.0	50.0	101.2
=	64.4	0.0	50.0	101.2
=	64.9	0.0	50.0	101.2
=	65.4	0.0	50.0	101.2
=	66.1	0.0	50.0	101.2
=	66.9	0.0	50.0	101.2
=	67.6	0.0	50.0	101.2
=	68.1	0.0	50.0	101.2
=	68.6	0.0	50.0	101.2
=	69.3	0.0	50.0	101.2
=	69.9	0.0	50.0	101.2
=	70.6	0.0	50.0	101.2
=	71.4	0.0	50.0	101.2
=	72.0	0.0	50.0	101.2
=	72.5	0.0	50.0	101.1
=	73.1	0.0	50.0	101.1
=	73.7	0.0	50.0	101.1
=	74.2	0.0	50.0	101.1
=	74.7	0.0	50.0	101.1
=	75.2	0.0	50.0	101.1
=	75.7	0.0	50.0	101.1
=	76.2	0.0	50.0	101.1
=	76.7	0.0	50.0	101.1
=	77.2	0.0	50.0	101.1
=	77.7	0.0	50.0	101.0
=	78.2	0.0	50.0	101.0
=	78.7	0.0	50.0	101.0
=	79.2	0.0	50.0	101.0
=	79.7	0.0	50.0	101.0
=	80.2	0.0	50.0	101.0
=	80.7	0.0	50.0	101.0
=	81.2	0.0	50.0	101.0
=	81.7	0.0	50.0	101.0
=	82.2	0.0	50.0	100.9
=	82.7	0.0	50.0	100.9
=	83.2	0.0	50.0	100.9
=	83.9	0.0	50.0	100.9
=	84.7	0.0	50.0	100.8
=	85.3	0.0	50.0	100.8
=	85.8	0.0	50.0	100.8
=	86.3	0.0	50.0	100.8
=	86.8	0.0	50.0	100.8
=	87.3	0.0	50.0	100.8
=	88.0	0.0	50.0	100.8
=	88.7	0.0	50.0	100.7
=	89.5	0.0	50.0	100.7
=	90.2	0.0	50.0	100.7
=	90.8	0.0	50.0	100.7
=	91.3	0.0	50.0	100.7
=	92.0	0.0	50.0	100.7
=	92.7	0.0	50.0	100.7
=	93.5	0.0	50.0	100.7
=	94.2	0.0	50.0	100.7
=	95.0	0.0	50.0	100.6
=	95.7	0.0	50.0	100.6
=	96.5	0.0	50.0	100.6
=	97.2	0.0	50.0	100.6
=	98.0	0.0	50.0	100.6
=	98.7	0.0	50.0	100.6
=	99.5	0.0	50.0	100.6
=	100.0	0.0	50.0	100.6
=	100.5	0.0	50.0	100.6
=	101.0	0.0	50.0	100.6
=	101.7	0.0	50.0	100.6
=	102.3	0.0	50.0	100.6
=	103.0	0.0	50.0	100.6
=	103.7	0.0	50.0	100.5
=	104.5	0.0	50.0	100.5
=	105.2	0.0	50.0	100.5
=	106.3	0.0	50.0	100.4
=	107.5	0.0	50.0	100.3
=	109.0	0.0	50.0	100.3
=	110.5	0.0	50.0	100.2
=	112.0	0.0	50.0	100.2
=	113.5	0.0	50.0	100.1
=	115.0	0.0	50.0	100.0
=	116.5	0.0	50.0	100.0
=	118.1	0.0	50.0	100.0
=	119.5	0.0	50.0	99.9
=	121.1	0.0	50.0	99.8
=	122.6	0.0	50.0	99.8
=	124.1	0.0	50.0	99.7
=	125.6	0.0	50.0	99.6
=	127.2	0.0	50.0	99.5
=	128.6	0.0	50.0	99.5
=	129.7	0.0	50.0	99.5
=	130.5	0.0	50.0	99.4
=	131.3	0.0	50.0	99.4
=	132.3	0.0	50.0	99.3
=	133.0	0.0	50.0	99.3
=	133.8	0.0	50.0	99.2
=	134.5	0.0	50.0	99.2
=	135.4	0.0	50.0	99.1
=	136.1	0.0	50.0	99.1
=	136.9	0.0	50.0	99.1
=	137.6	0.0	50.0	99.1
=	138.4	0.0	50.0	99.0
=	139.1	0.0	50.0	99.0
=	139.9	0.0	50.0	99.0
=	140.6	0.0	50.0	99.0
=	141.4	0.0	50.0	98.9
=	142.1	0.0	50.0	98.9
