:MSR 	5	 # No. of measurement in file
:SYS BDS 0   # Beam Data Scanner System
#
# RFA300 ASCII Measurement Dump ( BDS format )
#
# Measurement number 	1
#
%VNR 1.0
%MOD 	RAT
%TYP 	SCN
%SCN 	PRO
%FLD 	ION
%DAT 	02-03-2012
%TIM 	12:00:00
%FSZ 	400	300
%BMT 	PHO	   4.0
%SSD 	1000
%BUP 	0
%BRD 	1000
%FSH 	1
%ASC 	0
%WEG 	30
%GPO 	0
%CPO 	0
%MEA 	6
%PRD 	12,0
%PTS 	697
%STS 	    0.0	  -270.1	   12.0 # Start Scan values in mm ( X , Y , Z )
%EDS 	    0.0	   270.1	   12.0 # End Scan values in mm ( X , Y , Z )
#
#	  X      Y      Z     Dose
#
=	0.0	-270.1	12.0	10.2
=	0.0	-269.3	12.0	10.3
=	0.0	-268.6	12.0	10.3
=	0.0	-268.1	12.0	10.3
=	0.0	-267.6	12.0	10.3
=	0.0	-267.0	12.0	10.4
=	0.0	-266.3	12.0	10.4
=	0.0	-265.5	12.0	10.5
=	0.0	-265.0	12.0	10.5
=	0.0	-264.4	12.0	10.6
=	0.0	-263.6	12.0	10.6
=	0.0	-262.2	12.0	10.6
=	0.0	-260.7	12.0	10.7
=	0.0	-259.2	12.0	10.8
=	0.0	-257.7	12.0	10.9
=	0.0	-256.2	12.0	11.0
=	0.0	-254.7	12.0	11.1
=	0.0	-253.1	12.0	11.2
=	0.0	-251.8	12.0	11.3
=	0.0	-251.0	12.0	11.4
=	0.0	-250.0	12.0	11.5
=	0.0	-249.3	12.0	11.5
=	0.0	-248.4	12.0	11.6
=	0.0	-247.7	12.0	11.6
=	0.0	-246.9	12.0	11.7
=	0.0	-246.2	12.0	11.7
=	0.0	-245.4	12.0	11.8
=	0.0	-244.7	12.0	11.9
=	0.0	-243.9	12.0	12.0
=	0.0	-243.2	12.0	12.0
=	0.0	-242.4	12.0	12.1
=	0.0	-241.3	12.0	12.2
=	0.0	-240.4	12.0	12.3
=	0.0	-239.1	12.0	12.4
=	0.0	-237.6	12.0	12.5
=	0.0	-236.4	12.0	12.6
=	0.0	-235.6	12.0	12.7
=	0.0	-234.1	12.0	12.9
=	0.0	-232.6	12.0	13.0
=	0.0	-231.2	12.0	13.1
=	0.0	-230.1	12.0	13.3
=	0.0	-228.6	12.0	13.4
=	0.0	-227.7	12.0	13.5
=	0.0	-226.6	12.0	13.7
=	0.0	-225.0	12.0	13.9
=	0.0	-224.1	12.0	14.0
=	0.0	-223.3	12.0	14.1
=	0.0	-222.6	12.0	14.3
=	0.0	-221.8	12.0	14.4
=	0.0	-221.1	12.0	14.5
=	0.0	-220.3	12.0	14.6
=	0.0	-219.6	12.0	14.7
=	0.0	-218.8	12.0	14.9
=	0.0	-217.8	12.0	15.0
=	0.0	-216.9	12.0	15.1
=	0.0	-215.8	12.0	15.4
=	0.0	-214.8	12.0	15.6
=	0.0	-214.0	12.0	15.7
=	0.0	-213.0	12.0	15.9
=	0.0	-211.7	12.0	16.3
=	0.0	-211.0	12.0	16.4
=	0.0	-210.2	12.0	16.7
=	0.0	-209.5	12.0	17.1
=	0.0	-208.7	12.0	17.6
=	0.0	-208.0	12.0	18.3
=	0.0	-207.2	12.0	19.4
=	0.0	-206.5	12.0	21.0
=	0.0	-205.7	12.0	23.3
=	0.0	-205.0	12.0	26.3
=	0.0	-204.2	12.0	30.6
=	0.0	-203.4	12.0	35.7
=	0.0	-202.7	12.0	41.6
=	0.0	-201.9	12.0	48.2
=	0.0	-201.1	12.0	55.3
=	0.0	-200.4	12.0	62.1
=	0.0	-199.6	12.0	69.3
=	0.0	-198.9	12.0	75.6
=	0.0	-198.2	12.0	81.1
=	0.0	-197.4	12.0	85.5
=	0.0	-196.6	12.0	88.7
=	0.0	-195.9	12.0	90.7
=	0.0	-195.1	12.0	92.0
=	0.0	-194.3	12.0	92.8
=	0.0	-193.6	12.0	93.3
=	0.0	-192.8	12.0	93.7
=	0.0	-192.1	12.0	94.0
=	0.0	-191.3	12.0	94.2
=	0.0	-190.6	12.0	94.4
=	0.0	-189.8	12.0	94.5
=	0.0	-189.0	12.0	94.7
=	0.0	-188.3	12.0	94.8
=	0.0	-187.5	12.0	94.9
=	0.0	-186.8	12.0	95.0
=	0.0	-186.0	12.0	95.2
=	0.0	-185.3	12.0	95.3
=	0.0	-184.6	12.0	95.4
=	0.0	-183.8	12.0	95.5
=	0.0	-183.0	12.0	95.7
=	0.0	-182.2	12.0	95.8
=	0.0	-181.5	12.0	95.8
=	0.0	-180.8	12.0	95.9
=	0.0	-180.0	12.0	96.0
=	0.0	-179.2	12.0	96.1
=	0.0	-178.5	12.0	96.2
=	0.0	-177.7	12.0	96.3
=	0.0	-177.0	12.0	96.4
=	0.0	-176.2	12.0	96.5
=	0.0	-175.5	12.0	96.6
=	0.0	-174.7	12.0	96.6
=	0.0	-174.0	12.0	96.7
=	0.0	-173.2	12.0	96.8
=	0.0	-172.5	12.0	96.8
=	0.0	-171.7	12.0	96.8
=	0.0	-171.0	12.0	96.9
=	0.0	-170.2	12.0	97.0
=	0.0	-169.5	12.0	97.2
=	0.0	-168.7	12.0	97.3
=	0.0	-168.0	12.0	97.3
=	0.0	-167.2	12.0	97.4
=	0.0	-166.4	12.0	97.5
=	0.0	-165.6	12.0	97.6
=	0.0	-164.9	12.0	97.6
=	0.0	-164.2	12.0	97.7
=	0.0	-163.4	12.0	97.8
=	0.0	-162.7	12.0	97.9
=	0.0	-162.0	12.0	98.0
=	0.0	-161.2	12.0	98.0
=	0.0	-160.4	12.0	98.1
=	0.0	-159.8	12.0	98.1
=	0.0	-159.2	12.0	98.1
=	0.0	-158.4	12.0	98.2
=	0.0	-157.8	12.0	98.3
=	0.0	-157.3	12.0	98.4
=	0.0	-156.8	12.0	98.4
=	0.0	-156.3	12.0	98.5
=	0.0	-155.8	12.0	98.5
=	0.0	-155.3	12.0	98.6
=	0.0	-154.7	12.0	98.6
=	0.0	-154.1	12.0	98.7
=	0.0	-153.6	12.0	98.7
=	0.0	-153.1	12.0	98.8
=	0.0	-152.6	12.0	98.8
=	0.0	-152.0	12.0	98.9
=	0.0	-151.4	12.0	98.9
=	0.0	-150.9	12.0	99.0
=	0.0	-150.4	12.0	99.0
=	0.0	-150.0	12.0	99.1
=	0.0	-149.4	12.0	99.1
=	0.0	-148.9	12.0	99.2
=	0.0	-148.4	12.0	99.2
=	0.0	-147.9	12.0	99.2
=	0.0	-147.3	12.0	99.3
=	0.0	-146.8	12.0	99.3
=	0.0	-146.3	12.0	99.3
=	0.0	-145.8	12.0	99.4
=	0.0	-145.2	12.0	99.4
=	0.0	-144.7	12.0	99.5
=	0.0	-144.2	12.0	99.5
=	0.0	-143.7	12.0	99.5
=	0.0	-143.2	12.0	99.6
=	0.0	-142.7	12.0	99.6
=	0.0	-142.2	12.0	99.6
=	0.0	-141.7	12.0	99.7
=	0.0	-141.2	12.0	99.7
=	0.0	-140.7	12.0	99.7
=	0.0	-140.2	12.0	99.7
=	0.0	-139.7	12.0	99.8
=	0.0	-139.1	12.0	99.8
=	0.0	-138.4	12.0	99.8
=	0.0	-137.9	12.0	99.8
=	0.0	-137.3	12.0	99.8
=	0.0	-136.8	12.0	99.8
=	0.0	-136.1	12.0	99.8
=	0.0	-135.3	12.0	99.8
=	0.0	-134.6	12.0	99.8
=	0.0	-133.8	12.0	99.8
=	0.0	-133.3	12.0	99.8
=	0.0	-132.5	12.0	99.9
=	0.0	-131.8	12.0	99.9
=	0.0	-131.3	12.0	99.9
=	0.0	-130.8	12.0	99.9
=	0.0	-130.0	12.0	100.0
=	0.0	-129.2	12.0	100.0
=	0.0	-128.5	12.0	100.0
=	0.0	-127.7	12.0	100.0
=	0.0	-126.9	12.0	100.1
=	0.0	-126.3	12.0	100.1
=	0.0	-125.5	12.0	100.1
=	0.0	-124.9	12.0	100.1
=	0.0	-124.4	12.0	100.2
=	0.0	-123.7	12.0	100.2
=	0.0	-122.9	12.0	100.2
=	0.0	-122.2	12.0	100.3
=	0.0	-121.7	12.0	100.3
=	0.0	-121.0	12.0	100.3
=	0.0	-120.4	12.0	100.3
=	0.0	-119.7	12.0	100.3
=	0.0	-119.0	12.0	100.4
=	0.0	-118.4	12.0	100.4
=	0.0	-117.7	12.0	100.4
=	0.0	-116.9	12.0	100.4
=	0.0	-116.1	12.0	100.4
=	0.0	-115.3	12.0	100.5
=	0.0	-114.6	12.0	100.5
=	0.0	-113.8	12.0	100.5
=	0.0	-113.1	12.0	100.6
=	0.0	-112.3	12.0	100.6
=	0.0	-111.6	12.0	100.6
=	0.0	-110.8	12.0	100.6
=	0.0	-110.1	12.0	100.6
=	0.0	-109.3	12.0	100.7
=	0.0	-108.6	12.0	100.7
=	0.0	-107.8	12.0	100.7
=	0.0	-107.1	12.0	100.8
=	0.0	-106.3	12.0	100.8
=	0.0	-105.6	12.0	100.8
=	0.0	-104.8	12.0	100.9
=	0.0	-104.1	12.0	100.9
=	0.0	-103.3	12.0	100.9
=	0.0	-102.5	12.0	100.9
=	0.0	-101.8	12.0	100.9
=	0.0	-101.0	12.0	100.9
=	0.0	-100.2	12.0	101.0
=	0.0	-99.5	12.0	101.0
=	0.0	-98.7	12.0	101.0
=	0.0	-98.0	12.0	101.0
=	0.0	-97.2	12.0	101.0
=	0.0	-96.5	12.0	101.0
=	0.0	-95.7	12.0	101.0
=	0.0	-95.0	12.0	101.0
=	0.0	-94.3	12.0	101.0
=	0.0	-93.6	12.0	101.0
=	0.0	-93.0	12.0	101.1
=	0.0	-92.4	12.0	101.1
=	0.0	-91.9	12.0	101.0
=	0.0	-91.1	12.0	101.0
=	0.0	-90.4	12.0	101.1
=	0.0	-89.6	12.0	101.1
=	0.0	-88.9	12.0	101.1
=	0.0	-88.1	12.0	101.0
=	0.0	-87.3	12.0	101.1
=	0.0	-86.6	12.0	101.1
=	0.0	-85.8	12.0	101.1
=	0.0	-85.0	12.0	101.1
=	0.0	-84.3	12.0	101.2
=	0.0	-83.5	12.0	101.2
=	0.0	-82.7	12.0	101.2
=	0.0	-82.0	12.0	101.2
=	0.0	-81.2	12.0	101.2
=	0.0	-80.5	12.0	101.3
=	0.0	-79.7	12.0	101.2
=	0.0	-79.0	12.0	101.2
=	0.0	-78.1	12.0	101.3
=	0.0	-77.2	12.0	101.3
=	0.0	-76.4	12.0	101.3
=	0.0	-75.6	12.0	101.3
=	0.0	-74.9	12.0	101.4
=	0.0	-74.1	12.0	101.4
=	0.0	-73.2	12.0	101.5
=	0.0	-72.2	12.0	101.5
=	0.0	-70.8	12.0	101.5
=	0.0	-69.7	12.0	101.5
=	0.0	-68.2	12.0	101.5
=	0.0	-66.7	12.0	101.5
=	0.0	-65.6	12.0	101.4
=	0.0	-64.2	12.0	101.5
=	0.0	-62.9	12.0	101.5
=	0.0	-62.2	12.0	101.5
=	0.0	-61.4	12.0	101.5
=	0.0	-60.7	12.0	101.5
=	0.0	-59.9	12.0	101.5
=	0.0	-59.2	12.0	101.5
=	0.0	-58.4	12.0	101.5
=	0.0	-57.6	12.0	101.5
=	0.0	-56.9	12.0	101.5
=	0.0	-56.1	12.0	101.5
=	0.0	-55.4	12.0	101.5
=	0.0	-54.6	12.0	101.5
=	0.0	-53.8	12.0	101.5
=	0.0	-53.1	12.0	101.4
=	0.0	-52.3	12.0	101.4
=	0.0	-51.6	12.0	101.4
=	0.0	-50.8	12.0	101.4
=	0.0	-50.0	12.0	101.4
=	0.0	-49.3	12.0	101.4
=	0.0	-48.5	12.0	101.4
=	0.0	-47.8	12.0	101.4
=	0.0	-47.0	12.0	101.4
=	0.0	-46.0	12.0	101.3
=	0.0	-44.6	12.0	101.3
=	0.0	-43.1	12.0	101.3
=	0.0	-42.1	12.0	101.3
=	0.0	-41.3	12.0	101.2
=	0.0	-40.6	12.0	101.2
=	0.0	-39.8	12.0	101.2
=	0.0	-39.1	12.0	101.2
=	0.0	-38.3	12.0	101.2
=	0.0	-37.6	12.0	101.1
=	0.0	-36.8	12.0	101.1
=	0.0	-36.1	12.0	101.2
=	0.0	-35.3	12.0	101.1
=	0.0	-34.6	12.0	101.1
=	0.0	-33.8	12.0	101.1
=	0.0	-33.1	12.0	101.0
=	0.0	-32.3	12.0	101.0
=	0.0	-31.6	12.0	101.0
=	0.0	-30.8	12.0	100.9
=	0.0	-30.0	12.0	100.9
=	0.0	-29.3	12.0	100.9
=	0.0	-28.5	12.0	100.9
=	0.0	-27.8	12.0	100.8
=	0.0	-27.0	12.0	100.8
=	0.0	-26.3	12.0	100.8
=	0.0	-25.5	12.0	100.8
=	0.0	-24.8	12.0	100.7
=	0.0	-24.0	12.0	100.7
=	0.0	-23.2	12.0	100.7
=	0.0	-22.5	12.0	100.7
=	0.0	-21.9	12.0	100.7
=	0.0	-21.2	12.0	100.6
=	0.0	-20.5	12.0	100.6
=	0.0	-19.7	12.0	100.6
=	0.0	-19.0	12.0	100.6
=	0.0	-18.2	12.0	100.6
=	0.0	-17.5	12.0	100.6
=	0.0	-16.7	12.0	100.6
=	0.0	-16.0	12.0	100.5
=	0.0	-15.2	12.0	100.5
=	0.0	-14.5	12.0	100.4
=	0.0	-13.7	12.0	100.4
=	0.0	-12.9	12.0	100.3
=	0.0	-12.2	12.0	100.3
=	0.0	-11.4	12.0	100.3
=	0.0	-10.7	12.0	100.3
=	0.0	-9.9	12.0	100.2
=	0.0	-9.2	12.0	100.2
=	0.0	-8.4	12.0	100.2
=	0.0	-7.7	12.0	100.2
=	0.0	-7.0	12.0	100.2
=	0.0	-6.4	12.0	100.2
=	0.0	-5.6	12.0	100.2
=	0.0	-4.9	12.0	100.2
=	0.0	-4.1	12.0	100.1
=	0.0	-3.4	12.0	100.1
=	0.0	-2.8	12.0	100.1
=	0.0	-2.1	12.0	100.1
=	0.0	-1.3	12.0	100.0
=	0.0	-0.7	12.0	100.0
=	0.0	0.0	12.0	100.0
=	0.0	0.7	12.0	100.0
=	0.0	1.3	12.0	100.0
=	0.0	2.1	12.0	100.1
=	0.0	2.8	12.0	100.1
=	0.0	3.4	12.0	100.1
=	0.0	4.1	12.0	100.1
=	0.0	4.9	12.0	100.2
=	0.0	5.6	12.0	100.2
=	0.0	6.4	12.0	100.2
=	0.0	7.0	12.0	100.2
=	0.0	7.7	12.0	100.2
=	0.0	8.4	12.0	100.2
=	0.0	9.2	12.0	100.2
=	0.0	9.9	12.0	100.2
=	0.0	10.7	12.0	100.3
=	0.0	11.4	12.0	100.3
=	0.0	12.2	12.0	100.3
=	0.0	12.9	12.0	100.3
=	0.0	13.7	12.0	100.4
=	0.0	14.5	12.0	100.4
=	0.0	15.2	12.0	100.5
=	0.0	16.0	12.0	100.5
=	0.0	16.7	12.0	100.6
=	0.0	17.5	12.0	100.6
=	0.0	18.2	12.0	100.6
=	0.0	19.0	12.0	100.6
=	0.0	19.7	12.0	100.6
=	0.0	20.5	12.0	100.6
=	0.0	21.2	12.0	100.6
=	0.0	21.9	12.0	100.7
=	0.0	22.5	12.0	100.7
=	0.0	23.2	12.0	100.7
=	0.0	24.0	12.0	100.7
=	0.0	24.8	12.0	100.7
=	0.0	25.5	12.0	100.8
=	0.0	26.3	12.0	100.8
=	0.0	27.0	12.0	100.8
=	0.0	27.8	12.0	100.8
=	0.0	28.5	12.0	100.9
=	0.0	29.3	12.0	100.9
=	0.0	30.0	12.0	100.9
=	0.0	30.8	12.0	100.9
=	0.0	31.6	12.0	101.0
=	0.0	32.3	12.0	101.0
=	0.0	33.1	12.0	101.0
=	0.0	33.8	12.0	101.1
=	0.0	34.6	12.0	101.1
=	0.0	35.3	12.0	101.1
=	0.0	36.1	12.0	101.2
=	0.0	36.8	12.0	101.1
=	0.0	37.6	12.0	101.1
=	0.0	38.3	12.0	101.2
=	0.0	39.1	12.0	101.2
=	0.0	39.8	12.0	101.2
=	0.0	40.6	12.0	101.2
=	0.0	41.3	12.0	101.2
=	0.0	42.1	12.0	101.3
=	0.0	43.1	12.0	101.3
=	0.0	44.6	12.0	101.3
=	0.0	46.0	12.0	101.3
=	0.0	47.0	12.0	101.4
=	0.0	47.8	12.0	101.4
=	0.0	48.5	12.0	101.4
=	0.0	49.3	12.0	101.4
=	0.0	50.0	12.0	101.4
=	0.0	50.8	12.0	101.4
=	0.0	51.6	12.0	101.4
=	0.0	52.3	12.0	101.4
=	0.0	53.1	12.0	101.4
=	0.0	53.8	12.0	101.5
=	0.0	54.6	12.0	101.5
=	0.0	55.4	12.0	101.5
=	0.0	56.1	12.0	101.5
=	0.0	56.9	12.0	101.5
=	0.0	57.6	12.0	101.5
=	0.0	58.4	12.0	101.5
=	0.0	59.2	12.0	101.5
=	0.0	59.9	12.0	101.5
=	0.0	60.7	12.0	101.5
=	0.0	61.4	12.0	101.5
=	0.0	62.2	12.0	101.5
=	0.0	62.9	12.0	101.5
=	0.0	64.2	12.0	101.5
=	0.0	65.6	12.0	101.4
=	0.0	66.7	12.0	101.5
=	0.0	68.2	12.0	101.5
=	0.0	69.7	12.0	101.5
=	0.0	70.8	12.0	101.5
=	0.0	72.2	12.0	101.5
=	0.0	73.2	12.0	101.5
=	0.0	74.1	12.0	101.4
=	0.0	74.9	12.0	101.4
=	0.0	75.6	12.0	101.3
=	0.0	76.4	12.0	101.3
=	0.0	77.2	12.0	101.3
=	0.0	78.1	12.0	101.3
=	0.0	79.0	12.0	101.2
=	0.0	79.7	12.0	101.2
=	0.0	80.5	12.0	101.3
=	0.0	81.2	12.0	101.2
=	0.0	82.0	12.0	101.2
=	0.0	82.7	12.0	101.2
=	0.0	83.5	12.0	101.2
=	0.0	84.3	12.0	101.2
=	0.0	85.0	12.0	101.1
=	0.0	85.8	12.0	101.1
=	0.0	86.6	12.0	101.1
=	0.0	87.3	12.0	101.1
=	0.0	88.1	12.0	101.0
=	0.0	88.9	12.0	101.1
=	0.0	89.6	12.0	101.1
=	0.0	90.4	12.0	101.1
=	0.0	91.1	12.0	101.0
=	0.0	91.9	12.0	101.0
=	0.0	92.4	12.0	101.1
=	0.0	93.0	12.0	101.1
=	0.0	93.6	12.0	101.0
=	0.0	94.3	12.0	101.0
=	0.0	95.0	12.0	101.0
=	0.0	95.7	12.0	101.0
=	0.0	96.5	12.0	101.0
=	0.0	97.2	12.0	101.0
=	0.0	98.0	12.0	101.0
=	0.0	98.7	12.0	101.0
=	0.0	99.5	12.0	101.0
=	0.0	100.2	12.0	101.0
=	0.0	101.0	12.0	100.9
=	0.0	101.8	12.0	100.9
=	0.0	102.5	12.0	100.9
=	0.0	103.3	12.0	100.9
=	0.0	104.1	12.0	100.9
=	0.0	104.8	12.0	100.9
=	0.0	105.6	12.0	100.8
=	0.0	106.3	12.0	100.8
=	0.0	107.1	12.0	100.8
=	0.0	107.8	12.0	100.7
=	0.0	108.6	12.0	100.7
=	0.0	109.3	12.0	100.7
=	0.0	110.1	12.0	100.6
=	0.0	110.8	12.0	100.6
=	0.0	111.6	12.0	100.6
=	0.0	112.3	12.0	100.6
=	0.0	113.1	12.0	100.6
=	0.0	113.8	12.0	100.5
=	0.0	114.6	12.0	100.5
=	0.0	115.3	12.0	100.5
=	0.0	116.1	12.0	100.4
=	0.0	116.9	12.0	100.4
=	0.0	117.7	12.0	100.4
=	0.0	118.4	12.0	100.4
=	0.0	119.0	12.0	100.4
=	0.0	119.7	12.0	100.3
=	0.0	120.4	12.0	100.3
=	0.0	121.0	12.0	100.3
=	0.0	121.7	12.0	100.3
=	0.0	122.2	12.0	100.3
=	0.0	122.9	12.0	100.2
=	0.0	123.7	12.0	100.2
=	0.0	124.4	12.0	100.2
=	0.0	124.9	12.0	100.1
=	0.0	125.5	12.0	100.1
=	0.0	126.3	12.0	100.1
=	0.0	126.9	12.0	100.1
=	0.0	127.7	12.0	100.0
=	0.0	128.5	12.0	100.0
=	0.0	129.2	12.0	100.0
=	0.0	130.0	12.0	100.0
=	0.0	130.8	12.0	99.9
=	0.0	131.3	12.0	99.9
=	0.0	131.8	12.0	99.9
=	0.0	132.5	12.0	99.9
=	0.0	133.3	12.0	99.8
=	0.0	133.8	12.0	99.8
=	0.0	134.6	12.0	99.8
=	0.0	135.3	12.0	99.8
=	0.0	136.1	12.0	99.8
=	0.0	136.8	12.0	99.8
=	0.0	137.3	12.0	99.8
=	0.0	137.9	12.0	99.8
=	0.0	138.4	12.0	99.8
=	0.0	139.1	12.0	99.8
=	0.0	139.7	12.0	99.8
=	0.0	140.2	12.0	99.7
=	0.0	140.7	12.0	99.7
=	0.0	141.2	12.0	99.7
=	0.0	141.7	12.0	99.7
=	0.0	142.2	12.0	99.6
=	0.0	142.7	12.0	99.6
=	0.0	143.2	12.0	99.6
=	0.0	143.7	12.0	99.5
=	0.0	144.2	12.0	99.5
=	0.0	144.7	12.0	99.5
=	0.0	145.2	12.0	99.4
=	0.0	145.8	12.0	99.4
=	0.0	146.3	12.0	99.3
=	0.0	146.8	12.0	99.3
=	0.0	147.3	12.0	99.3
=	0.0	147.9	12.0	99.2
=	0.0	148.4	12.0	99.2
=	0.0	148.9	12.0	99.2
=	0.0	149.4	12.0	99.1
=	0.0	150.0	12.0	99.1
=	0.0	150.4	12.0	99.0
=	0.0	150.9	12.0	99.0
=	0.0	151.4	12.0	98.9
=	0.0	152.0	12.0	98.9
=	0.0	152.6	12.0	98.8
=	0.0	153.1	12.0	98.8
=	0.0	153.6	12.0	98.7
=	0.0	154.1	12.0	98.7
=	0.0	154.7	12.0	98.6
=	0.0	155.3	12.0	98.6
=	0.0	155.8	12.0	98.5
=	0.0	156.3	12.0	98.5
=	0.0	156.8	12.0	98.4
=	0.0	157.3	12.0	98.4
=	0.0	157.8	12.0	98.3
=	0.0	158.4	12.0	98.2
=	0.0	159.2	12.0	98.1
=	0.0	159.8	12.0	98.1
=	0.0	160.4	12.0	98.1
=	0.0	161.2	12.0	98.0
=	0.0	162.0	12.0	98.0
=	0.0	162.7	12.0	97.9
=	0.0	163.4	12.0	97.8
=	0.0	164.2	12.0	97.7
=	0.0	164.9	12.0	97.6
=	0.0	165.6	12.0	97.6
=	0.0	166.4	12.0	97.5
=	0.0	167.2	12.0	97.4
=	0.0	168.0	12.0	97.3
=	0.0	168.7	12.0	97.3
=	0.0	169.5	12.0	97.2
=	0.0	170.2	12.0	97.0
=	0.0	171.0	12.0	96.9
=	0.0	171.7	12.0	96.8
=	0.0	172.5	12.0	96.8
=	0.0	173.2	12.0	96.8
=	0.0	174.0	12.0	96.7
=	0.0	174.7	12.0	96.6
=	0.0	175.5	12.0	96.6
=	0.0	176.2	12.0	96.5
=	0.0	177.0	12.0	96.4
=	0.0	177.7	12.0	96.3
=	0.0	178.5	12.0	96.2
=	0.0	179.2	12.0	96.1
=	0.0	180.0	12.0	96.0
=	0.0	180.8	12.0	95.9
=	0.0	181.5	12.0	95.8
=	0.0	182.2	12.0	95.8
=	0.0	183.0	12.0	95.7
=	0.0	183.8	12.0	95.5
=	0.0	184.6	12.0	95.4
=	0.0	185.3	12.0	95.3
=	0.0	186.0	12.0	95.2
=	0.0	186.8	12.0	95.0
=	0.0	187.5	12.0	94.9
=	0.0	188.3	12.0	94.8
=	0.0	189.0	12.0	94.7
=	0.0	189.8	12.0	94.5
=	0.0	190.6	12.0	94.4
=	0.0	191.3	12.0	94.2
=	0.0	192.1	12.0	94.0
=	0.0	192.8	12.0	93.7
=	0.0	193.6	12.0	93.3
=	0.0	194.3	12.0	92.8
=	0.0	195.1	12.0	92.0
=	0.0	195.9	12.0	90.7
=	0.0	196.6	12.0	88.7
=	0.0	197.4	12.0	85.5
=	0.0	198.2	12.0	81.1
=	0.0	198.9	12.0	75.6
=	0.0	199.6	12.0	69.3
=	0.0	200.4	12.0	62.1
=	0.0	201.1	12.0	55.3
=	0.0	201.9	12.0	48.2
=	0.0	202.7	12.0	41.6
=	0.0	203.4	12.0	35.7
=	0.0	204.2	12.0	30.6
=	0.0	205.0	12.0	26.3
=	0.0	205.7	12.0	23.3
=	0.0	206.5	12.0	21.0
=	0.0	207.2	12.0	19.4
=	0.0	208.0	12.0	18.3
=	0.0	208.7	12.0	17.6
=	0.0	209.5	12.0	17.1
=	0.0	210.2	12.0	16.7
=	0.0	211.0	12.0	16.4
=	0.0	211.7	12.0	16.3
=	0.0	213.0	12.0	15.9
=	0.0	214.0	12.0	15.7
=	0.0	214.8	12.0	15.6
=	0.0	215.8	12.0	15.4
=	0.0	216.9	12.0	15.1
=	0.0	217.8	12.0	15.0
=	0.0	218.8	12.0	14.9
=	0.0	219.6	12.0	14.7
=	0.0	220.3	12.0	14.6
=	0.0	221.1	12.0	14.5
=	0.0	221.8	12.0	14.4
=	0.0	222.6	12.0	14.3
=	0.0	223.3	12.0	14.1
=	0.0	224.1	12.0	14.0
=	0.0	225.0	12.0	13.9
=	0.0	226.6	12.0	13.7
=	0.0	227.7	12.0	13.5
=	0.0	228.6	12.0	13.4
=	0.0	230.1	12.0	13.3
=	0.0	231.2	12.0	13.1
=	0.0	232.6	12.0	13.0
=	0.0	234.1	12.0	12.9
=	0.0	235.6	12.0	12.7
=	0.0	236.4	12.0	12.6
=	0.0	237.6	12.0	12.5
=	0.0	239.1	12.0	12.4
=	0.0	240.4	12.0	12.3
=	0.0	241.3	12.0	12.2
=	0.0	242.4	12.0	12.1
=	0.0	243.2	12.0	12.0
=	0.0	243.9	12.0	12.0
=	0.0	244.7	12.0	11.9
=	0.0	245.4	12.0	11.8
=	0.0	246.2	12.0	11.7
=	0.0	246.9	12.0	11.7
=	0.0	247.7	12.0	11.6
=	0.0	248.4	12.0	11.6
=	0.0	249.3	12.0	11.5
=	0.0	250.0	12.0	11.5
=	0.0	251.0	12.0	11.4
=	0.0	251.8	12.0	11.3
=	0.0	253.1	12.0	11.2
=	0.0	254.7	12.0	11.1
=	0.0	256.2	12.0	11.0
=	0.0	257.7	12.0	10.9
=	0.0	259.2	12.0	10.8
=	0.0	260.7	12.0	10.7
=	0.0	262.2	12.0	10.6
=	0.0	263.6	12.0	10.6
=	0.0	264.4	12.0	10.6
=	0.0	265.0	12.0	10.5
=	0.0	265.5	12.0	10.5
=	0.0	266.3	12.0	10.4
=	0.0	267.0	12.0	10.4
=	0.0	267.6	12.0	10.3
=	0.0	268.1	12.0	10.3
=	0.0	268.6	12.0	10.3
=	0.0	269.3	12.0	10.3
=	0.0	270.1	12.0	10.2
:EOM # End of Measurement
#
# RFA300 ASCII Measurement Dump ( BDS format )
#
# Measurement number 	2
#
%VNR 1.0
%MOD 	RAT
%TYP 	SCN
%SCN 	PRO
%FLD 	ION
%DAT 	02-03-2012
%TIM 	12:00:00
%FSZ 	400	300
%BMT 	PHO	   4.0
%SSD 	1000
%BUP 	0
%BRD 	1000
%FSH 	1
%ASC 	0
%WEG 	30
%GPO 	0
%CPO 	0
%MEA 	6
%PRD 	50,0
%PTS 	772
%STS 	    0.0	  -281.2	   50.0 # Start Scan values in mm ( X , Y , Z )
%EDS 	    0.0	   281.0	   50.0 # End Scan values in mm ( X , Y , Z )
#
#	  X      Y      Z     Dose
#
=	0.0	-281.2	50.0	10.5
=	0.0	-280.7	50.0	10.6
=	0.0	-280.2	50.0	10.6
=	0.0	-279.5	50.0	10.7
=	0.0	-278.9	50.0	10.7
=	0.0	-278.4	50.0	10.7
=	0.0	-277.9	50.0	10.8
=	0.0	-277.2	50.0	10.8
=	0.0	-276.5	50.0	10.9
=	0.0	-275.7	50.0	10.9
=	0.0	-274.9	50.0	11.0
=	0.0	-274.2	50.0	11.0
=	0.0	-273.5	50.0	11.1
=	0.0	-272.7	50.0	11.1
=	0.0	-272.0	50.0	11.2
=	0.0	-271.2	50.0	11.2
=	0.0	-270.3	50.0	11.3
=	0.0	-269.6	50.0	11.3
=	0.0	-268.8	50.0	11.4
=	0.0	-268.1	50.0	11.5
=	0.0	-267.3	50.0	11.5
=	0.0	-266.6	50.0	11.6
=	0.0	-265.8	50.0	11.6
=	0.0	-265.1	50.0	11.7
=	0.0	-264.3	50.0	11.8
=	0.0	-263.6	50.0	11.9
=	0.0	-262.8	50.0	11.9
=	0.0	-262.1	50.0	11.9
=	0.0	-261.3	50.0	12.0
=	0.0	-260.6	50.0	12.1
=	0.0	-259.8	50.0	12.2
=	0.0	-259.0	50.0	12.2
=	0.0	-258.2	50.0	12.3
=	0.0	-257.5	50.0	12.4
=	0.0	-256.8	50.0	12.5
=	0.0	-256.1	50.0	12.5
=	0.0	-255.5	50.0	12.6
=	0.0	-254.8	50.0	12.7
=	0.0	-254.0	50.0	12.7
=	0.0	-253.2	50.0	12.8
=	0.0	-252.5	50.0	12.9
=	0.0	-252.0	50.0	13.0
=	0.0	-251.5	50.0	13.0
=	0.0	-251.0	50.0	13.1
=	0.0	-250.5	50.0	13.1
=	0.0	-250.0	50.0	13.2
=	0.0	-249.5	50.0	13.3
=	0.0	-248.9	50.0	13.3
=	0.0	-248.4	50.0	13.4
=	0.0	-247.8	50.0	13.5
=	0.0	-247.3	50.0	13.5
=	0.0	-246.8	50.0	13.6
=	0.0	-246.3	50.0	13.6
=	0.0	-245.8	50.0	13.7
=	0.0	-245.3	50.0	13.7
=	0.0	-244.8	50.0	13.8
=	0.0	-244.2	50.0	13.8
=	0.0	-243.7	50.0	13.9
=	0.0	-243.2	50.0	13.9
=	0.0	-242.7	50.0	14.0
=	0.0	-242.2	50.0	14.1
=	0.0	-241.6	50.0	14.2
=	0.0	-240.8	50.0	14.3
=	0.0	-240.0	50.0	14.4
=	0.0	-239.3	50.0	14.5
=	0.0	-238.6	50.0	14.6
=	0.0	-238.0	50.0	14.7
=	0.0	-237.3	50.0	14.9
=	0.0	-236.5	50.0	15.0
=	0.0	-235.8	50.0	15.1
=	0.0	-235.0	50.0	15.2
=	0.0	-234.3	50.0	15.3
=	0.0	-233.5	50.0	15.5
=	0.0	-232.8	50.0	15.6
=	0.0	-232.0	50.0	15.8
=	0.0	-231.3	50.0	15.9
=	0.0	-230.5	50.0	16.0
=	0.0	-229.8	50.0	16.2
=	0.0	-229.3	50.0	16.3
=	0.0	-228.5	50.0	16.5
=	0.0	-227.8	50.0	16.7
=	0.0	-227.0	50.0	16.8
=	0.0	-226.2	50.0	17.0
=	0.0	-225.5	50.0	17.2
=	0.0	-224.8	50.0	17.3
=	0.0	-224.2	50.0	17.5
=	0.0	-223.4	50.0	17.7
=	0.0	-222.7	50.0	17.9
=	0.0	-221.9	50.0	18.2
=	0.0	-221.2	50.0	18.4
=	0.0	-220.4	50.0	18.6
=	0.0	-219.7	50.0	18.9
=	0.0	-218.9	50.0	19.2
=	0.0	-218.2	50.0	19.5
=	0.0	-217.4	50.0	19.9
=	0.0	-216.7	50.0	20.4
=	0.0	-215.9	50.0	21.1
=	0.0	-215.2	50.0	21.9
=	0.0	-214.4	50.0	23.2
=	0.0	-213.7	50.0	25.1
=	0.0	-213.0	50.0	27.2
=	0.0	-212.4	50.0	29.6
=	0.0	-211.7	50.0	33.5
=	0.0	-210.9	50.0	38.0
=	0.0	-210.1	50.0	43.2
=	0.0	-209.4	50.0	49.3
=	0.0	-208.6	50.0	55.2
=	0.0	-207.8	50.0	61.9
=	0.0	-206.8	50.0	69.6
=	0.0	-206.1	50.0	74.7
=	0.0	-205.3	50.0	79.2
=	0.0	-204.6	50.0	82.6
=	0.0	-203.8	50.0	85.2
=	0.0	-203.1	50.0	86.8
=	0.0	-202.1	50.0	88.3
=	0.0	-201.0	50.0	89.4
=	0.0	-200.1	50.0	89.9
=	0.0	-199.3	50.0	90.4
=	0.0	-198.6	50.0	90.7
=	0.0	-197.8	50.0	90.9
=	0.0	-196.8	50.0	91.2
=	0.0	-195.6	50.0	91.8
=	0.0	-194.8	50.0	91.9
=	0.0	-193.9	50.0	92.1
=	0.0	-192.6	50.0	92.4
=	0.0	-191.6	50.0	92.6
=	0.0	-190.4	50.0	92.9
=	0.0	-189.4	50.0	93.1
=	0.0	-188.2	50.0	93.4
=	0.0	-187.5	50.0	93.5
=	0.0	-186.7	50.0	93.7
=	0.0	-186.0	50.0	93.8
=	0.0	-185.2	50.0	93.9
=	0.0	-184.4	50.0	94.1
=	0.0	-183.5	50.0	94.3
=	0.0	-182.7	50.0	94.4
=	0.0	-182.0	50.0	94.4
=	0.0	-181.2	50.0	94.5
=	0.0	-180.5	50.0	94.7
=	0.0	-179.7	50.0	94.9
=	0.0	-178.9	50.0	95.0
=	0.0	-178.2	50.0	95.1
=	0.0	-177.4	50.0	95.2
=	0.0	-176.6	50.0	95.4
=	0.0	-175.9	50.0	95.5
=	0.0	-175.1	50.0	95.6
=	0.0	-174.4	50.0	95.6
=	0.0	-173.6	50.0	95.8
=	0.0	-172.9	50.0	95.9
=	0.0	-172.1	50.0	96.0
=	0.0	-171.4	50.0	96.2
=	0.0	-170.6	50.0	96.3
=	0.0	-169.9	50.0	96.3
=	0.0	-169.1	50.0	96.4
=	0.0	-168.4	50.0	96.5
=	0.0	-167.6	50.0	96.6
=	0.0	-166.9	50.0	96.7
=	0.0	-166.1	50.0	96.8
=	0.0	-165.3	50.0	96.9
=	0.0	-164.6	50.0	96.9
=	0.0	-163.9	50.0	97.0
=	0.0	-163.1	50.0	97.0
=	0.0	-162.3	50.0	97.1
=	0.0	-161.5	50.0	97.2
=	0.0	-160.8	50.0	97.3
=	0.0	-160.0	50.0	97.4
=	0.0	-159.3	50.0	97.6
=	0.0	-158.5	50.0	97.6
=	0.0	-157.8	50.0	97.7
=	0.0	-157.0	50.0	97.8
=	0.0	-156.3	50.0	97.8
=	0.0	-155.5	50.0	97.9
=	0.0	-154.7	50.0	97.9
=	0.0	-154.0	50.0	98.0
=	0.0	-153.2	50.0	98.1
=	0.0	-152.5	50.0	98.1
=	0.0	-151.7	50.0	98.2
=	0.0	-151.0	50.0	98.3
=	0.0	-150.2	50.0	98.4
=	0.0	-149.5	50.0	98.4
=	0.0	-148.7	50.0	98.5
=	0.0	-148.1	50.0	98.6
=	0.0	-147.4	50.0	98.6
=	0.0	-146.7	50.0	98.7
=	0.0	-146.0	50.0	98.7
=	0.0	-145.3	50.0	98.8
=	0.0	-144.7	50.0	98.8
=	0.0	-143.9	50.0	98.8
=	0.0	-143.1	50.0	98.9
=	0.0	-142.4	50.0	98.9
=	0.0	-141.6	50.0	98.9
=	0.0	-140.9	50.0	98.9
=	0.0	-140.1	50.0	99.0
=	0.0	-139.4	50.0	99.0
=	0.0	-138.6	50.0	99.0
=	0.0	-137.9	50.0	99.1
=	0.0	-137.1	50.0	99.1
=	0.0	-136.4	50.0	99.1
=	0.0	-135.6	50.0	99.1
=	0.0	-134.8	50.0	99.1
=	0.0	-134.0	50.0	99.2
=	0.0	-133.3	50.0	99.3
=	0.0	-132.5	50.0	99.3
=	0.0	-131.7	50.0	99.4
=	0.0	-130.8	50.0	99.4
=	0.0	-130.0	50.0	99.4
=	0.0	-129.0	50.0	99.5
=	0.0	-127.6	50.0	99.5
=	0.0	-126.1	50.0	99.6
=	0.0	-124.6	50.0	99.7
=	0.0	-123.1	50.0	99.7
=	0.0	-121.6	50.0	99.8
=	0.0	-120.1	50.0	99.9
=	0.0	-118.5	50.0	99.9
=	0.0	-117.0	50.0	100.0
=	0.0	-115.5	50.0	100.0
=	0.0	-114.0	50.0	100.1
=	0.0	-112.5	50.0	100.2
=	0.0	-111.0	50.0	100.2
=	0.0	-109.5	50.0	100.3
=	0.0	-108.0	50.0	100.3
=	0.0	-106.6	50.0	100.4
=	0.0	-105.6	50.0	100.4
=	0.0	-104.7	50.0	100.5
=	0.0	-104.0	50.0	100.5
=	0.0	-103.2	50.0	100.6
=	0.0	-102.5	50.0	100.6
=	0.0	-102.0	50.0	100.6
=	0.0	-101.2	50.0	100.6
=	0.0	-100.7	50.0	100.6
=	0.0	-100.2	50.0	100.6
=	0.0	-99.7	50.0	100.6
=	0.0	-99.0	50.0	100.6
=	0.0	-98.2	50.0	100.6
=	0.0	-97.5	50.0	100.6
=	0.0	-96.7	50.0	100.6
=	0.0	-96.0	50.0	100.6
=	0.0	-95.2	50.0	100.6
=	0.0	-94.5	50.0	100.6
=	0.0	-93.7	50.0	100.7
=	0.0	-93.0	50.0	100.7
=	0.0	-92.2	50.0	100.7
=	0.0	-91.5	50.0	100.7
=	0.0	-90.9	50.0	100.7
=	0.0	-90.4	50.0	100.7
=	0.0	-89.7	50.0	100.7
=	0.0	-89.0	50.0	100.7
=	0.0	-88.2	50.0	100.8
=	0.0	-87.5	50.0	100.8
=	0.0	-86.9	50.0	100.8
=	0.0	-86.4	50.0	100.8
=	0.0	-85.9	50.0	100.8
=	0.0	-85.4	50.0	100.8
=	0.0	-84.9	50.0	100.8
=	0.0	-84.2	50.0	100.8
=	0.0	-83.4	50.0	100.9
=	0.0	-82.9	50.0	100.9
=	0.0	-82.4	50.0	100.9
=	0.0	-81.9	50.0	100.9
=	0.0	-81.4	50.0	101.0
=	0.0	-80.9	50.0	101.0
=	0.0	-80.4	50.0	101.0
=	0.0	-79.9	50.0	101.0
=	0.0	-79.4	50.0	101.0
=	0.0	-78.9	50.0	101.0
=	0.0	-78.4	50.0	101.0
=	0.0	-77.8	50.0	101.0
=	0.0	-77.3	50.0	101.0
=	0.0	-76.8	50.0	101.1
=	0.0	-76.3	50.0	101.1
=	0.0	-75.8	50.0	101.1
=	0.0	-75.3	50.0	101.1
=	0.0	-74.8	50.0	101.1
=	0.0	-74.3	50.0	101.1
=	0.0	-73.8	50.0	101.1
=	0.0	-73.3	50.0	101.1
=	0.0	-72.7	50.0	101.1
=	0.0	-72.2	50.0	101.2
=	0.0	-71.6	50.0	101.2
=	0.0	-70.9	50.0	101.2
=	0.0	-70.1	50.0	101.2
=	0.0	-69.5	50.0	101.2
=	0.0	-68.9	50.0	101.2
=	0.0	-68.3	50.0	101.2
=	0.0	-67.8	50.0	101.2
=	0.0	-67.1	50.0	101.2
=	0.0	-66.4	50.0	101.2
=	0.0	-65.6	50.0	101.2
=	0.0	-65.1	50.0	101.2
=	0.0	-64.6	50.0	101.2
=	0.0	-64.1	50.0	101.2
=	0.0	-63.4	50.0	101.2
=	0.0	-62.9	50.0	101.2
=	0.0	-62.3	50.0	101.2
=	0.0	-61.6	50.0	101.2
=	0.0	-60.8	50.0	101.2
=	0.0	-60.1	50.0	101.3
=	0.0	-59.3	50.0	101.3
=	0.0	-58.6	50.0	101.3
=	0.0	-57.8	50.0	101.3
=	0.0	-57.0	50.0	101.3
=	0.0	-56.3	50.0	101.3
=	0.0	-55.5	50.0	101.2
=	0.0	-54.8	50.0	101.2
=	0.0	-54.0	50.0	101.2
=	0.0	-53.2	50.0	101.2
=	0.0	-52.5	50.0	101.2
=	0.0	-51.9	50.0	101.2
=	0.0	-51.3	50.0	101.2
=	0.0	-50.7	50.0	101.2
=	0.0	-49.9	50.0	101.2
=	0.0	-49.2	50.0	101.2
=	0.0	-48.6	50.0	101.3
=	0.0	-47.9	50.0	101.2
=	0.0	-47.2	50.0	101.2
=	0.0	-46.7	50.0	101.2
=	0.0	-45.9	50.0	101.2
=	0.0	-45.2	50.0	101.2
=	0.0	-44.5	50.0	101.2
=	0.0	-44.1	50.0	101.2
=	0.0	-43.5	50.0	101.2
=	0.0	-43.0	50.0	101.1
=	0.0	-42.5	50.0	101.1
=	0.0	-42.0	50.0	101.1
=	0.0	-41.5	50.0	101.1
=	0.0	-41.0	50.0	101.1
=	0.0	-40.5	50.0	101.1
=	0.0	-40.0	50.0	101.1
=	0.0	-39.5	50.0	101.1
=	0.0	-39.0	50.0	101.1
=	0.0	-38.5	50.0	101.1
=	0.0	-37.9	50.0	101.0
=	0.0	-37.2	50.0	101.0
=	0.0	-36.4	50.0	101.0
=	0.0	-35.6	50.0	101.0
=	0.0	-34.9	50.0	101.0
=	0.0	-34.1	50.0	100.9
=	0.0	-33.3	50.0	100.9
=	0.0	-32.6	50.0	100.9
=	0.0	-31.8	50.0	100.9
=	0.0	-31.1	50.0	100.9
=	0.0	-30.4	50.0	100.9
=	0.0	-29.6	50.0	100.8
=	0.0	-28.8	50.0	100.8
=	0.0	-28.1	50.0	100.8
=	0.0	-27.3	50.0	100.8
=	0.0	-26.5	50.0	100.7
=	0.0	-25.8	50.0	100.7
=	0.0	-25.0	50.0	100.7
=	0.0	-24.3	50.0	100.7
=	0.0	-23.5	50.0	100.7
=	0.0	-22.8	50.0	100.7
=	0.0	-22.0	50.0	100.6
=	0.0	-21.5	50.0	100.6
=	0.0	-21.0	50.0	100.6
=	0.0	-20.5	50.0	100.6
=	0.0	-20.0	50.0	100.6
=	0.0	-19.4	50.0	100.6
=	0.0	-18.9	50.0	100.6
=	0.0	-18.4	50.0	100.6
=	0.0	-17.9	50.0	100.6
=	0.0	-17.3	50.0	100.6
=	0.0	-16.8	50.0	100.6
=	0.0	-16.3	50.0	100.5
=	0.0	-15.8	50.0	100.5
=	0.0	-15.3	50.0	100.5
=	0.0	-14.7	50.0	100.5
=	0.0	-14.1	50.0	100.4
=	0.0	-13.7	50.0	100.4
=	0.0	-12.9	50.0	100.4
=	0.0	-12.2	50.0	100.4
=	0.0	-11.4	50.0	100.3
=	0.0	-10.7	50.0	100.3
=	0.0	-9.9	50.0	100.3
=	0.0	-9.2	50.0	100.3
=	0.0	-8.4	50.0	100.2
=	0.0	-7.7	50.0	100.2
=	0.0	-6.9	50.0	100.1
=	0.0	-6.2	50.0	100.1
=	0.0	-5.4	50.0	100.1
=	0.0	-4.7	50.0	100.0
=	0.0	-3.8	50.0	100.0
=	0.0	-3.1	50.0	100.0
=	0.0	-2.0	50.0	100.0
=	0.0	-1.0	50.0	100.0
=	0.0	-0.2	50.0	100.0
=	0.0	0.0	50.0	100.0
=	0.0	0.8	50.0	100.0
=	0.0	1.6	50.0	100.0
=	0.0	2.8	50.0	100.0
=	0.0	3.6	50.0	100.0
=	0.0	4.4	50.0	100.0
=	0.0	5.2	50.0	100.1
=	0.0	5.9	50.0	100.1
=	0.0	6.7	50.0	100.1
=	0.0	7.4	50.0	100.1
=	0.0	8.2	50.0	100.2
=	0.0	8.9	50.0	100.3
=	0.0	9.7	50.0	100.3
=	0.0	10.4	50.0	100.3
=	0.0	11.2	50.0	100.3
=	0.0	11.9	50.0	100.4
=	0.0	12.7	50.0	100.4
=	0.0	13.4	50.0	100.4
=	0.0	14.0	50.0	100.4
=	0.0	14.5	50.0	100.5
=	0.0	15.2	50.0	100.5
=	0.0	15.7	50.0	100.5
=	0.0	16.1	50.0	100.5
=	0.0	16.7	50.0	100.6
=	0.0	17.2	50.0	100.6
=	0.0	17.7	50.0	100.6
=	0.0	18.2	50.0	100.6
=	0.0	18.7	50.0	100.6
=	0.0	19.2	50.0	100.6
=	0.0	19.8	50.0	100.6
=	0.0	20.4	50.0	100.6
=	0.0	20.9	50.0	100.6
=	0.0	21.4	50.0	100.6
=	0.0	21.9	50.0	100.6
=	0.0	22.5	50.0	100.7
=	0.0	23.3	50.0	100.7
=	0.0	24.0	50.0	100.7
=	0.0	24.8	50.0	100.7
=	0.0	25.5	50.0	100.7
=	0.0	26.3	50.0	100.7
=	0.0	27.1	50.0	100.8
=	0.0	27.9	50.0	100.8
=	0.0	28.5	50.0	100.8
=	0.0	29.3	50.0	100.8
=	0.0	30.1	50.0	100.8
=	0.0	30.9	50.0	100.9
=	0.0	31.6	50.0	100.9
=	0.0	32.3	50.0	100.9
=	0.0	33.1	50.0	100.9
=	0.0	33.9	50.0	100.9
=	0.0	34.6	50.0	100.9
=	0.0	35.4	50.0	101.0
=	0.0	36.1	50.0	101.0
=	0.0	36.9	50.0	101.0
=	0.0	37.7	50.0	101.0
=	0.0	38.3	50.0	101.1
=	0.0	38.9	50.0	101.1
=	0.0	39.3	50.0	101.1
=	0.0	39.8	50.0	101.1
=	0.0	40.4	50.0	101.1
=	0.0	40.9	50.0	101.1
=	0.0	41.4	50.0	101.1
=	0.0	41.9	50.0	101.1
=	0.0	42.4	50.0	101.1
=	0.0	42.9	50.0	101.1
=	0.0	43.4	50.0	101.1
=	0.0	43.9	50.0	101.2
=	0.0	44.4	50.0	101.2
=	0.0	44.9	50.0	101.2
=	0.0	45.7	50.0	101.2
=	0.0	46.4	50.0	101.2
=	0.0	47.1	50.0	101.2
=	0.0	47.7	50.0	101.2
=	0.0	48.4	50.0	101.3
=	0.0	48.9	50.0	101.3
=	0.0	49.7	50.0	101.2
=	0.0	50.5	50.0	101.2
=	0.0	51.1	50.0	101.2
=	0.0	51.8	50.0	101.2
=	0.0	52.3	50.0	101.2
=	0.0	53.0	50.0	101.2
=	0.0	53.7	50.0	101.2
=	0.0	54.5	50.0	101.2
=	0.0	55.3	50.0	101.2
=	0.0	56.0	50.0	101.2
=	0.0	56.8	50.0	101.3
=	0.0	57.5	50.0	101.3
=	0.0	58.3	50.0	101.3
=	0.0	59.1	50.0	101.3
=	0.0	59.8	50.0	101.3
=	0.0	60.6	50.0	101.3
=	0.0	61.3	50.0	101.2
=	0.0	62.1	50.0	101.2
=	0.0	62.7	50.0	101.2
=	0.0	63.2	50.0	101.2
=	0.0	63.8	50.0	101.2
=	0.0	64.4	50.0	101.2
=	0.0	64.9	50.0	101.2
=	0.0	65.4	50.0	101.2
=	0.0	66.1	50.0	101.2
=	0.0	66.9	50.0	101.2
=	0.0	67.6	50.0	101.2
=	0.0	68.1	50.0	101.2
=	0.0	68.6	50.0	101.2
=	0.0	69.3	50.0	101.2
=	0.0	69.9	50.0	101.2
=	0.0	70.6	50.0	101.2
=	0.0	71.4	50.0	101.2
=	0.0	72.0	50.0	101.2
=	0.0	72.5	50.0	101.1
=	0.0	73.1	50.0	101.1
=	0.0	73.7	50.0	101.1
=	0.0	74.2	50.0	101.1
=	0.0	74.7	50.0	101.1
=	0.0	75.2	50.0	101.1
=	0.0	75.7	50.0	101.1
=	0.0	76.2	50.0	101.1
=	0.0	76.7	50.0	101.1
=	0.0	77.2	50.0	101.1
=	0.0	77.7	50.0	101.0
=	0.0	78.2	50.0	101.0
=	0.0	78.7	50.0	101.0
=	0.0	79.2	50.0	101.0
=	0.0	79.7	50.0	101.0
=	0.0	80.2	50.0	101.0
=	0.0	80.7	50.0	101.0
=	0.0	81.2	50.0	101.0
=	0.0	81.7	50.0	101.0
=	0.0	82.2	50.0	100.9
=	0.0	82.7	50.0	100.9
=	0.0	83.2	50.0	100.9
=	0.0	83.9	50.0	100.9
=	0.0	84.7	50.0	100.8
=	0.0	85.3	50.0	100.8
=	0.0	85.8	50.0	100.8
=	0.0	86.3	50.0	100.8
=	0.0	86.8	50.0	100.8
=	0.0	87.3	50.0	100.8
=	0.0	88.0	50.0	100.8
=	0.0	88.7	50.0	100.7
=	0.0	89.5	50.0	100.7
=	0.0	90.2	50.0	100.7
=	0.0	90.8	50.0	100.7
=	0.0	91.3	50.0	100.7
=	0.0	92.0	50.0	100.7
=	0.0	92.7	50.0	100.7
=	0.0	93.5	50.0	100.7
=	0.0	94.2	50.0	100.7
=	0.0	95.0	50.0	100.6
=	0.0	95.7	50.0	100.6
=	0.0	96.5	50.0	100.6
=	0.0	97.2	50.0	100.6
=	0.0	98.0	50.0	100.6
=	0.0	98.7	50.0	100.6
=	0.0	99.5	50.0	100.6
=	0.0	100.0	50.0	100.6
=	0.0	100.5	50.0	100.6
=	0.0	101.0	50.0	100.6
=	0.0	101.7	50.0	100.6
=	0.0	102.3	50.0	100.6
=	0.0	103.0	50.0	100.6
=	0.0	103.7	50.0	100.5
=	0.0	104.5	50.0	100.5
=	0.0	105.2	50.0	100.5
=	0.0	106.3	50.0	100.4
=	0.0	107.5	50.0	100.3
=	0.0	109.0	50.0	100.3
=	0.0	110.5	50.0	100.2
=	0.0	112.0	50.0	100.2
=	0.0	113.5	50.0	100.1
=	0.0	115.0	50.0	100.0
=	0.0	116.5	50.0	100.0
=	0.0	118.1	50.0	100.0
=	0.0	119.5	50.0	99.9
=	0.0	121.1	50.0	99.8
=	0.0	122.6	50.0	99.8
=	0.0	124.1	50.0	99.7
=	0.0	125.6	50.0	99.6
=	0.0	127.2	50.0	99.5
=	0.0	128.6	50.0	99.5
=	0.0	129.7	50.0	99.5
=	0.0	130.5	50.0	99.4
=	0.0	131.3	50.0	99.4
=	0.0	132.3	50.0	99.3
=	0.0	133.0	50.0	99.3
=	0.0	133.8	50.0	99.2
=	0.0	134.5	50.0	99.2
=	0.0	135.4	50.0	99.1
=	0.0	136.1	50.0	99.1
=	0.0	136.9	50.0	99.1
=	0.0	137.6	50.0	99.1
=	0.0	138.4	50.0	99.0
=	0.0	139.1	50.0	99.0
=	0.0	139.9	50.0	99.0
=	0.0	140.6	50.0	99.0
=	0.0	141.4	50.0	98.9
=	0.0	142.1	50.0	98.9
