:MSR 	5	 # No. of measurement in file
:SYS BDS 0   # Beam Data Scanner System
#
# RFA300 ASCII Measurement Dump ( BDS format )
#
# Measurement number 	1
#
%VNR 1.0
%MOD 	RAT
%TYP 	SCN
%SCN 	PRO
%FLD 	ION
%DAT 	10-14-2011
%TIM 	12:00:00
%FSZ 	400	200
%BMT 	PHO	   15.0
%SSD 	1000
%BUP 	0
%BRD 	1000
%FSH 	1
%ASC 	0
%WEG 	45
%GPO 	0
%CPO 	0
%MEA 	6
%PRD 	30,0
%PTS 	835
%STS 	    -255.7	  0.0	   30.0 # Start Scan values in mm ( X , Y , Z )
%EDS 	    255.6	   0.0	   30.0 # End Scan values in mm ( X , Y , Z )
#
#	  X      Y      Z     Dose
#
=	-255.7	0.0	30.0	8.0
=	-255.2	0.0	30.0	8.0
=	-254.6	0.0	30.0	8.0
=	-254.0	0.0	30.0	8.1
=	-253.5	0.0	30.0	8.1
=	-252.9	0.0	30.0	8.1
=	-252.3	0.0	30.0	8.2
=	-251.6	0.0	30.0	8.2
=	-250.9	0.0	30.0	8.2
=	-250.3	0.0	30.0	8.3
=	-249.7	0.0	30.0	8.3
=	-249.0	0.0	30.0	8.4
=	-248.4	0.0	30.0	8.4
=	-247.6	0.0	30.0	8.5
=	-247.0	0.0	30.0	8.5
=	-246.3	0.0	30.0	8.5
=	-245.7	0.0	30.0	8.6
=	-245.2	0.0	30.0	8.7
=	-244.7	0.0	30.0	8.7
=	-244.1	0.0	30.0	8.7
=	-243.6	0.0	30.0	8.7
=	-242.9	0.0	30.0	8.8
=	-242.2	0.0	30.0	8.8
=	-241.5	0.0	30.0	8.9
=	-240.7	0.0	30.0	9.0
=	-240.1	0.0	30.0	9.0
=	-239.4	0.0	30.0	9.1
=	-238.9	0.0	30.0	9.1
=	-238.1	0.0	30.0	9.1
=	-237.6	0.0	30.0	9.2
=	-237.0	0.0	30.0	9.3
=	-236.5	0.0	30.0	9.3
=	-235.8	0.0	30.0	9.4
=	-235.3	0.0	30.0	9.4
=	-234.5	0.0	30.0	9.5
=	-233.9	0.0	30.0	9.6
=	-233.4	0.0	30.0	9.6
=	-232.8	0.0	30.0	9.7
=	-232.2	0.0	30.0	9.8
=	-231.6	0.0	30.0	9.9
=	-231.1	0.0	30.0	10.0
=	-230.4	0.0	30.0	10.0
=	-229.9	0.0	30.0	10.1
=	-229.3	0.0	30.0	10.2
=	-228.7	0.0	30.0	10.3
=	-228.1	0.0	30.0	10.4
=	-227.6	0.0	30.0	10.5
=	-226.9	0.0	30.0	10.6
=	-226.4	0.0	30.0	10.6
=	-225.7	0.0	30.0	10.7
=	-224.9	0.0	30.0	10.9
=	-224.4	0.0	30.0	11.0
=	-223.8	0.0	30.0	11.1
=	-223.3	0.0	30.0	11.2
=	-222.7	0.0	30.0	11.3
=	-222.1	0.0	30.0	11.5
=	-221.3	0.0	30.0	11.7
=	-220.6	0.0	30.0	11.9
=	-219.9	0.0	30.0	12.1
=	-219.2	0.0	30.0	12.3
=	-218.4	0.0	30.0	12.7
=	-217.7	0.0	30.0	13.0
=	-217.1	0.0	30.0	13.3
=	-216.5	0.0	30.0	13.7
=	-216.0	0.0	30.0	14.0
=	-215.3	0.0	30.0	14.6
=	-214.7	0.0	30.0	15.1
=	-214.2	0.0	30.0	15.7
=	-213.6	0.0	30.0	16.2
=	-213.1	0.0	30.0	17.0
=	-212.4	0.0	30.0	18.2
=	-211.8	0.0	30.0	19.4
=	-211.1	0.0	30.0	20.9
=	-210.5	0.0	30.0	22.7
=	-209.9	0.0	30.0	25.1
=	-209.3	0.0	30.0	27.9
=	-208.7	0.0	30.0	31.1
=	-208.1	0.0	30.0	34.9
=	-207.5	0.0	30.0	39.4
=	-206.9	0.0	30.0	43.6
=	-206.3	0.0	30.0	48.1
=	-205.8	0.0	30.0	53.0
=	-205.2	0.0	30.0	57.9
=	-204.4	0.0	30.0	64.4
=	-203.8	0.0	30.0	69.4
=	-203.3	0.0	30.0	73.3
=	-202.7	0.0	30.0	77.1
=	-202.2	0.0	30.0	80.5
=	-201.5	0.0	30.0	84.0
=	-200.8	0.0	30.0	86.2
=	-200.2	0.0	30.0	88.2
=	-199.6	0.0	30.0	89.6
=	-198.7	0.0	30.0	91.1
=	-198.1	0.0	30.0	92.0
=	-197.6	0.0	30.0	92.6
=	-197.1	0.0	30.0	93.2
=	-196.5	0.0	30.0	93.7
=	-195.8	0.0	30.0	94.3
=	-195.1	0.0	30.0	94.8
=	-194.6	0.0	30.0	95.1
=	-193.9	0.0	30.0	95.4
=	-193.3	0.0	30.0	95.7
=	-192.7	0.0	30.0	95.9
=	-192.2	0.0	30.0	96.1
=	-191.5	0.0	30.0	96.4
=	-190.8	0.0	30.0	96.6
=	-190.2	0.0	30.0	96.8
=	-189.6	0.0	30.0	97.0
=	-189.1	0.0	30.0	97.1
=	-188.6	0.0	30.0	97.2
=	-187.9	0.0	30.0	97.3
=	-187.4	0.0	30.0	97.5
=	-186.8	0.0	30.0	97.6
=	-186.2	0.0	30.0	97.7
=	-185.6	0.0	30.0	97.7
=	-184.8	0.0	30.0	97.8
=	-184.1	0.0	30.0	97.8
=	-183.3	0.0	30.0	97.9
=	-182.7	0.0	30.0	97.9
=	-182.1	0.0	30.0	97.9
=	-181.4	0.0	30.0	98.0
=	-180.7	0.0	30.0	98.0
=	-180.1	0.0	30.0	98.1
=	-179.4	0.0	30.0	98.1
=	-178.7	0.0	30.0	98.1
=	-177.9	0.0	30.0	98.2
=	-177.2	0.0	30.0	98.2
=	-176.6	0.0	30.0	98.2
=	-175.8	0.0	30.0	98.3
=	-175.1	0.0	30.0	98.3
=	-174.4	0.0	30.0	98.4
=	-173.9	0.0	30.0	98.4
=	-173.3	0.0	30.0	98.4
=	-172.8	0.0	30.0	98.5
=	-172.1	0.0	30.0	98.6
=	-171.6	0.0	30.0	98.6
=	-171.0	0.0	30.0	98.7
=	-170.2	0.0	30.0	98.8
=	-169.7	0.0	30.0	98.8
=	-169.0	0.0	30.0	98.9
=	-168.3	0.0	30.0	98.9
=	-167.5	0.0	30.0	98.9
=	-166.9	0.0	30.0	99.0
=	-166.3	0.0	30.0	99.1
=	-165.5	0.0	30.0	99.2
=	-164.9	0.0	30.0	99.3
=	-164.3	0.0	30.0	99.4
=	-163.9	0.0	30.0	99.4
=	-163.4	0.0	30.0	99.5
=	-162.8	0.0	30.0	99.5
=	-162.2	0.0	30.0	99.5
=	-161.7	0.0	30.0	99.6
=	-161.1	0.0	30.0	99.7
=	-160.4	0.0	30.0	99.7
=	-159.8	0.0	30.0	99.8
=	-159.3	0.0	30.0	99.9
=	-158.7	0.0	30.0	99.9
=	-158.0	0.0	30.0	100.0
=	-157.4	0.0	30.0	100.0
=	-156.8	0.0	30.0	100.1
=	-156.2	0.0	30.0	100.1
=	-155.6	0.0	30.0	100.1
=	-155.0	0.0	30.0	100.2
=	-154.3	0.0	30.0	100.2
=	-153.7	0.0	30.0	100.2
=	-152.9	0.0	30.0	100.3
=	-152.1	0.0	30.0	100.3
=	-151.4	0.0	30.0	100.4
=	-150.7	0.0	30.0	100.4
=	-150.1	0.0	30.0	100.4
=	-149.5	0.0	30.0	100.4
=	-148.9	0.0	30.0	100.5
=	-148.2	0.0	30.0	100.5
=	-147.7	0.0	30.0	100.5
=	-147.0	0.0	30.0	100.5
=	-146.4	0.0	30.0	100.5
=	-145.7	0.0	30.0	100.6
=	-145.1	0.0	30.0	100.6
=	-144.6	0.0	30.0	100.7
=	-144.1	0.0	30.0	100.7
=	-143.4	0.0	30.0	100.7
=	-142.8	0.0	30.0	100.7
=	-142.2	0.0	30.0	100.7
=	-141.6	0.0	30.0	100.7
=	-140.9	0.0	30.0	100.8
=	-140.2	0.0	30.0	100.8
=	-139.6	0.0	30.0	100.8
=	-139.1	0.0	30.0	100.8
=	-138.5	0.0	30.0	100.9
=	-137.8	0.0	30.0	100.9
=	-137.2	0.0	30.0	100.9
=	-136.5	0.0	30.0	100.9
=	-135.9	0.0	30.0	101.0
=	-135.4	0.0	30.0	101.0
=	-134.8	0.0	30.0	101.0
=	-134.3	0.0	30.0	101.1
=	-133.6	0.0	30.0	101.1
=	-133.1	0.0	30.0	101.2
=	-132.6	0.0	30.0	101.2
=	-132.0	0.0	30.0	101.2
=	-131.4	0.0	30.0	101.2
=	-130.9	0.0	30.0	101.3
=	-130.3	0.0	30.0	101.3
=	-129.8	0.0	30.0	101.3
=	-129.3	0.0	30.0	101.3
=	-128.7	0.0	30.0	101.4
=	-128.1	0.0	30.0	101.4
=	-127.4	0.0	30.0	101.4
=	-126.9	0.0	30.0	101.4
=	-126.4	0.0	30.0	101.4
=	-125.8	0.0	30.0	101.5
=	-125.1	0.0	30.0	101.5
=	-124.5	0.0	30.0	101.5
=	-123.9	0.0	30.0	101.5
=	-123.3	0.0	30.0	101.6
=	-122.6	0.0	30.0	101.6
=	-122.1	0.0	30.0	101.6
=	-121.4	0.0	30.0	101.6
=	-120.9	0.0	30.0	101.6
=	-120.3	0.0	30.0	101.7
=	-119.6	0.0	30.0	101.7
=	-118.8	0.0	30.0	101.7
=	-118.1	0.0	30.0	101.8
=	-117.5	0.0	30.0	101.8
=	-116.8	0.0	30.0	101.8
=	-116.1	0.0	30.0	101.8
=	-115.5	0.0	30.0	101.9
=	-114.9	0.0	30.0	101.9
=	-114.3	0.0	30.0	102.0
=	-113.7	0.0	30.0	102.0
=	-113.1	0.0	30.0	102.0
=	-112.5	0.0	30.0	102.0
=	-111.9	0.0	30.0	102.0
=	-111.2	0.0	30.0	102.0
=	-110.5	0.0	30.0	101.9
=	-109.9	0.0	30.0	102.0
=	-109.3	0.0	30.0	102.0
=	-108.7	0.0	30.0	102.0
=	-108.0	0.0	30.0	102.0
=	-107.4	0.0	30.0	102.0
=	-106.9	0.0	30.0	102.0
=	-106.3	0.0	30.0	102.0
=	-105.7	0.0	30.0	102.0
=	-105.1	0.0	30.0	102.0
=	-104.4	0.0	30.0	102.0
=	-103.7	0.0	30.0	101.9
=	-103.1	0.0	30.0	101.9
=	-102.6	0.0	30.0	101.9
=	-102.0	0.0	30.0	101.9
=	-101.4	0.0	30.0	101.9
=	-100.7	0.0	30.0	101.9
=	-100.1	0.0	30.0	101.9
=	-99.4	0.0	30.0	101.9
=	-98.9	0.0	30.0	101.9
=	-98.3	0.0	30.0	101.9
=	-97.7	0.0	30.0	101.9
=	-96.9	0.0	30.0	101.9
=	-96.2	0.0	30.0	101.9
=	-95.5	0.0	30.0	102.0
=	-95.0	0.0	30.0	102.0
=	-94.4	0.0	30.0	102.1
=	-93.8	0.0	30.0	102.1
=	-93.2	0.0	30.0	102.2
=	-92.6	0.0	30.0	102.2
=	-92.1	0.0	30.0	102.3
=	-91.4	0.0	30.0	102.3
=	-90.7	0.0	30.0	102.3
=	-90.1	0.0	30.0	102.3
=	-89.5	0.0	30.0	102.3
=	-88.9	0.0	30.0	102.4
=	-88.3	0.0	30.0	102.4
=	-87.8	0.0	30.0	102.5
=	-87.2	0.0	30.0	102.5
=	-86.6	0.0	30.0	102.6
=	-85.9	0.0	30.0	102.6
=	-85.0	0.0	30.0	102.6
=	-84.3	0.0	30.0	102.7
=	-83.8	0.0	30.0	102.7
=	-83.2	0.0	30.0	102.7
=	-82.5	0.0	30.0	102.6
=	-81.9	0.0	30.0	102.6
=	-81.3	0.0	30.0	102.6
=	-80.7	0.0	30.0	102.7
=	-80.0	0.0	30.0	102.7
=	-79.3	0.0	30.0	102.7
=	-78.7	0.0	30.0	102.7
=	-78.0	0.0	30.0	102.7
=	-77.4	0.0	30.0	102.7
=	-76.9	0.0	30.0	102.7
=	-76.3	0.0	30.0	102.7
=	-75.7	0.0	30.0	102.8
=	-75.1	0.0	30.0	102.8
=	-74.6	0.0	30.0	102.8
=	-73.9	0.0	30.0	102.8
=	-73.3	0.0	30.0	102.8
=	-72.7	0.0	30.0	102.9
=	-72.2	0.0	30.0	102.9
=	-71.6	0.0	30.0	102.9
=	-70.9	0.0	30.0	102.9
=	-70.2	0.0	30.0	102.9
=	-69.7	0.0	30.0	103.0
=	-69.1	0.0	30.0	103.0
=	-68.5	0.0	30.0	103.0
=	-68.0	0.0	30.0	103.0
=	-67.5	0.0	30.0	103.0
=	-67.0	0.0	30.0	103.0
=	-66.3	0.0	30.0	103.0
=	-65.7	0.0	30.0	103.0
=	-65.2	0.0	30.0	103.1
=	-64.6	0.0	30.0	103.0
=	-64.0	0.0	30.0	103.0
=	-63.5	0.0	30.0	103.0
=	-62.9	0.0	30.0	103.0
=	-62.3	0.0	30.0	103.1
=	-61.6	0.0	30.0	103.1
=	-60.7	0.0	30.0	103.1
=	-60.1	0.0	30.0	103.1
=	-59.3	0.0	30.0	103.1
=	-58.8	0.0	30.0	103.1
=	-58.1	0.0	30.0	103.1
=	-57.4	0.0	30.0	103.1
=	-56.8	0.0	30.0	103.1
=	-56.1	0.0	30.0	103.2
=	-55.6	0.0	30.0	103.2
=	-54.9	0.0	30.0	103.2
=	-54.4	0.0	30.0	103.2
=	-53.8	0.0	30.0	103.2
=	-53.4	0.0	30.0	103.1
=	-52.7	0.0	30.0	103.1
=	-52.2	0.0	30.0	103.1
=	-51.6	0.0	30.0	103.1
=	-51.0	0.0	30.0	103.1
=	-50.5	0.0	30.0	103.0
=	-49.9	0.0	30.0	103.0
=	-49.3	0.0	30.0	103.0
=	-48.7	0.0	30.0	103.0
=	-48.0	0.0	30.0	103.0
=	-47.3	0.0	30.0	103.0
=	-46.7	0.0	30.0	103.0
=	-46.0	0.0	30.0	103.0
=	-45.4	0.0	30.0	102.9
=	-44.8	0.0	30.0	102.9
=	-44.2	0.0	30.0	102.9
=	-43.6	0.0	30.0	102.9
=	-43.0	0.0	30.0	102.8
=	-42.4	0.0	30.0	102.8
=	-41.8	0.0	30.0	102.8
=	-41.3	0.0	30.0	102.8
=	-40.7	0.0	30.0	102.8
=	-40.1	0.0	30.0	102.8
=	-39.6	0.0	30.0	102.8
=	-39.0	0.0	30.0	102.7
=	-38.4	0.0	30.0	102.7
=	-37.7	0.0	30.0	102.6
=	-37.0	0.0	30.0	102.6
=	-36.5	0.0	30.0	102.5
=	-35.9	0.0	30.0	102.5
=	-35.2	0.0	30.0	102.5
=	-34.3	0.0	30.0	102.5
=	-33.7	0.0	30.0	102.4
=	-33.1	0.0	30.0	102.4
=	-32.6	0.0	30.0	102.3
=	-32.1	0.0	30.0	102.3
=	-31.5	0.0	30.0	102.3
=	-30.9	0.0	30.0	102.3
=	-30.3	0.0	30.0	102.3
=	-29.7	0.0	30.0	102.2
=	-29.3	0.0	30.0	102.2
=	-28.8	0.0	30.0	102.2
=	-28.2	0.0	30.0	102.1
=	-27.7	0.0	30.0	102.1
=	-27.0	0.0	30.0	102.0
=	-26.5	0.0	30.0	102.0
=	-26.0	0.0	30.0	102.0
=	-25.2	0.0	30.0	101.8
=	-24.6	0.0	30.0	101.7
=	-24.0	0.0	30.0	101.6
=	-23.4	0.0	30.0	101.6
=	-22.8	0.0	30.0	101.5
=	-22.4	0.0	30.0	101.5
=	-21.8	0.0	30.0	101.4
=	-21.2	0.0	30.0	101.4
=	-20.6	0.0	30.0	101.3
=	-20.0	0.0	30.0	101.2
=	-19.3	0.0	30.0	101.1
=	-18.7	0.0	30.0	101.1
=	-18.1	0.0	30.0	101.0
=	-17.4	0.0	30.0	100.9
=	-16.8	0.0	30.0	100.9
=	-16.2	0.0	30.0	100.8
=	-15.6	0.0	30.0	100.8
=	-15.1	0.0	30.0	100.7
=	-14.5	0.0	30.0	100.7
=	-14.0	0.0	30.0	100.6
=	-13.3	0.0	30.0	100.5
=	-12.7	0.0	30.0	100.5
=	-12.0	0.0	30.0	100.5
=	-11.4	0.0	30.0	100.5
=	-10.8	0.0	30.0	100.4
=	-10.2	0.0	30.0	100.4
=	-9.6	0.0	30.0	100.3
=	-9.1	0.0	30.0	100.3
=	-8.5	0.0	30.0	100.3
=	-7.8	0.0	30.0	100.2
=	-7.2	0.0	30.0	100.2
=	-6.5	0.0	30.0	100.2
=	-6.0	0.0	30.0	100.2
=	-5.3	0.0	30.0	100.1
=	-4.7	0.0	30.0	100.1
=	-4.2	0.0	30.0	100.1
=	-3.6	0.0	30.0	100.1
=	-3.0	0.0	30.0	100.0
=	-2.5	0.0	30.0	100.0
=	-1.9	0.0	30.0	100.0
=	-1.4	0.0	30.0	100.0
=	-0.8	0.0	30.0	100.0
=	-0.3	0.0	30.0	100.0
=	0.0	0.0	30.0	100.0
=	0.2	0.0	30.0	100.0
=	0.7	0.0	30.0	100.0
=	1.3	0.0	30.0	100.0
=	1.7	0.0	30.0	100.0
=	2.3	0.0	30.0	100.0
=	2.9	0.0	30.0	100.0
=	3.5	0.0	30.0	100.1
=	4.0	0.0	30.0	100.1
=	4.5	0.0	30.0	100.1
=	5.2	0.0	30.0	100.1
=	5.8	0.0	30.0	100.2
=	6.4	0.0	30.0	100.2
=	7.0	0.0	30.0	100.2
=	7.6	0.0	30.0	100.2
=	8.3	0.0	30.0	100.3
=	8.9	0.0	30.0	100.3
=	9.5	0.0	30.0	100.3
=	10.0	0.0	30.0	100.4
=	10.6	0.0	30.0	100.4
=	11.2	0.0	30.0	100.4
=	11.8	0.0	30.0	100.5
=	12.5	0.0	30.0	100.5
=	13.1	0.0	30.0	100.5
=	13.8	0.0	30.0	100.6
=	14.4	0.0	30.0	100.6
=	14.9	0.0	30.0	100.7
=	15.5	0.0	30.0	100.8
=	16.0	0.0	30.0	100.8
=	16.7	0.0	30.0	100.9
=	17.3	0.0	30.0	100.9
=	18.0	0.0	30.0	101.0
=	18.5	0.0	30.0	101.1
=	19.2	0.0	30.0	101.1
=	19.8	0.0	30.0	101.1
=	20.5	0.0	30.0	101.3
=	21.0	0.0	30.0	101.3
=	21.6	0.0	30.0	101.4
=	22.2	0.0	30.0	101.5
=	22.7	0.0	30.0	101.5
=	23.2	0.0	30.0	101.6
=	23.8	0.0	30.0	101.6
=	24.5	0.0	30.0	101.7
=	25.1	0.0	30.0	101.8
=	25.8	0.0	30.0	101.9
=	26.4	0.0	30.0	102.0
=	26.9	0.0	30.0	102.0
=	27.5	0.0	30.0	102.0
=	28.1	0.0	30.0	102.1
=	28.6	0.0	30.0	102.2
=	29.1	0.0	30.0	102.2
=	29.6	0.0	30.0	102.2
=	30.2	0.0	30.0	102.2
=	30.8	0.0	30.0	102.3
=	31.3	0.0	30.0	102.3
=	31.9	0.0	30.0	102.3
=	32.5	0.0	30.0	102.3
=	33.0	0.0	30.0	102.4
=	33.6	0.0	30.0	102.4
=	34.2	0.0	30.0	102.5
=	34.9	0.0	30.0	102.5
=	35.7	0.0	30.0	102.5
=	36.3	0.0	30.0	102.5
=	36.9	0.0	30.0	102.6
=	37.5	0.0	30.0	102.6
=	38.2	0.0	30.0	102.7
=	38.8	0.0	30.0	102.7
=	39.4	0.0	30.0	102.8
=	40.0	0.0	30.0	102.8
=	40.6	0.0	30.0	102.8
=	41.2	0.0	30.0	102.8
=	41.7	0.0	30.0	102.8
=	42.3	0.0	30.0	102.8
=	42.8	0.0	30.0	102.8
=	43.4	0.0	30.0	102.8
=	44.1	0.0	30.0	102.9
=	44.6	0.0	30.0	102.9
=	45.3	0.0	30.0	102.9
=	45.8	0.0	30.0	103.0
=	46.5	0.0	30.0	103.0
=	47.2	0.0	30.0	103.0
=	47.8	0.0	30.0	103.0
=	48.6	0.0	30.0	103.0
=	49.2	0.0	30.0	103.0
=	49.8	0.0	30.0	103.0
=	50.3	0.0	30.0	103.0
=	50.9	0.0	30.0	103.1
=	51.5	0.0	30.0	103.1
=	52.1	0.0	30.0	103.1
=	52.6	0.0	30.0	103.1
=	53.2	0.0	30.0	103.1
=	53.7	0.0	30.0	103.2
=	54.2	0.0	30.0	103.2
=	54.8	0.0	30.0	103.2
=	55.4	0.0	30.0	103.2
=	56.0	0.0	30.0	103.2
=	56.7	0.0	30.0	103.1
=	57.3	0.0	30.0	103.1
=	57.9	0.0	30.0	103.1
=	58.7	0.0	30.0	103.1
=	59.2	0.0	30.0	103.1
=	59.9	0.0	30.0	103.1
=	60.6	0.0	30.0	103.1
=	61.4	0.0	30.0	103.1
=	62.1	0.0	30.0	103.1
=	62.8	0.0	30.0	103.1
=	63.3	0.0	30.0	103.0
=	63.9	0.0	30.0	103.0
=	64.5	0.0	30.0	103.0
=	65.0	0.0	30.0	103.1
=	65.6	0.0	30.0	103.0
=	66.2	0.0	30.0	103.0
=	66.8	0.0	30.0	103.0
=	67.3	0.0	30.0	103.0
=	67.9	0.0	30.0	103.0
=	68.4	0.0	30.0	103.0
=	68.9	0.0	30.0	103.0
=	69.5	0.0	30.0	103.0
=	70.1	0.0	30.0	102.9
=	70.7	0.0	30.0	102.9
=	71.4	0.0	30.0	102.9
=	72.1	0.0	30.0	102.9
=	72.6	0.0	30.0	102.9
=	73.2	0.0	30.0	102.8
=	73.8	0.0	30.0	102.8
=	74.5	0.0	30.0	102.8
=	75.0	0.0	30.0	102.8
=	75.6	0.0	30.0	102.8
=	76.1	0.0	30.0	102.7
=	76.7	0.0	30.0	102.7
=	77.3	0.0	30.0	102.7
=	77.8	0.0	30.0	102.7
=	78.5	0.0	30.0	102.7
=	79.1	0.0	30.0	102.7
=	79.8	0.0	30.0	102.7
=	80.6	0.0	30.0	102.7
=	81.2	0.0	30.0	102.6
=	81.8	0.0	30.0	102.6
=	82.4	0.0	30.0	102.6
=	83.0	0.0	30.0	102.7
=	83.6	0.0	30.0	102.7
=	84.2	0.0	30.0	102.7
=	84.8	0.0	30.0	102.6
=	85.7	0.0	30.0	102.6
=	86.5	0.0	30.0	102.6
=	87.1	0.0	30.0	102.6
=	87.6	0.0	30.0	102.5
=	88.2	0.0	30.0	102.4
=	88.8	0.0	30.0	102.4
=	89.3	0.0	30.0	102.3
=	89.9	0.0	30.0	102.3
=	90.6	0.0	30.0	102.3
=	91.2	0.0	30.0	102.3
=	91.9	0.0	30.0	102.3
=	92.5	0.0	30.0	102.2
=	93.0	0.0	30.0	102.2
=	93.6	0.0	30.0	102.2
=	94.3	0.0	30.0	102.1
=	94.8	0.0	30.0	102.0
=	95.4	0.0	30.0	102.0
=	96.0	0.0	30.0	102.0
=	96.7	0.0	30.0	101.9
=	97.5	0.0	30.0	101.9
=	98.2	0.0	30.0	101.9
=	98.7	0.0	30.0	101.9
=	99.3	0.0	30.0	101.9
=	99.9	0.0	30.0	101.9
=	100.6	0.0	30.0	101.9
=	101.2	0.0	30.0	101.9
=	101.8	0.0	30.0	101.9
=	102.5	0.0	30.0	101.9
=	103.0	0.0	30.0	101.9
=	103.6	0.0	30.0	101.9
=	104.2	0.0	30.0	102.0
=	104.9	0.0	30.0	102.0
=	105.5	0.0	30.0	102.0
=	106.1	0.0	30.0	102.0
=	106.7	0.0	30.0	102.0
=	107.3	0.0	30.0	102.0
=	107.9	0.0	30.0	102.0
=	108.5	0.0	30.0	102.0
=	109.2	0.0	30.0	102.0
=	109.7	0.0	30.0	102.0
=	110.4	0.0	30.0	101.9
=	111.0	0.0	30.0	101.9
=	111.7	0.0	30.0	102.0
=	112.4	0.0	30.0	102.0
=	113.0	0.0	30.0	102.0
=	113.5	0.0	30.0	102.0
=	114.2	0.0	30.0	102.0
=	114.8	0.0	30.0	101.9
=	115.4	0.0	30.0	101.9
=	116.0	0.0	30.0	101.8
=	116.6	0.0	30.0	101.8
=	117.3	0.0	30.0	101.8
=	118.0	0.0	30.0	101.8
=	118.6	0.0	30.0	101.7
=	119.4	0.0	30.0	101.7
=	120.1	0.0	30.0	101.7
=	120.7	0.0	30.0	101.6
=	121.3	0.0	30.0	101.6
=	121.9	0.0	30.0	101.6
=	122.5	0.0	30.0	101.6
=	123.2	0.0	30.0	101.6
=	123.7	0.0	30.0	101.5
=	124.3	0.0	30.0	101.5
=	124.9	0.0	30.0	101.5
=	125.6	0.0	30.0	101.5
=	126.3	0.0	30.0	101.4
=	126.8	0.0	30.0	101.4
=	127.3	0.0	30.0	101.4
=	127.9	0.0	30.0	101.4
=	128.5	0.0	30.0	101.4
=	129.1	0.0	30.0	101.3
=	129.6	0.0	30.0	101.3
=	130.2	0.0	30.0	101.3
=	130.7	0.0	30.0	101.3
=	131.3	0.0	30.0	101.2
=	131.9	0.0	30.0	101.2
=	132.5	0.0	30.0	101.2
=	132.9	0.0	30.0	101.2
=	133.5	0.0	30.0	101.2
=	134.1	0.0	30.0	101.1
=	134.7	0.0	30.0	101.1
=	135.2	0.0	30.0	101.0
=	135.7	0.0	30.0	101.0
=	136.3	0.0	30.0	100.9
=	137.1	0.0	30.0	100.9
=	137.6	0.0	30.0	100.9
=	138.3	0.0	30.0	100.9
=	138.9	0.0	30.0	100.8
=	139.5	0.0	30.0	100.8
=	140.1	0.0	30.0	100.8
=	140.7	0.0	30.0	100.8
=	141.4	0.0	30.0	100.7
=	142.1	0.0	30.0	100.7
=	142.7	0.0	30.0	100.7
=	143.2	0.0	30.0	100.7
=	144.0	0.0	30.0	100.7
=	144.4	0.0	30.0	100.7
=	145.0	0.0	30.0	100.6
=	145.5	0.0	30.0	100.6
=	146.2	0.0	30.0	100.5
=	146.8	0.0	30.0	100.5
=	147.5	0.0	30.0	100.5
=	148.1	0.0	30.0	100.5
=	148.7	0.0	30.0	100.5
=	149.4	0.0	30.0	100.5
=	149.9	0.0	30.0	100.4
=	150.6	0.0	30.0	100.4
=	151.3	0.0	30.0	100.4
=	151.9	0.0	30.0	100.3
=	152.7	0.0	30.0	100.3
=	153.5	0.0	30.0	100.2
=	154.1	0.0	30.0	100.2
=	154.9	0.0	30.0	100.2
=	155.5	0.0	30.0	100.1
=	156.1	0.0	30.0	100.1
=	156.7	0.0	30.0	100.1
=	157.2	0.0	30.0	100.0
=	157.9	0.0	30.0	100.0
=	158.6	0.0	30.0	100.0
=	159.2	0.0	30.0	99.9
=	159.6	0.0	30.0	99.8
=	160.2	0.0	30.0	99.8
=	160.9	0.0	30.0	99.7
=	161.5	0.0	30.0	99.6
=	162.1	0.0	30.0	99.5
=	162.6	0.0	30.0	99.5
=	163.2	0.0	30.0	99.5
=	163.8	0.0	30.0	99.5
=	164.2	0.0	30.0	99.4
=	164.8	0.0	30.0	99.4
=	165.3	0.0	30.0	99.3
=	166.1	0.0	30.0	99.1
=	166.7	0.0	30.0	99.0
=	167.3	0.0	30.0	99.0
=	168.1	0.0	30.0	98.9
=	168.8	0.0	30.0	98.9
=	169.5	0.0	30.0	98.8
=	170.1	0.0	30.0	98.8
=	170.8	0.0	30.0	98.7
=	171.5	0.0	30.0	98.6
=	172.0	0.0	30.0	98.6
=	172.6	0.0	30.0	98.5
=	173.2	0.0	30.0	98.5
=	173.8	0.0	30.0	98.4
=	174.3	0.0	30.0	98.4
=	174.9	0.0	30.0	98.3
=	175.6	0.0	30.0	98.3
=	176.4	0.0	30.0	98.2
=	177.1	0.0	30.0	98.2
=	177.7	0.0	30.0	98.2
=	178.5	0.0	30.0	98.1
=	179.3	0.0	30.0	98.1
=	179.9	0.0	30.0	98.1
=	180.6	0.0	30.0	98.0
=	181.3	0.0	30.0	98.0
=	181.9	0.0	30.0	97.9
=	182.5	0.0	30.0	97.9
=	183.1	0.0	30.0	97.9
=	183.9	0.0	30.0	97.9
=	184.7	0.0	30.0	97.8
=	185.4	0.0	30.0	97.8
=	186.1	0.0	30.0	97.7
=	186.6	0.0	30.0	97.6
=	187.2	0.0	30.0	97.5
=	187.8	0.0	30.0	97.4
=	188.4	0.0	30.0	97.2
=	189.0	0.0	30.0	97.1
=	189.5	0.0	30.0	97.0
=	190.0	0.0	30.0	96.9
=	190.6	0.0	30.0	96.7
=	191.3	0.0	30.0	96.4
=	192.0	0.0	30.0	96.2
=	192.6	0.0	30.0	96.0
=	193.2	0.0	30.0	95.7
=	193.7	0.0	30.0	95.5
=	194.5	0.0	30.0	95.2
=	195.0	0.0	30.0	94.9
=	195.7	0.0	30.0	94.4
=	196.3	0.0	30.0	93.9
=	197.0	0.0	30.0	93.3
=	197.5	0.0	30.0	92.8
=	198.0	0.0	30.0	92.1
=	198.6	0.0	30.0	91.4
=	199.4	0.0	30.0	90.0
=	200.0	0.0	30.0	88.6
=	200.7	0.0	30.0	86.8
=	201.3	0.0	30.0	84.6
=	202.0	0.0	30.0	81.3
=	202.6	0.0	30.0	78.0
=	203.1	0.0	30.0	74.4
=	203.7	0.0	30.0	70.3
=	204.2	0.0	30.0	66.0
=	205.0	0.0	30.0	59.5
=	205.6	0.0	30.0	54.2
=	206.2	0.0	30.0	49.3
=	206.8	0.0	30.0	44.6
=	207.3	0.0	30.0	40.5
=	207.9	0.0	30.0	36.0
=	208.6	0.0	30.0	32.0
=	209.2	0.0	30.0	28.6
=	209.7	0.0	30.0	25.9
=	210.4	0.0	30.0	23.2
=	211.0	0.0	30.0	21.2
=	211.6	0.0	30.0	19.8
=	212.2	0.0	30.0	18.4
=	212.9	0.0	30.0	17.3
=	213.5	0.0	30.0	16.4
=	214.0	0.0	30.0	15.8
=	214.6	0.0	30.0	15.2
=	215.1	0.0	30.0	14.7
=	215.9	0.0	30.0	14.1
=	216.3	0.0	30.0	13.8
=	216.9	0.0	30.0	13.4
=	217.5	0.0	30.0	13.1
=	218.2	0.0	30.0	12.8
=	219.0	0.0	30.0	12.4
=	219.8	0.0	30.0	12.2
=	220.4	0.0	30.0	11.9
=	221.2	0.0	30.0	11.7
=	221.9	0.0	30.0	11.6
=	222.6	0.0	30.0	11.4
=	223.1	0.0	30.0	11.2
=	223.7	0.0	30.0	11.1
=	224.2	0.0	30.0	11.0
=	224.8	0.0	30.0	11.0
=	225.5	0.0	30.0	10.8
=	226.2	0.0	30.0	10.7
=	226.7	0.0	30.0	10.6
=	227.4	0.0	30.0	10.5
=	228.0	0.0	30.0	10.4
=	228.6	0.0	30.0	10.3
=	229.1	0.0	30.0	10.2
=	229.7	0.0	30.0	10.1
=	230.3	0.0	30.0	10.1
=	230.9	0.0	30.0	10.0
=	231.5	0.0	30.0	9.9
=	232.0	0.0	30.0	9.9
=	232.7	0.0	30.0	9.7
=	233.2	0.0	30.0	9.6
=	233.8	0.0	30.0	9.6
=	234.3	0.0	30.0	9.5
=	235.1	0.0	30.0	9.5
=	235.7	0.0	30.0	9.4
=	236.3	0.0	30.0	9.3
=	236.9	0.0	30.0	9.3
=	237.4	0.0	30.0	9.2
=	238.0	0.0	30.0	9.2
=	238.7	0.0	30.0	9.1
=	239.3	0.0	30.0	9.1
=	239.9	0.0	30.0	9.0
=	240.6	0.0	30.0	9.0
=	241.3	0.0	30.0	8.9
=	242.1	0.0	30.0	8.9
=	242.7	0.0	30.0	8.8
=	243.4	0.0	30.0	8.8
=	244.0	0.0	30.0	8.7
=	244.5	0.0	30.0	8.7
=	245.1	0.0	30.0	8.7
=	245.6	0.0	30.0	8.6
=	246.2	0.0	30.0	8.6
=	246.8	0.0	30.0	8.5
=	247.4	0.0	30.0	8.5
=	248.2	0.0	30.0	8.4
=	248.9	0.0	30.0	8.4
=	249.5	0.0	30.0	8.3
=	250.1	0.0	30.0	8.3
=	250.7	0.0	30.0	8.3
=	251.4	0.0	30.0	8.2
=	252.1	0.0	30.0	8.2
=	252.8	0.0	30.0	8.1
=	253.3	0.0	30.0	8.1
=	253.9	0.0	30.0	8.1
=	254.4	0.0	30.0	8.0
=	255.0	0.0	30.0	8.0
=	255.6	0.0	30.0	8.0
:EOM # End of Measurement
#
# RFA300 ASCII Measurement Dump ( BDS format )
#
# Measurement number 	2
#
%VNR 1.0
%MOD 	RAT
%TYP 	SCN
%SCN 	PRO
%FLD 	ION
%DAT 	10-14-2011
%TIM 	12:00:00
%FSZ 	400	200
%BMT 	PHO	   15.0
%SSD 	1000
%BUP 	0
%BRD 	1000
%FSH 	1
%ASC 	0
%WEG 	45
%GPO 	0
%CPO 	0
%MEA 	6
%PRD 	50,0
%PTS 	835
%STS 	    -259.4	  0.0	   50.0 # Start Scan values in mm ( X , Y , Z )
%EDS 	    259.4	   0.0	   50.0 # End Scan values in mm ( X , Y , Z )
#
#	  X      Y      Z     Dose
#
=	-259.4	0.0	50.0	7.5
=	-258.7	0.0	50.0	7.5
=	-258.1	0.0	50.0	7.5
=	-257.6	0.0	50.0	7.6
=	-256.9	0.0	50.0	7.6
=	-256.2	0.0	50.0	7.7
=	-255.6	0.0	50.0	7.7
=	-254.9	0.0	50.0	7.7
=	-254.3	0.0	50.0	7.8
=	-253.8	0.0	50.0	7.8
=	-253.2	0.0	50.0	7.9
=	-252.7	0.0	50.0	7.9
=	-251.9	0.0	50.0	8.0
=	-251.3	0.0	50.0	8.0
=	-250.7	0.0	50.0	8.0
=	-250.2	0.0	50.0	8.0
=	-249.6	0.0	50.0	8.1
=	-248.9	0.0	50.0	8.2
=	-248.2	0.0	50.0	8.2
=	-247.5	0.0	50.0	8.2
=	-246.7	0.0	50.0	8.3
=	-246.2	0.0	50.0	8.3
=	-245.6	0.0	50.0	8.4
=	-245.0	0.0	50.0	8.4
=	-244.4	0.0	50.0	8.5
=	-243.7	0.0	50.0	8.6
=	-243.0	0.0	50.0	8.6
=	-242.5	0.0	50.0	8.7
=	-242.0	0.0	50.0	8.7
=	-241.4	0.0	50.0	8.8
=	-240.6	0.0	50.0	8.8
=	-239.9	0.0	50.0	8.9
=	-239.2	0.0	50.0	9.0
=	-238.4	0.0	50.0	9.1
=	-237.8	0.0	50.0	9.2
=	-237.1	0.0	50.0	9.3
=	-236.4	0.0	50.0	9.4
=	-235.7	0.0	50.0	9.4
=	-235.1	0.0	50.0	9.5
=	-234.6	0.0	50.0	9.6
=	-234.0	0.0	50.0	9.7
=	-233.3	0.0	50.0	9.8
=	-232.7	0.0	50.0	9.9
=	-232.1	0.0	50.0	10.0
=	-231.4	0.0	50.0	10.1
=	-230.7	0.0	50.0	10.2
=	-229.9	0.0	50.0	10.3
=	-229.3	0.0	50.0	10.4
=	-228.8	0.0	50.0	10.6
=	-228.3	0.0	50.0	10.6
=	-227.7	0.0	50.0	10.8
=	-227.0	0.0	50.0	10.9
=	-226.5	0.0	50.0	11.1
=	-225.8	0.0	50.0	11.3
=	-225.1	0.0	50.0	11.5
=	-224.4	0.0	50.0	11.7
=	-223.7	0.0	50.0	11.9
=	-223.0	0.0	50.0	12.2
=	-222.4	0.0	50.0	12.5
=	-221.8	0.0	50.0	12.7
=	-221.2	0.0	50.0	13.1
=	-220.6	0.0	50.0	13.5
=	-220.1	0.0	50.0	13.8
=	-219.5	0.0	50.0	14.2
=	-218.9	0.0	50.0	14.8
=	-218.3	0.0	50.0	15.4
=	-217.6	0.0	50.0	16.2
=	-217.1	0.0	50.0	16.9
=	-216.5	0.0	50.0	17.9
=	-215.9	0.0	50.0	19.0
=	-215.2	0.0	50.0	20.4
=	-214.6	0.0	50.0	22.2
=	-214.0	0.0	50.0	24.3
=	-213.3	0.0	50.0	27.6
=	-212.7	0.0	50.0	30.3
=	-212.0	0.0	50.0	34.6
=	-211.2	0.0	50.0	40.0
=	-210.6	0.0	50.0	44.5
=	-209.9	0.0	50.0	49.5
=	-209.1	0.0	50.0	56.3
=	-208.5	0.0	50.0	61.8
=	-207.9	0.0	50.0	66.5
=	-207.3	0.0	50.0	71.0
=	-206.6	0.0	50.0	75.5
=	-205.9	0.0	50.0	79.8
=	-205.3	0.0	50.0	82.5
=	-204.6	0.0	50.0	84.9
=	-203.9	0.0	50.0	87.2
=	-203.2	0.0	50.0	88.5
=	-202.6	0.0	50.0	89.6
=	-201.9	0.0	50.0	90.5
=	-201.4	0.0	50.0	91.3
=	-200.8	0.0	50.0	91.9
=	-200.3	0.0	50.0	92.5
=	-199.6	0.0	50.0	93.1
=	-198.8	0.0	50.0	93.7
=	-198.1	0.0	50.0	94.1
=	-197.5	0.0	50.0	94.6
=	-196.8	0.0	50.0	94.9
=	-196.2	0.0	50.0	95.2
=	-195.6	0.0	50.0	95.5
=	-195.0	0.0	50.0	95.7
=	-194.4	0.0	50.0	95.9
=	-193.9	0.0	50.0	96.1
=	-193.3	0.0	50.0	96.2
=	-192.8	0.0	50.0	96.3
=	-192.1	0.0	50.0	96.6
=	-191.3	0.0	50.0	96.8
=	-190.5	0.0	50.0	96.9
=	-189.8	0.0	50.0	97.0
=	-189.2	0.0	50.0	97.1
=	-188.6	0.0	50.0	97.2
=	-187.9	0.0	50.0	97.4
=	-187.3	0.0	50.0	97.5
=	-186.7	0.0	50.0	97.5
=	-186.1	0.0	50.0	97.6
=	-185.5	0.0	50.0	97.6
=	-185.0	0.0	50.0	97.7
=	-184.5	0.0	50.0	97.7
=	-184.0	0.0	50.0	97.7
=	-183.4	0.0	50.0	97.7
=	-182.8	0.0	50.0	97.8
=	-182.2	0.0	50.0	97.8
=	-181.5	0.0	50.0	97.8
=	-180.8	0.0	50.0	97.9
=	-180.3	0.0	50.0	97.9
=	-179.7	0.0	50.0	98.0
=	-179.0	0.0	50.0	98.0
=	-178.3	0.0	50.0	98.1
=	-177.5	0.0	50.0	98.2
=	-176.9	0.0	50.0	98.2
=	-176.3	0.0	50.0	98.3
=	-175.7	0.0	50.0	98.4
=	-175.2	0.0	50.0	98.4
=	-174.7	0.0	50.0	98.5
=	-174.1	0.0	50.0	98.5
=	-173.4	0.0	50.0	98.5
=	-172.8	0.0	50.0	98.6
=	-172.2	0.0	50.0	98.7
=	-171.5	0.0	50.0	98.8
=	-170.8	0.0	50.0	98.9
=	-170.1	0.0	50.0	99.0
=	-169.5	0.0	50.0	99.0
=	-169.0	0.0	50.0	99.1
=	-168.5	0.0	50.0	99.1
=	-167.9	0.0	50.0	99.2
=	-167.3	0.0	50.0	99.2
=	-166.7	0.0	50.0	99.3
=	-166.1	0.0	50.0	99.4
=	-165.5	0.0	50.0	99.5
=	-164.8	0.0	50.0	99.5
=	-164.2	0.0	50.0	99.6
=	-163.6	0.0	50.0	99.6
=	-163.1	0.0	50.0	99.7
=	-162.4	0.0	50.0	99.8
=	-161.9	0.0	50.0	99.8
=	-161.3	0.0	50.0	99.9
=	-160.6	0.0	50.0	99.9
=	-160.0	0.0	50.0	99.9
=	-159.3	0.0	50.0	100.0
=	-158.7	0.0	50.0	100.0
=	-158.1	0.0	50.0	100.1
=	-157.6	0.0	50.0	100.1
=	-157.0	0.0	50.0	100.2
=	-156.2	0.0	50.0	100.2
=	-155.5	0.0	50.0	100.2
=	-154.8	0.0	50.0	100.3
=	-154.3	0.0	50.0	100.3
=	-153.7	0.0	50.0	100.3
=	-153.2	0.0	50.0	100.4
=	-152.6	0.0	50.0	100.4
=	-151.9	0.0	50.0	100.4
=	-151.1	0.0	50.0	100.4
=	-150.5	0.0	50.0	100.4
=	-149.9	0.0	50.0	100.4
=	-149.4	0.0	50.0	100.4
=	-148.8	0.0	50.0	100.5
=	-148.2	0.0	50.0	100.5
=	-147.6	0.0	50.0	100.5
=	-146.9	0.0	50.0	100.6
=	-146.3	0.0	50.0	100.6
=	-145.6	0.0	50.0	100.6
=	-145.0	0.0	50.0	100.6
=	-144.2	0.0	50.0	100.6
=	-143.5	0.0	50.0	100.6
=	-142.8	0.0	50.0	100.7
=	-142.1	0.0	50.0	100.7
=	-141.5	0.0	50.0	100.8
=	-141.0	0.0	50.0	100.8
=	-140.5	0.0	50.0	100.8
=	-139.9	0.0	50.0	100.8
=	-139.3	0.0	50.0	100.8
=	-138.8	0.0	50.0	100.9
=	-138.2	0.0	50.0	100.9
=	-137.7	0.0	50.0	100.9
=	-137.1	0.0	50.0	101.0
=	-136.5	0.0	50.0	101.0
=	-136.0	0.0	50.0	101.0
=	-135.5	0.0	50.0	101.1
=	-134.9	0.0	50.0	101.1
=	-134.3	0.0	50.0	101.2
=	-133.8	0.0	50.0	101.2
=	-133.2	0.0	50.0	101.3
=	-132.5	0.0	50.0	101.3
=	-131.7	0.0	50.0	101.4
=	-131.1	0.0	50.0	101.4
=	-130.5	0.0	50.0	101.4
=	-130.0	0.0	50.0	101.5
=	-129.2	0.0	50.0	101.5
=	-128.4	0.0	50.0	101.6
=	-127.8	0.0	50.0	101.6
=	-127.2	0.0	50.0	101.7
=	-126.6	0.0	50.0	101.7
=	-126.0	0.0	50.0	101.7
=	-125.4	0.0	50.0	101.8
=	-124.6	0.0	50.0	101.8
=	-123.9	0.0	50.0	101.8
=	-123.2	0.0	50.0	101.9
=	-122.5	0.0	50.0	101.9
=	-121.8	0.0	50.0	101.9
=	-121.3	0.0	50.0	101.9
=	-120.7	0.0	50.0	102.0
=	-120.1	0.0	50.0	102.0
=	-119.4	0.0	50.0	102.0
=	-118.8	0.0	50.0	102.1
=	-118.1	0.0	50.0	102.1
=	-117.3	0.0	50.0	102.1
=	-116.7	0.0	50.0	102.1
=	-116.0	0.0	50.0	102.1
=	-115.5	0.0	50.0	102.1
=	-114.9	0.0	50.0	102.1
=	-114.3	0.0	50.0	102.1
=	-113.8	0.0	50.0	102.1
=	-113.2	0.0	50.0	102.1
=	-112.5	0.0	50.0	102.1
=	-111.9	0.0	50.0	102.1
=	-111.4	0.0	50.0	102.1
=	-110.9	0.0	50.0	102.1
=	-110.2	0.0	50.0	102.1
=	-109.6	0.0	50.0	102.1
=	-109.1	0.0	50.0	102.1
=	-108.5	0.0	50.0	102.1
=	-107.9	0.0	50.0	102.1
=	-107.3	0.0	50.0	102.1
=	-106.7	0.0	50.0	102.1
=	-105.9	0.0	50.0	102.1
=	-105.2	0.0	50.0	102.1
=	-104.5	0.0	50.0	102.1
=	-104.0	0.0	50.0	102.0
=	-103.3	0.0	50.0	102.0
=	-102.7	0.0	50.0	102.0
=	-102.1	0.0	50.0	102.0
=	-101.6	0.0	50.0	102.0
=	-100.9	0.0	50.0	102.0
=	-100.2	0.0	50.0	102.0
=	-99.4	0.0	50.0	102.0
=	-98.9	0.0	50.0	102.0
=	-98.2	0.0	50.0	102.0
=	-97.5	0.0	50.0	102.1
=	-96.9	0.0	50.0	102.1
=	-96.1	0.0	50.0	102.2
=	-95.5	0.0	50.0	102.2
=	-94.8	0.0	50.0	102.3
=	-94.3	0.0	50.0	102.3
=	-93.8	0.0	50.0	102.3
=	-93.3	0.0	50.0	102.4
=	-92.7	0.0	50.0	102.4
=	-92.1	0.0	50.0	102.4
=	-91.5	0.0	50.0	102.5
=	-90.8	0.0	50.0	102.5
=	-90.1	0.0	50.0	102.5
=	-89.6	0.0	50.0	102.5
=	-88.9	0.0	50.0	102.6
=	-88.3	0.0	50.0	102.6
=	-87.7	0.0	50.0	102.6
=	-87.0	0.0	50.0	102.6
=	-86.4	0.0	50.0	102.6
=	-85.7	0.0	50.0	102.6
=	-85.1	0.0	50.0	102.6
=	-84.5	0.0	50.0	102.7
=	-84.0	0.0	50.0	102.7
=	-83.5	0.0	50.0	102.7
=	-82.9	0.0	50.0	102.7
=	-82.2	0.0	50.0	102.7
=	-81.6	0.0	50.0	102.7
=	-81.0	0.0	50.0	102.8
=	-80.3	0.0	50.0	102.8
=	-79.6	0.0	50.0	102.8
=	-79.0	0.0	50.0	102.8
=	-78.5	0.0	50.0	102.8
=	-77.9	0.0	50.0	102.9
=	-77.3	0.0	50.0	102.9
=	-76.7	0.0	50.0	102.9
=	-76.1	0.0	50.0	102.9
=	-75.5	0.0	50.0	102.9
=	-74.9	0.0	50.0	102.9
=	-74.4	0.0	50.0	102.9
=	-73.7	0.0	50.0	102.9
=	-73.1	0.0	50.0	102.9
=	-72.5	0.0	50.0	102.9
=	-71.9	0.0	50.0	103.0
=	-71.4	0.0	50.0	103.0
=	-70.8	0.0	50.0	103.0
=	-70.1	0.0	50.0	103.0
=	-69.4	0.0	50.0	103.0
=	-68.8	0.0	50.0	103.0
=	-68.2	0.0	50.0	103.0
=	-67.7	0.0	50.0	103.0
=	-67.2	0.0	50.0	103.0
=	-66.5	0.0	50.0	103.0
=	-65.9	0.0	50.0	103.1
=	-65.2	0.0	50.0	103.1
=	-64.6	0.0	50.0	103.1
=	-63.9	0.0	50.0	103.1
=	-63.3	0.0	50.0	103.2
=	-62.6	0.0	50.0	103.2
=	-61.9	0.0	50.0	103.2
=	-61.3	0.0	50.0	103.2
=	-60.7	0.0	50.0	103.2
=	-60.1	0.0	50.0	103.2
=	-59.4	0.0	50.0	103.2
=	-58.9	0.0	50.0	103.2
=	-58.3	0.0	50.0	103.1
=	-57.7	0.0	50.0	103.2
=	-57.1	0.0	50.0	103.2
=	-56.5	0.0	50.0	103.1
=	-56.0	0.0	50.0	103.1
=	-55.4	0.0	50.0	103.1
=	-54.7	0.0	50.0	103.1
=	-53.9	0.0	50.0	103.1
=	-53.2	0.0	50.0	103.1
=	-52.6	0.0	50.0	103.1
=	-52.1	0.0	50.0	103.1
=	-51.6	0.0	50.0	103.1
=	-51.0	0.0	50.0	103.1
=	-50.4	0.0	50.0	103.1
=	-49.8	0.0	50.0	103.0
=	-49.2	0.0	50.0	103.0
=	-48.8	0.0	50.0	103.0
=	-48.2	0.0	50.0	103.0
=	-47.7	0.0	50.0	103.0
=	-47.1	0.0	50.0	103.0
=	-46.5	0.0	50.0	103.0
=	-45.9	0.0	50.0	102.9
=	-45.3	0.0	50.0	102.9
=	-44.7	0.0	50.0	102.9
=	-44.1	0.0	50.0	102.9
=	-43.4	0.0	50.0	102.8
=	-42.8	0.0	50.0	102.8
=	-42.1	0.0	50.0	102.7
=	-41.4	0.0	50.0	102.7
=	-40.9	0.0	50.0	102.7
=	-40.3	0.0	50.0	102.7
=	-39.7	0.0	50.0	102.7
=	-39.1	0.0	50.0	102.6
=	-38.6	0.0	50.0	102.6
=	-37.9	0.0	50.0	102.6
=	-37.4	0.0	50.0	102.6
=	-37.0	0.0	50.0	102.5
=	-36.4	0.0	50.0	102.5
=	-35.9	0.0	50.0	102.5
=	-35.2	0.0	50.0	102.5
=	-34.5	0.0	50.0	102.4
=	-33.9	0.0	50.0	102.4
=	-33.3	0.0	50.0	102.4
=	-32.7	0.0	50.0	102.3
=	-32.0	0.0	50.0	102.3
=	-31.3	0.0	50.0	102.3
=	-30.7	0.0	50.0	102.2
=	-30.0	0.0	50.0	102.2
=	-29.4	0.0	50.0	102.1
=	-28.7	0.0	50.0	102.0
=	-28.1	0.0	50.0	102.0
=	-27.4	0.0	50.0	101.9
=	-26.8	0.0	50.0	101.8
=	-26.3	0.0	50.0	101.8
=	-25.7	0.0	50.0	101.8
=	-25.1	0.0	50.0	101.7
=	-24.4	0.0	50.0	101.7
=	-23.7	0.0	50.0	101.6
=	-22.9	0.0	50.0	101.5
=	-22.3	0.0	50.0	101.4
=	-21.7	0.0	50.0	101.3
=	-21.0	0.0	50.0	101.2
=	-20.4	0.0	50.0	101.1
=	-19.8	0.0	50.0	101.1
=	-19.2	0.0	50.0	101.0
=	-18.6	0.0	50.0	101.0
=	-18.0	0.0	50.0	100.9
=	-17.5	0.0	50.0	100.9
=	-16.9	0.0	50.0	100.8
=	-16.3	0.0	50.0	100.7
=	-15.7	0.0	50.0	100.7
=	-15.0	0.0	50.0	100.6
=	-14.4	0.0	50.0	100.6
=	-13.8	0.0	50.0	100.6
=	-13.1	0.0	50.0	100.5
=	-12.5	0.0	50.0	100.5
=	-11.8	0.0	50.0	100.5
=	-11.2	0.0	50.0	100.4
=	-10.5	0.0	50.0	100.4
=	-10.0	0.0	50.0	100.3
=	-9.2	0.0	50.0	100.3
=	-8.6	0.0	50.0	100.2
=	-8.0	0.0	50.0	100.2
=	-7.4	0.0	50.0	100.2
=	-6.8	0.0	50.0	100.1
=	-6.3	0.0	50.0	100.1
=	-5.7	0.0	50.0	100.1
=	-5.2	0.0	50.0	100.0
=	-4.5	0.0	50.0	100.0
=	-3.9	0.0	50.0	100.0
=	-3.3	0.0	50.0	100.0
=	-2.6	0.0	50.0	100.0
=	-2.1	0.0	50.0	100.0
=	-1.4	0.0	50.0	100.0
=	-0.7	0.0	50.0	100.0
=	0.0	0.0	50.0	100.0
=	0.7	0.0	50.0	100.0
=	1.4	0.0	50.0	100.0
=	2.1	0.0	50.0	100.0
=	2.6	0.0	50.0	100.0
=	3.3	0.0	50.0	100.0
=	3.9	0.0	50.0	100.0
=	4.5	0.0	50.0	100.0
=	5.2	0.0	50.0	100.0
=	5.7	0.0	50.0	100.1
=	6.3	0.0	50.0	100.1
=	6.8	0.0	50.0	100.1
=	7.4	0.0	50.0	100.2
=	8.0	0.0	50.0	100.2
=	8.6	0.0	50.0	100.2
=	9.2	0.0	50.0	100.3
=	10.0	0.0	50.0	100.3
=	10.5	0.0	50.0	100.4
=	11.2	0.0	50.0	100.4
=	11.8	0.0	50.0	100.5
=	12.5	0.0	50.0	100.5
=	13.1	0.0	50.0	100.5
