:MSR 	20	 # No. of measurement in file
:SYS BDS 0   # Beam Data Scanner System
#
# RFA300 ASCII Measurement Dump ( BDS format )
#
# Measurement number 	1
#
%VNR 1.0
%MOD 	RAT
%TYP 	SCN
%SCN 	PRO
%FLD 	ION
%DAT 	09-23-2011
%TIM 	12:00:00
%FSZ 	040	040
%BMT 	PHO	   15.0
%SSD 	1000
%BUP 	0
%BRD 	1000
%FSH 	1
%ASC 	0
%WEG 	45
%GPO 	0
%CPO 	0
%MEA 	6
%PRD 	30,0
%PTS 	896
%STS 	    -70.6	  0.0	   30.0 # Start Scan values in mm ( X , Y , Z )
%EDS 	    70.5	   0.0	   30.0 # End Scan values in mm ( X , Y , Z )
#
#	  X      Y      Z     Dose
#
=	-70.6	0.0	30.0	1.2
=	-70.4	0.0	30.0	1.2
=	-70.3	0.0	30.0	1.2
=	-70.1	0.0	30.0	1.2
=	-69.9	0.0	30.0	1.2
=	-69.7	0.0	30.0	1.2
=	-69.6	0.0	30.0	1.2
=	-69.4	0.0	30.0	1.2
=	-69.3	0.0	30.0	1.2
=	-69.1	0.0	30.0	1.2
=	-69.0	0.0	30.0	1.2
=	-68.7	0.0	30.0	1.2
=	-68.6	0.0	30.0	1.2
=	-68.4	0.0	30.0	1.2
=	-68.3	0.0	30.0	1.2
=	-68.1	0.0	30.0	1.2
=	-67.9	0.0	30.0	1.2
=	-67.7	0.0	30.0	1.2
=	-67.6	0.0	30.0	1.2
=	-67.5	0.0	30.0	1.2
=	-67.4	0.0	30.0	1.2
=	-67.2	0.0	30.0	1.2
=	-67.1	0.0	30.0	1.2
=	-67.0	0.0	30.0	1.2
=	-66.8	0.0	30.0	1.2
=	-66.5	0.0	30.0	1.2
=	-66.3	0.0	30.0	1.2
=	-66.2	0.0	30.0	1.2
=	-66.0	0.0	30.0	1.2
=	-65.9	0.0	30.0	1.2
=	-65.8	0.0	30.0	1.2
=	-65.7	0.0	30.0	1.2
=	-65.5	0.0	30.0	1.2
=	-65.3	0.0	30.0	1.2
=	-65.1	0.0	30.0	1.2
=	-65.0	0.0	30.0	1.2
=	-64.8	0.0	30.0	1.2
=	-64.7	0.0	30.0	1.2
=	-64.5	0.0	30.0	1.3
=	-64.4	0.0	30.0	1.3
=	-64.3	0.0	30.0	1.3
=	-64.2	0.0	30.0	1.3
=	-63.9	0.0	30.0	1.3
=	-63.8	0.0	30.0	1.3
=	-63.6	0.0	30.0	1.3
=	-63.5	0.0	30.0	1.3
=	-63.4	0.0	30.0	1.3
=	-63.2	0.0	30.0	1.3
=	-63.0	0.0	30.0	1.3
=	-62.9	0.0	30.0	1.3
=	-62.7	0.0	30.0	1.3
=	-62.6	0.0	30.0	1.3
=	-62.5	0.0	30.0	1.3
=	-62.3	0.0	30.0	1.3
=	-62.1	0.0	30.0	1.3
=	-62.0	0.0	30.0	1.3
=	-61.9	0.0	30.0	1.3
=	-61.7	0.0	30.0	1.3
=	-61.5	0.0	30.0	1.3
=	-61.3	0.0	30.0	1.3
=	-61.0	0.0	30.0	1.3
=	-60.9	0.0	30.0	1.3
=	-60.7	0.0	30.0	1.3
=	-60.5	0.0	30.0	1.3
=	-60.4	0.0	30.0	1.3
=	-60.2	0.0	30.0	1.3
=	-60.0	0.0	30.0	1.3
=	-59.8	0.0	30.0	1.3
=	-59.6	0.0	30.0	1.3
=	-59.4	0.0	30.0	1.3
=	-59.2	0.0	30.0	1.3
=	-59.1	0.0	30.0	1.3
=	-58.9	0.0	30.0	1.3
=	-58.8	0.0	30.0	1.3
=	-58.6	0.0	30.0	1.3
=	-58.4	0.0	30.0	1.3
=	-58.2	0.0	30.0	1.3
=	-58.0	0.0	30.0	1.3
=	-57.8	0.0	30.0	1.4
=	-57.6	0.0	30.0	1.4
=	-57.5	0.0	30.0	1.4
=	-57.3	0.0	30.0	1.4
=	-57.1	0.0	30.0	1.4
=	-56.9	0.0	30.0	1.4
=	-56.7	0.0	30.0	1.4
=	-56.6	0.0	30.0	1.4
=	-56.4	0.0	30.0	1.4
=	-56.2	0.0	30.0	1.4
=	-56.0	0.0	30.0	1.4
=	-55.7	0.0	30.0	1.4
=	-55.5	0.0	30.0	1.5
=	-55.3	0.0	30.0	1.5
=	-55.1	0.0	30.0	1.5
=	-54.9	0.0	30.0	1.5
=	-54.7	0.0	30.0	1.5
=	-54.6	0.0	30.0	1.5
=	-54.5	0.0	30.0	1.5
=	-54.4	0.0	30.0	1.5
=	-54.2	0.0	30.0	1.5
=	-54.1	0.0	30.0	1.5
=	-54.0	0.0	30.0	1.5
=	-53.9	0.0	30.0	1.5
=	-53.8	0.0	30.0	1.5
=	-53.6	0.0	30.0	1.5
=	-53.5	0.0	30.0	1.5
=	-53.4	0.0	30.0	1.5
=	-53.2	0.0	30.0	1.5
=	-52.9	0.0	30.0	1.5
=	-52.8	0.0	30.0	1.5
=	-52.6	0.0	30.0	1.5
=	-52.5	0.0	30.0	1.5
=	-52.3	0.0	30.0	1.5
=	-52.1	0.0	30.0	1.6
=	-51.9	0.0	30.0	1.6
=	-51.6	0.0	30.0	1.6
=	-51.5	0.0	30.0	1.6
=	-51.2	0.0	30.0	1.6
=	-51.0	0.0	30.0	1.6
=	-50.8	0.0	30.0	1.6
=	-50.6	0.0	30.0	1.6
=	-50.4	0.0	30.0	1.6
=	-50.3	0.0	30.0	1.6
=	-50.1	0.0	30.0	1.6
=	-50.0	0.0	30.0	1.6
=	-49.9	0.0	30.0	1.6
=	-49.7	0.0	30.0	1.6
=	-49.5	0.0	30.0	1.7
=	-49.3	0.0	30.0	1.7
=	-49.0	0.0	30.0	1.7
=	-48.9	0.0	30.0	1.7
=	-48.7	0.0	30.0	1.7
=	-48.6	0.0	30.0	1.7
=	-48.5	0.0	30.0	1.7
=	-48.4	0.0	30.0	1.7
=	-48.2	0.0	30.0	1.7
=	-48.1	0.0	30.0	1.7
=	-48.0	0.0	30.0	1.7
=	-47.8	0.0	30.0	1.8
=	-47.6	0.0	30.0	1.8
=	-47.4	0.0	30.0	1.8
=	-47.2	0.0	30.0	1.8
=	-47.0	0.0	30.0	1.8
=	-46.9	0.0	30.0	1.8
=	-46.8	0.0	30.0	1.8
=	-46.7	0.0	30.0	1.8
=	-46.5	0.0	30.0	1.8
=	-46.4	0.0	30.0	1.8
=	-46.2	0.0	30.0	1.8
=	-46.1	0.0	30.0	1.8
=	-46.0	0.0	30.0	1.8
=	-45.8	0.0	30.0	1.8
=	-45.7	0.0	30.0	1.9
=	-45.6	0.0	30.0	1.9
=	-45.4	0.0	30.0	1.9
=	-45.3	0.0	30.0	1.9
=	-45.2	0.0	30.0	1.9
=	-45.0	0.0	30.0	1.9
=	-44.9	0.0	30.0	1.9
=	-44.7	0.0	30.0	2.0
=	-44.6	0.0	30.0	2.0
=	-44.4	0.0	30.0	2.0
=	-44.3	0.0	30.0	2.0
=	-44.2	0.0	30.0	2.0
=	-44.0	0.0	30.0	2.0
=	-43.8	0.0	30.0	2.0
=	-43.6	0.0	30.0	2.0
=	-43.4	0.0	30.0	2.1
=	-43.2	0.0	30.0	2.1
=	-43.0	0.0	30.0	2.1
=	-42.8	0.0	30.0	2.1
=	-42.6	0.0	30.0	2.1
=	-42.5	0.0	30.0	2.1
=	-42.3	0.0	30.0	2.1
=	-42.2	0.0	30.0	2.1
=	-42.1	0.0	30.0	2.1
=	-42.0	0.0	30.0	2.1
=	-41.8	0.0	30.0	2.2
=	-41.6	0.0	30.0	2.2
=	-41.4	0.0	30.0	2.2
=	-41.3	0.0	30.0	2.2
=	-41.1	0.0	30.0	2.2
=	-40.9	0.0	30.0	2.2
=	-40.7	0.0	30.0	2.3
=	-40.5	0.0	30.0	2.3
=	-40.4	0.0	30.0	2.3
=	-40.2	0.0	30.0	2.3
=	-40.1	0.0	30.0	2.3
=	-40.0	0.0	30.0	2.3
=	-39.9	0.0	30.0	2.3
=	-39.7	0.0	30.0	2.4
=	-39.5	0.0	30.0	2.4
=	-39.4	0.0	30.0	2.4
=	-39.3	0.0	30.0	2.4
=	-39.1	0.0	30.0	2.4
=	-39.0	0.0	30.0	2.4
=	-38.9	0.0	30.0	2.5
=	-38.8	0.0	30.0	2.5
=	-38.7	0.0	30.0	2.5
=	-38.6	0.0	30.0	2.5
=	-38.5	0.0	30.0	2.5
=	-38.4	0.0	30.0	2.5
=	-38.2	0.0	30.0	2.5
=	-38.0	0.0	30.0	2.5
=	-37.7	0.0	30.0	2.6
=	-37.5	0.0	30.0	2.7
=	-37.3	0.0	30.0	2.7
=	-37.2	0.0	30.0	2.7
=	-37.1	0.0	30.0	2.7
=	-36.9	0.0	30.0	2.7
=	-36.8	0.0	30.0	2.8
=	-36.7	0.0	30.0	2.8
=	-36.6	0.0	30.0	2.8
=	-36.4	0.0	30.0	2.8
=	-36.3	0.0	30.0	2.8
=	-36.2	0.0	30.0	2.8
=	-35.9	0.0	30.0	2.9
=	-35.8	0.0	30.0	2.9
=	-35.6	0.0	30.0	2.9
=	-35.5	0.0	30.0	3.0
=	-35.3	0.0	30.0	3.0
=	-35.0	0.0	30.0	3.1
=	-34.8	0.0	30.0	3.1
=	-34.6	0.0	30.0	3.2
=	-34.5	0.0	30.0	3.2
=	-34.4	0.0	30.0	3.3
=	-34.2	0.0	30.0	3.3
=	-34.1	0.0	30.0	3.4
=	-34.0	0.0	30.0	3.4
=	-33.8	0.0	30.0	3.4
=	-33.6	0.0	30.0	3.5
=	-33.4	0.0	30.0	3.5
=	-33.2	0.0	30.0	3.6
=	-33.0	0.0	30.0	3.7
=	-32.8	0.0	30.0	3.8
=	-32.6	0.0	30.0	3.9
=	-32.5	0.0	30.0	3.9
=	-32.4	0.0	30.0	4.0
=	-32.2	0.0	30.0	4.0
=	-32.1	0.0	30.0	4.1
=	-31.9	0.0	30.0	4.1
=	-31.8	0.0	30.0	4.2
=	-31.6	0.0	30.0	4.3
=	-31.5	0.0	30.0	4.4
=	-31.3	0.0	30.0	4.4
=	-31.2	0.0	30.0	4.5
=	-31.0	0.0	30.0	4.6
=	-30.9	0.0	30.0	4.6
=	-30.8	0.0	30.0	4.7
=	-30.6	0.0	30.0	4.8
=	-30.4	0.0	30.0	5.0
=	-30.2	0.0	30.0	5.1
=	-30.0	0.0	30.0	5.3
=	-29.8	0.0	30.0	5.4
=	-29.6	0.0	30.0	5.6
=	-29.4	0.0	30.0	5.7
=	-29.2	0.0	30.0	5.9
=	-29.0	0.0	30.0	6.0
=	-28.8	0.0	30.0	6.2
=	-28.6	0.0	30.0	6.5
=	-28.4	0.0	30.0	6.8
=	-28.2	0.0	30.0	7.1
=	-28.0	0.0	30.0	7.3
=	-27.9	0.0	30.0	7.4
=	-27.7	0.0	30.0	7.7
=	-27.5	0.0	30.0	7.9
=	-27.4	0.0	30.0	8.1
=	-27.2	0.0	30.0	8.3
=	-27.1	0.0	30.0	8.5
=	-27.0	0.0	30.0	8.7
=	-26.8	0.0	30.0	9.0
=	-26.7	0.0	30.0	9.3
=	-26.6	0.0	30.0	9.6
=	-26.5	0.0	30.0	9.8
=	-26.4	0.0	30.0	10.0
=	-26.2	0.0	30.0	10.3
=	-26.1	0.0	30.0	10.6
=	-26.0	0.0	30.0	10.9
=	-25.8	0.0	30.0	11.3
=	-25.7	0.0	30.0	11.6
=	-25.5	0.0	30.0	12.1
=	-25.4	0.0	30.0	12.4
=	-25.3	0.0	30.0	12.8
=	-25.0	0.0	30.0	13.6
=	-24.9	0.0	30.0	14.2
=	-24.8	0.0	30.0	14.6
=	-24.6	0.0	30.0	15.0
=	-24.4	0.0	30.0	15.8
=	-24.3	0.0	30.0	16.3
=	-24.2	0.0	30.0	16.8
=	-24.1	0.0	30.0	17.4
=	-23.9	0.0	30.0	18.3
=	-23.7	0.0	30.0	19.8
=	-23.5	0.0	30.0	20.7
=	-23.4	0.0	30.0	21.5
=	-23.2	0.0	30.0	23.0
=	-23.0	0.0	30.0	24.6
=	-22.9	0.0	30.0	25.5
=	-22.8	0.0	30.0	26.4
=	-22.7	0.0	30.0	27.4
=	-22.5	0.0	30.0	29.3
=	-22.3	0.0	30.0	31.1
=	-22.2	0.0	30.0	32.2
=	-22.1	0.0	30.0	33.5
=	-22.0	0.0	30.0	34.7
=	-21.9	0.0	30.0	35.7
=	-21.7	0.0	30.0	37.3
=	-21.6	0.0	30.0	38.4
=	-21.5	0.0	30.0	40.0
=	-21.4	0.0	30.0	41.3
=	-21.2	0.0	30.0	42.8
=	-21.1	0.0	30.0	44.6
=	-21.0	0.0	30.0	46.2
=	-20.8	0.0	30.0	48.1
=	-20.7	0.0	30.0	49.7
=	-20.5	0.0	30.0	51.6
=	-20.4	0.0	30.0	53.0
=	-20.2	0.0	30.0	55.1
=	-20.1	0.0	30.0	56.9
=	-19.9	0.0	30.0	58.4
=	-19.8	0.0	30.0	60.1
=	-19.6	0.0	30.0	62.9
=	-19.4	0.0	30.0	65.1
=	-19.2	0.0	30.0	67.4
=	-19.0	0.0	30.0	69.2
=	-18.8	0.0	30.0	71.2
=	-18.7	0.0	30.0	72.6
=	-18.6	0.0	30.0	74.1
=	-18.4	0.0	30.0	75.8
=	-18.3	0.0	30.0	77.2
=	-18.2	0.0	30.0	78.2
=	-18.0	0.0	30.0	79.8
=	-17.9	0.0	30.0	80.9
=	-17.7	0.0	30.0	82.1
=	-17.5	0.0	30.0	84.1
=	-17.4	0.0	30.0	84.9
=	-17.3	0.0	30.0	85.8
=	-17.2	0.0	30.0	86.7
=	-16.9	0.0	30.0	88.7
=	-16.7	0.0	30.0	89.7
=	-16.5	0.0	30.0	91.1
=	-16.3	0.0	30.0	92.1
=	-16.1	0.0	30.0	93.0
=	-16.0	0.0	30.0	93.9
=	-15.9	0.0	30.0	94.5
=	-15.7	0.0	30.0	94.8
=	-15.6	0.0	30.0	95.2
=	-15.5	0.0	30.0	95.6
=	-15.4	0.0	30.0	96.2
=	-15.3	0.0	30.0	96.6
=	-15.2	0.0	30.0	97.1
=	-15.0	0.0	30.0	97.4
=	-14.9	0.0	30.0	97.5
=	-14.8	0.0	30.0	97.6
=	-14.6	0.0	30.0	97.9
=	-14.5	0.0	30.0	98.5
=	-14.3	0.0	30.0	99.0
=	-14.1	0.0	30.0	99.3
=	-13.9	0.0	30.0	99.5
=	-13.8	0.0	30.0	99.7
=	-13.7	0.0	30.0	100.0
=	-13.6	0.0	30.0	100.1
=	-13.5	0.0	30.0	100.2
=	-13.4	0.0	30.0	100.3
=	-13.3	0.0	30.0	100.4
=	-13.2	0.0	30.0	100.5
=	-13.0	0.0	30.0	100.7
=	-12.8	0.0	30.0	100.9
=	-12.7	0.0	30.0	101.0
=	-12.5	0.0	30.0	101.2
=	-12.4	0.0	30.0	101.3
=	-12.3	0.0	30.0	101.3
=	-12.1	0.0	30.0	101.5
=	-11.9	0.0	30.0	101.6
=	-11.8	0.0	30.0	101.7
=	-11.6	0.0	30.0	101.9
=	-11.5	0.0	30.0	101.9
=	-11.3	0.0	30.0	101.9
=	-11.2	0.0	30.0	101.9
=	-11.0	0.0	30.0	102.0
=	-10.9	0.0	30.0	102.0
=	-10.7	0.0	30.0	102.0
=	-10.5	0.0	30.0	102.1
=	-10.3	0.0	30.0	102.1
=	-10.2	0.0	30.0	102.1
=	-10.1	0.0	30.0	102.1
=	-9.9	0.0	30.0	102.1
=	-9.8	0.0	30.0	102.1
=	-9.6	0.0	30.0	102.1
=	-9.5	0.0	30.0	102.2
=	-9.3	0.0	30.0	102.2
=	-9.1	0.0	30.0	102.2
=	-9.0	0.0	30.0	102.2
=	-8.8	0.0	30.0	102.2
=	-8.7	0.0	30.0	102.2
=	-8.6	0.0	30.0	102.2
=	-8.5	0.0	30.0	102.2
=	-8.3	0.0	30.0	102.2
=	-8.2	0.0	30.0	102.2
=	-8.1	0.0	30.0	102.2
=	-8.0	0.0	30.0	102.2
=	-7.9	0.0	30.0	102.2
=	-7.7	0.0	30.0	102.2
=	-7.6	0.0	30.0	102.2
=	-7.5	0.0	30.0	102.1
=	-7.3	0.0	30.0	102.1
=	-7.1	0.0	30.0	102.0
=	-7.0	0.0	30.0	102.0
=	-6.8	0.0	30.0	102.0
=	-6.7	0.0	30.0	101.9
=	-6.5	0.0	30.0	101.9
=	-6.4	0.0	30.0	101.9
=	-6.2	0.0	30.0	101.9
=	-6.0	0.0	30.0	101.8
=	-5.8	0.0	30.0	101.8
=	-5.6	0.0	30.0	101.8
=	-5.4	0.0	30.0	101.7
=	-5.3	0.0	30.0	101.7
=	-5.2	0.0	30.0	101.6
=	-5.0	0.0	30.0	101.6
=	-4.8	0.0	30.0	101.5
=	-4.6	0.0	30.0	101.5
=	-4.4	0.0	30.0	101.5
=	-4.2	0.0	30.0	101.4
=	-4.1	0.0	30.0	101.4
=	-4.0	0.0	30.0	101.4
=	-3.8	0.0	30.0	101.3
=	-3.7	0.0	30.0	101.3
=	-3.6	0.0	30.0	101.2
=	-3.4	0.0	30.0	101.2
=	-3.3	0.0	30.0	101.1
=	-3.1	0.0	30.0	101.1
=	-2.9	0.0	30.0	100.9
=	-2.8	0.0	30.0	100.9
=	-2.6	0.0	30.0	100.8
=	-2.4	0.0	30.0	100.7
=	-2.2	0.0	30.0	100.6
=	-2.0	0.0	30.0	100.6
=	-1.9	0.0	30.0	100.6
=	-1.7	0.0	30.0	100.5
=	-1.5	0.0	30.0	100.4
=	-1.3	0.0	30.0	100.4
=	-1.1	0.0	30.0	100.3
=	-1.0	0.0	30.0	100.3
=	-0.9	0.0	30.0	100.3
=	-0.8	0.0	30.0	100.2
=	-0.6	0.0	30.0	100.2
=	-0.5	0.0	30.0	100.1
=	-0.3	0.0	30.0	100.1
=	-0.2	0.0	30.0	100.1
=	-0.1	0.0	30.0	100.0
=	0.1	0.0	30.0	100.0
=	0.3	0.0	30.0	99.9
=	0.5	0.0	30.0	99.8
=	0.6	0.0	30.0	99.7
=	0.7	0.0	30.0	99.6
=	0.9	0.0	30.0	99.5
=	1.0	0.0	30.0	99.5
=	1.2	0.0	30.0	99.4
=	1.3	0.0	30.0	99.3
=	1.5	0.0	30.0	99.2
=	1.7	0.0	30.0	99.1
=	1.8	0.0	30.0	99.1
=	1.9	0.0	30.0	99.0
=	2.0	0.0	30.0	99.0
=	2.2	0.0	30.0	98.9
=	2.3	0.0	30.0	98.9
=	2.4	0.0	30.0	98.8
=	2.6	0.0	30.0	98.7
=	2.8	0.0	30.0	98.6
=	2.9	0.0	30.0	98.5
=	3.1	0.0	30.0	98.4
=	3.3	0.0	30.0	98.4
=	3.4	0.0	30.0	98.4
=	3.5	0.0	30.0	98.4
=	3.6	0.0	30.0	98.3
=	3.7	0.0	30.0	98.3
=	3.9	0.0	30.0	98.3
=	4.0	0.0	30.0	98.2
=	4.1	0.0	30.0	98.1
=	4.3	0.0	30.0	98.1
=	4.4	0.0	30.0	98.0
=	4.5	0.0	30.0	98.0
=	4.7	0.0	30.0	97.9
=	4.8	0.0	30.0	97.9
=	4.9	0.0	30.0	97.9
=	5.1	0.0	30.0	97.8
=	5.2	0.0	30.0	97.7
=	5.4	0.0	30.0	97.5
=	5.5	0.0	30.0	97.5
=	5.7	0.0	30.0	97.4
=	5.9	0.0	30.0	97.2
=	6.1	0.0	30.0	97.1
=	6.3	0.0	30.0	96.9
=	6.4	0.0	30.0	96.9
=	6.5	0.0	30.0	96.9
=	6.7	0.0	30.0	96.8
=	6.8	0.0	30.0	96.8
=	6.9	0.0	30.0	96.7
=	7.1	0.0	30.0	96.6
=	7.3	0.0	30.0	96.6
=	7.4	0.0	30.0	96.5
=	7.5	0.0	30.0	96.5
=	7.8	0.0	30.0	96.2
=	8.0	0.0	30.0	96.0
=	8.1	0.0	30.0	95.9
=	8.2	0.0	30.0	95.9
=	8.4	0.0	30.0	95.9
=	8.6	0.0	30.0	95.8
=	8.7	0.0	30.0	95.7
=	8.9	0.0	30.0	95.6
=	9.0	0.0	30.0	95.5
=	9.2	0.0	30.0	95.5
=	9.4	0.0	30.0	95.4
=	9.6	0.0	30.0	95.2
=	9.8	0.0	30.0	94.9
=	10.0	0.0	30.0	94.8
=	10.1	0.0	30.0	94.7
=	10.3	0.0	30.0	94.5
=	10.6	0.0	30.0	94.4
=	10.8	0.0	30.0	94.1
=	11.0	0.0	30.0	93.9
=	11.1	0.0	30.0	93.8
=	11.2	0.0	30.0	93.7
=	11.4	0.0	30.0	93.6
=	11.6	0.0	30.0	93.4
=	11.8	0.0	30.0	93.1
=	11.9	0.0	30.0	93.0
=	12.0	0.0	30.0	92.8
=	12.2	0.0	30.0	92.6
=	12.4	0.0	30.0	92.4
=	12.6	0.0	30.0	92.2
=	12.7	0.0	30.0	92.1
=	12.9	0.0	30.0	91.8
=	13.0	0.0	30.0	91.6
=	13.2	0.0	30.0	91.4
=	13.3	0.0	30.0	91.3
=	13.5	0.0	30.0	91.0
=	13.6	0.0	30.0	90.8
=	13.8	0.0	30.0	90.4
=	14.0	0.0	30.0	90.0
=	14.2	0.0	30.0	89.6
=	14.3	0.0	30.0	89.4
=	14.4	0.0	30.0	89.3
=	14.5	0.0	30.0	89.0
=	14.7	0.0	30.0	88.6
=	14.8	0.0	30.0	88.4
=	14.9	0.0	30.0	88.1
=	15.1	0.0	30.0	87.6
=	15.3	0.0	30.0	87.2
=	15.5	0.0	30.0	86.7
=	15.7	0.0	30.0	86.0
=	15.9	0.0	30.0	85.1
=	16.0	0.0	30.0	84.5
=	16.1	0.0	30.0	83.9
=	16.3	0.0	30.0	83.2
=	16.4	0.0	30.0	82.8
=	16.5	0.0	30.0	82.2
=	16.7	0.0	30.0	81.4
=	16.8	0.0	30.0	80.7
=	16.9	0.0	30.0	80.2
=	17.0	0.0	30.0	79.5
=	17.2	0.0	30.0	78.9
=	17.3	0.0	30.0	78.0
=	17.4	0.0	30.0	77.3
=	17.6	0.0	30.0	76.0
=	17.7	0.0	30.0	75.0
=	17.8	0.0	30.0	74.0
=	18.0	0.0	30.0	72.7
=	18.2	0.0	30.0	71.4
=	18.4	0.0	30.0	69.8
=	18.6	0.0	30.0	67.8
=	18.7	0.0	30.0	66.1
=	18.8	0.0	30.0	65.0
=	19.0	0.0	30.0	63.6
=	19.1	0.0	30.0	62.5
=	19.2	0.0	30.0	61.4
=	19.4	0.0	30.0	60.1
=	19.5	0.0	30.0	58.4
=	19.7	0.0	30.0	56.3
=	19.8	0.0	30.0	55.1
=	19.9	0.0	30.0	54.2
=	20.1	0.0	30.0	52.8
=	20.2	0.0	30.0	51.6
=	20.3	0.0	30.0	50.2
=	20.5	0.0	30.0	48.4
=	20.6	0.0	30.0	47.0
=	20.8	0.0	30.0	45.5
=	20.9	0.0	30.0	44.1
=	21.0	0.0	30.0	42.7
=	21.2	0.0	30.0	41.1
=	21.3	0.0	30.0	39.5
=	21.5	0.0	30.0	37.0
=	21.7	0.0	30.0	35.5
=	21.8	0.0	30.0	34.6
=	21.9	0.0	30.0	33.4
=	22.1	0.0	30.0	32.1
=	22.2	0.0	30.0	31.0
=	22.3	0.0	30.0	29.5
=	22.5	0.0	30.0	28.3
=	22.6	0.0	30.0	27.0
=	22.8	0.0	30.0	25.9
=	22.9	0.0	30.0	24.9
=	23.0	0.0	30.0	24.1
=	23.1	0.0	30.0	22.9
=	23.3	0.0	30.0	21.8
=	23.4	0.0	30.0	20.9
=	23.6	0.0	30.0	19.9
=	23.8	0.0	30.0	18.6
=	23.9	0.0	30.0	18.0
=	24.0	0.0	30.0	17.3
=	24.2	0.0	30.0	16.4
=	24.3	0.0	30.0	15.6
=	24.4	0.0	30.0	15.1
=	24.5	0.0	30.0	14.6
=	24.7	0.0	30.0	14.0
=	24.9	0.0	30.0	13.4
=	25.0	0.0	30.0	13.0
=	25.1	0.0	30.0	12.6
=	25.2	0.0	30.0	12.3
=	25.4	0.0	30.0	11.7
=	25.5	0.0	30.0	11.4
=	25.6	0.0	30.0	11.1
=	25.8	0.0	30.0	10.6
=	26.0	0.0	30.0	10.0
=	26.2	0.0	30.0	9.6
=	26.4	0.0	30.0	9.2
=	26.5	0.0	30.0	9.0
=	26.6	0.0	30.0	8.7
=	26.8	0.0	30.0	8.4
=	27.0	0.0	30.0	8.1
=	27.2	0.0	30.0	7.6
=	27.4	0.0	30.0	7.3
=	27.5	0.0	30.0	7.2
=	27.7	0.0	30.0	7.0
=	27.9	0.0	30.0	6.8
=	28.1	0.0	30.0	6.4
=	28.3	0.0	30.0	6.2
=	28.4	0.0	30.0	6.1
=	28.5	0.0	30.0	6.0
=	28.6	0.0	30.0	5.9
=	28.8	0.0	30.0	5.8
=	29.0	0.0	30.0	5.6
=	29.1	0.0	30.0	5.4
=	29.3	0.0	30.0	5.2
=	29.5	0.0	30.0	5.1
=	29.6	0.0	30.0	5.0
=	29.8	0.0	30.0	4.9
=	29.9	0.0	30.0	4.8
=	30.1	0.0	30.0	4.6
=	30.3	0.0	30.0	4.6
=	30.5	0.0	30.0	4.5
=	30.7	0.0	30.0	4.4
=	30.9	0.0	30.0	4.2
=	31.1	0.0	30.0	4.1
=	31.2	0.0	30.0	4.0
=	31.4	0.0	30.0	4.0
=	31.5	0.0	30.0	3.9
=	31.6	0.0	30.0	3.9
=	31.8	0.0	30.0	3.8
=	31.9	0.0	30.0	3.7
=	32.1	0.0	30.0	3.6
=	32.3	0.0	30.0	3.5
=	32.5	0.0	30.0	3.5
=	32.7	0.0	30.0	3.4
=	32.9	0.0	30.0	3.4
=	33.2	0.0	30.0	3.2
=	33.3	0.0	30.0	3.2
=	33.4	0.0	30.0	3.1
=	33.5	0.0	30.0	3.1
=	33.7	0.0	30.0	3.1
=	34.0	0.0	30.0	3.0
=	34.1	0.0	30.0	2.9
=	34.3	0.0	30.0	2.8
=	34.4	0.0	30.0	2.8
=	34.5	0.0	30.0	2.8
=	34.7	0.0	30.0	2.8
=	34.9	0.0	30.0	2.7
=	35.2	0.0	30.0	2.7
=	35.4	0.0	30.0	2.7
=	35.6	0.0	30.0	2.6
=	35.8	0.0	30.0	2.6
=	35.9	0.0	30.0	2.6
=	36.0	0.0	30.0	2.6
=	36.2	0.0	30.0	2.5
=	36.4	0.0	30.0	2.5
=	36.5	0.0	30.0	2.5
=	36.6	0.0	30.0	2.5
=	36.8	0.0	30.0	2.4
=	36.9	0.0	30.0	2.4
=	37.0	0.0	30.0	2.4
=	37.1	0.0	30.0	2.4
=	37.3	0.0	30.0	2.3
=	37.6	0.0	30.0	2.3
=	37.8	0.0	30.0	2.3
=	37.9	0.0	30.0	2.3
=	38.0	0.0	30.0	2.3
=	38.1	0.0	30.0	2.2
=	38.2	0.0	30.0	2.2
=	38.4	0.0	30.0	2.2
=	38.5	0.0	30.0	2.2
=	38.6	0.0	30.0	2.1
=	38.8	0.0	30.0	2.1
=	38.9	0.0	30.0	2.1
=	39.0	0.0	30.0	2.1
=	39.2	0.0	30.0	2.0
=	39.4	0.0	30.0	2.0
=	39.5	0.0	30.0	2.0
=	39.6	0.0	30.0	2.0
=	39.8	0.0	30.0	2.0
=	40.0	0.0	30.0	2.0
=	40.2	0.0	30.0	2.0
=	40.4	0.0	30.0	2.0
=	40.7	0.0	30.0	1.9
=	40.9	0.0	30.0	1.9
=	41.1	0.0	30.0	1.9
=	41.3	0.0	30.0	1.9
=	41.4	0.0	30.0	1.9
=	41.5	0.0	30.0	1.8
=	41.7	0.0	30.0	1.8
=	41.9	0.0	30.0	1.8
=	42.1	0.0	30.0	1.8
=	42.3	0.0	30.0	1.8
=	42.5	0.0	30.0	1.8
=	42.7	0.0	30.0	1.8
=	42.8	0.0	30.0	1.8
=	43.0	0.0	30.0	1.7
=	43.2	0.0	30.0	1.7
=	43.3	0.0	30.0	1.7
=	43.4	0.0	30.0	1.7
=	43.7	0.0	30.0	1.7
=	43.9	0.0	30.0	1.7
=	44.1	0.0	30.0	1.7
=	44.3	0.0	30.0	1.7
=	44.5	0.0	30.0	1.6
=	44.7	0.0	30.0	1.6
=	44.9	0.0	30.0	1.6
=	45.1	0.0	30.0	1.6
=	45.3	0.0	30.0	1.6
=	45.6	0.0	30.0	1.6
=	45.8	0.0	30.0	1.6
=	46.0	0.0	30.0	1.5
=	46.2	0.0	30.0	1.5
=	46.4	0.0	30.0	1.5
=	46.6	0.0	30.0	1.5
=	46.8	0.0	30.0	1.5
=	47.0	0.0	30.0	1.5
=	47.2	0.0	30.0	1.5
=	47.3	0.0	30.0	1.5
=	47.5	0.0	30.0	1.5
=	47.6	0.0	30.0	1.5
=	47.8	0.0	30.0	1.5
=	47.9	0.0	30.0	1.4
=	48.0	0.0	30.0	1.4
=	48.1	0.0	30.0	1.4
=	48.4	0.0	30.0	1.4
=	48.6	0.0	30.0	1.4
=	48.8	0.0	30.0	1.4
=	49.0	0.0	30.0	1.4
=	49.2	0.0	30.0	1.4
=	49.4	0.0	30.0	1.4
=	49.6	0.0	30.0	1.4
=	49.8	0.0	30.0	1.4
=	49.9	0.0	30.0	1.4
=	50.0	0.0	30.0	1.4
=	50.3	0.0	30.0	1.3
=	50.5	0.0	30.0	1.3
=	50.6	0.0	30.0	1.3
=	50.7	0.0	30.0	1.3
=	50.9	0.0	30.0	1.3
=	51.0	0.0	30.0	1.3
=	51.2	0.0	30.0	1.3
=	51.4	0.0	30.0	1.3
=	51.6	0.0	30.0	1.3
=	51.7	0.0	30.0	1.3
=	51.8	0.0	30.0	1.3
=	52.0	0.0	30.0	1.3
=	52.1	0.0	30.0	1.3
=	52.3	0.0	30.0	1.3
=	52.4	0.0	30.0	1.3
=	52.5	0.0	30.0	1.3
=	52.6	0.0	30.0	1.3
=	52.8	0.0	30.0	1.3
=	52.9	0.0	30.0	1.3
=	53.0	0.0	30.0	1.3
=	53.2	0.0	30.0	1.3
=	53.3	0.0	30.0	1.3
=	53.4	0.0	30.0	1.3
=	53.5	0.0	30.0	1.3
=	53.7	0.0	30.0	1.3
=	53.8	0.0	30.0	1.3
=	54.0	0.0	30.0	1.3
=	54.1	0.0	30.0	1.2
=	54.3	0.0	30.0	1.2
=	54.5	0.0	30.0	1.2
=	54.7	0.0	30.0	1.2
=	54.8	0.0	30.0	1.2
=	54.9	0.0	30.0	1.2
=	55.1	0.0	30.0	1.2
=	55.3	0.0	30.0	1.2
=	55.5	0.0	30.0	1.2
=	55.7	0.0	30.0	1.2
=	55.9	0.0	30.0	1.2
=	56.0	0.0	30.0	1.2
=	56.2	0.0	30.0	1.2
=	56.4	0.0	30.0	1.2
=	56.6	0.0	30.0	1.2
=	56.7	0.0	30.0	1.2
=	56.8	0.0	30.0	1.2
=	57.0	0.0	30.0	1.2
=	57.1	0.0	30.0	1.2
=	57.2	0.0	30.0	1.2
=	57.4	0.0	30.0	1.2
=	57.6	0.0	30.0	1.2
=	57.8	0.0	30.0	1.2
=	58.0	0.0	30.0	1.1
=	58.1	0.0	30.0	1.1
=	58.3	0.0	30.0	1.1
=	58.4	0.0	30.0	1.1
=	58.5	0.0	30.0	1.1
=	58.7	0.0	30.0	1.1
=	58.8	0.0	30.0	1.1
=	59.0	0.0	30.0	1.1
=	59.2	0.0	30.0	1.1
=	59.4	0.0	30.0	1.1
=	59.5	0.0	30.0	1.1
=	59.6	0.0	30.0	1.1
=	59.7	0.0	30.0	1.1
=	59.8	0.0	30.0	1.1
=	60.0	0.0	30.0	1.1
=	60.1	0.0	30.0	1.1
=	60.2	0.0	30.0	1.1
=	60.3	0.0	30.0	1.1
=	60.5	0.0	30.0	1.1
=	60.6	0.0	30.0	1.1
=	60.8	0.0	30.0	1.1
=	61.0	0.0	30.0	1.1
=	61.2	0.0	30.0	1.1
=	61.4	0.0	30.0	1.1
=	61.5	0.0	30.0	1.1
=	61.6	0.0	30.0	1.1
=	61.8	0.0	30.0	1.1
=	62.0	0.0	30.0	1.1
=	62.2	0.0	30.0	1.1
=	62.4	0.0	30.0	1.1
=	62.5	0.0	30.0	1.1
=	62.7	0.0	30.0	1.0
=	62.8	0.0	30.0	1.0
=	63.0	0.0	30.0	1.0
=	63.2	0.0	30.0	1.0
=	63.4	0.0	30.0	1.0
=	63.6	0.0	30.0	1.0
=	63.7	0.0	30.0	1.0
=	63.8	0.0	30.0	1.0
=	64.0	0.0	30.0	1.0
=	64.1	0.0	30.0	1.0
=	64.4	0.0	30.0	1.0
=	64.5	0.0	30.0	1.0
=	64.7	0.0	30.0	1.0
=	64.8	0.0	30.0	1.0
=	64.9	0.0	30.0	1.0
=	65.1	0.0	30.0	1.0
=	65.2	0.0	30.0	1.0
=	65.3	0.0	30.0	1.0
=	65.4	0.0	30.0	1.0
=	65.6	0.0	30.0	1.0
=	65.8	0.0	30.0	1.0
=	66.0	0.0	30.0	1.0
=	66.1	0.0	30.0	1.0
=	66.2	0.0	30.0	1.0
=	66.5	0.0	30.0	1.0
=	66.6	0.0	30.0	1.0
=	66.8	0.0	30.0	1.0
=	66.9	0.0	30.0	1.0
=	67.1	0.0	30.0	1.0
=	67.3	0.0	30.0	1.0
=	67.5	0.0	30.0	1.0
=	67.6	0.0	30.0	1.0
=	67.8	0.0	30.0	1.0
=	68.0	0.0	30.0	0.9
=	68.2	0.0	30.0	0.9
=	68.3	0.0	30.0	0.9
=	68.4	0.0	30.0	0.9
=	68.6	0.0	30.0	0.9
=	68.7	0.0	30.0	0.9
=	68.8	0.0	30.0	0.9
=	69.0	0.0	30.0	0.9
=	69.2	0.0	30.0	0.9
=	69.3	0.0	30.0	0.9
=	69.4	0.0	30.0	0.9
=	69.6	0.0	30.0	0.9
=	69.7	0.0	30.0	0.9
=	69.9	0.0	30.0	0.9
=	70.0	0.0	30.0	0.9
=	70.2	0.0	30.0	0.9
=	70.3	0.0	30.0	0.9
=	70.5	0.0	30.0	0.9
:EOM # End of Measurement
#
# RFA300 ASCII Measurement Dump ( BDS format )
#
# Measurement number 	2
#
%VNR 1.0
%MOD 	RAT
%TYP 	SCN
%SCN 	PRO
%FLD 	ION
%DAT 	09-23-2011
%TIM 	12:00:00
%FSZ 	040	040
%BMT 	PHO	   15.0
%SSD 	1000
%BUP 	0
%BRD 	1000
%FSH 	1
%ASC 	0
%WEG 	45
%GPO 	0
%CPO 	0
%MEA 	6
%PRD 	50,0
%PTS 	895
%STS 	    -70.9	  0.0	   50.0 # Start Scan values in mm ( X , Y , Z )
%EDS 	    71.0	   0.0	   50.0 # End Scan values in mm ( X , Y , Z )
#
#	  X      Y      Z     Dose
#
=	-70.9	0.0	50.0	1.1
=	-70.7	0.0	50.0	1.1
=	-70.5	0.0	50.0	1.1
=	-70.3	0.0	50.0	1.1
=	-70.1	0.0	50.0	1.1
=	-70.0	0.0	50.0	1.1
=	-69.8	0.0	50.0	1.1
=	-69.6	0.0	50.0	1.1
=	-69.5	0.0	50.0	1.1
=	-69.3	0.0	50.0	1.1
=	-69.2	0.0	50.0	1.1
=	-69.0	0.0	50.0	1.1
=	-68.8	0.0	50.0	1.1
=	-68.6	0.0	50.0	1.1
=	-68.5	0.0	50.0	1.1
=	-68.4	0.0	50.0	1.1
=	-68.3	0.0	50.0	1.1
=	-68.2	0.0	50.0	1.1
=	-68.1	0.0	50.0	1.1
=	-68.0	0.0	50.0	1.1
=	-67.8	0.0	50.0	1.1
=	-67.7	0.0	50.0	1.1
=	-67.6	0.0	50.0	1.1
=	-67.5	0.0	50.0	1.1
=	-67.3	0.0	50.0	1.1
=	-67.1	0.0	50.0	1.1
=	-66.9	0.0	50.0	1.1
=	-66.8	0.0	50.0	1.1
=	-66.6	0.0	50.0	1.1
=	-66.4	0.0	50.0	1.1
=	-66.2	0.0	50.0	1.1
=	-66.0	0.0	50.0	1.1
=	-65.9	0.0	50.0	1.2
=	-65.7	0.0	50.0	1.2
=	-65.6	0.0	50.0	1.2
=	-65.4	0.0	50.0	1.2
=	-65.2	0.0	50.0	1.2
=	-65.0	0.0	50.0	1.2
=	-64.9	0.0	50.0	1.2
=	-64.8	0.0	50.0	1.2
=	-64.6	0.0	50.0	1.2
=	-64.4	0.0	50.0	1.2
=	-64.1	0.0	50.0	1.2
=	-63.9	0.0	50.0	1.2
=	-63.7	0.0	50.0	1.2
=	-63.5	0.0	50.0	1.2
=	-63.3	0.0	50.0	1.2
=	-63.1	0.0	50.0	1.2
=	-62.9	0.0	50.0	1.2
=	-62.7	0.0	50.0	1.2
=	-62.6	0.0	50.0	1.2
=	-62.4	0.0	50.0	1.2
=	-62.2	0.0	50.0	1.2
=	-62.0	0.0	50.0	1.2
=	-61.8	0.0	50.0	1.3
=	-61.6	0.0	50.0	1.3
=	-61.3	0.0	50.0	1.3
=	-61.1	0.0	50.0	1.3
=	-61.0	0.0	50.0	1.3
=	-60.9	0.0	50.0	1.3
=	-60.7	0.0	50.0	1.3
=	-60.5	0.0	50.0	1.3
=	-60.3	0.0	50.0	1.3
=	-60.1	0.0	50.0	1.3
=	-59.9	0.0	50.0	1.3
=	-59.7	0.0	50.0	1.3
=	-59.5	0.0	50.0	1.3
=	-59.3	0.0	50.0	1.3
=	-59.1	0.0	50.0	1.3
=	-59.0	0.0	50.0	1.3
=	-58.9	0.0	50.0	1.3
=	-58.7	0.0	50.0	1.3
=	-58.6	0.0	50.0	1.3
=	-58.5	0.0	50.0	1.3
=	-58.3	0.0	50.0	1.3
=	-58.1	0.0	50.0	1.3
=	-58.0	0.0	50.0	1.3
=	-57.8	0.0	50.0	1.4
=	-57.7	0.0	50.0	1.4
=	-57.5	0.0	50.0	1.4
=	-57.4	0.0	50.0	1.4
=	-57.2	0.0	50.0	1.4
=	-57.1	0.0	50.0	1.4
=	-57.0	0.0	50.0	1.4
=	-56.9	0.0	50.0	1.4
=	-56.7	0.0	50.0	1.4
=	-56.6	0.0	50.0	1.4
=	-56.4	0.0	50.0	1.4
=	-56.2	0.0	50.0	1.4
=	-56.1	0.0	50.0	1.4
=	-56.0	0.0	50.0	1.4
=	-55.9	0.0	50.0	1.4
=	-55.7	0.0	50.0	1.4
=	-55.6	0.0	50.0	1.4
=	-55.5	0.0	50.0	1.4
=	-55.3	0.0	50.0	1.4
=	-55.1	0.0	50.0	1.4
=	-55.0	0.0	50.0	1.4
=	-54.8	0.0	50.0	1.5
=	-54.6	0.0	50.0	1.5
=	-54.4	0.0	50.0	1.5
=	-54.2	0.0	50.0	1.5
=	-54.1	0.0	50.0	1.5
=	-53.9	0.0	50.0	1.5
=	-53.8	0.0	50.0	1.5
=	-53.7	0.0	50.0	1.5
=	-53.5	0.0	50.0	1.5
=	-53.4	0.0	50.0	1.5
=	-53.3	0.0	50.0	1.5
=	-53.1	0.0	50.0	1.5
=	-53.0	0.0	50.0	1.5
=	-52.8	0.0	50.0	1.5
=	-52.6	0.0	50.0	1.5
=	-52.4	0.0	50.0	1.5
=	-52.3	0.0	50.0	1.6
=	-52.2	0.0	50.0	1.6
=	-52.1	0.0	50.0	1.6
=	-51.9	0.0	50.0	1.6
=	-51.7	0.0	50.0	1.6
=	-51.6	0.0	50.0	1.6
=	-51.5	0.0	50.0	1.6
=	-51.4	0.0	50.0	1.6
=	-51.3	0.0	50.0	1.6
=	-51.1	0.0	50.0	1.6
=	-51.0	0.0	50.0	1.6
=	-50.9	0.0	50.0	1.6
=	-50.8	0.0	50.0	1.6
=	-50.6	0.0	50.0	1.6
=	-50.4	0.0	50.0	1.6
=	-50.3	0.0	50.0	1.6
=	-50.2	0.0	50.0	1.6
=	-50.0	0.0	50.0	1.6
=	-49.8	0.0	50.0	1.7
=	-49.7	0.0	50.0	1.7
=	-49.5	0.0	50.0	1.7
=	-49.3	0.0	50.0	1.7
=	-49.1	0.0	50.0	1.7
=	-49.0	0.0	50.0	1.7
=	-48.8	0.0	50.0	1.7
=	-48.7	0.0	50.0	1.7
=	-48.6	0.0	50.0	1.7
=	-48.4	0.0	50.0	1.7
=	-48.3	0.0	50.0	1.7
=	-48.2	0.0	50.0	1.7
=	-48.1	0.0	50.0	1.7
=	-47.9	0.0	50.0	1.7
=	-47.7	0.0	50.0	1.8
=	-47.6	0.0	50.0	1.8
=	-47.4	0.0	50.0	1.8
=	-47.3	0.0	50.0	1.8
=	-47.2	0.0	50.0	1.8
=	-47.1	0.0	50.0	1.8
=	-47.0	0.0	50.0	1.8
=	-46.8	0.0	50.0	1.8
=	-46.7	0.0	50.0	1.8
=	-46.5	0.0	50.0	1.8
=	-46.4	0.0	50.0	1.8
=	-46.3	0.0	50.0	1.9
=	-46.1	0.0	50.0	1.9
=	-45.9	0.0	50.0	1.9
=	-45.7	0.0	50.0	1.9
=	-45.5	0.0	50.0	1.9
=	-45.3	0.0	50.0	2.0
=	-45.2	0.0	50.0	2.0
=	-45.0	0.0	50.0	2.0
=	-44.9	0.0	50.0	2.0
=	-44.8	0.0	50.0	2.0
=	-44.7	0.0	50.0	2.0
=	-44.6	0.0	50.0	2.0
=	-44.5	0.0	50.0	2.0
=	-44.3	0.0	50.0	2.0
=	-44.1	0.0	50.0	2.0
=	-43.9	0.0	50.0	2.1
=	-43.7	0.0	50.0	2.1
=	-43.5	0.0	50.0	2.1
=	-43.4	0.0	50.0	2.1
=	-43.2	0.0	50.0	2.1
=	-43.0	0.0	50.0	2.1
=	-42.8	0.0	50.0	2.2
=	-42.7	0.0	50.0	2.2
=	-42.6	0.0	50.0	2.2
=	-42.4	0.0	50.0	2.2
=	-42.3	0.0	50.0	2.2
=	-42.1	0.0	50.0	2.2
=	-42.0	0.0	50.0	2.2
=	-41.8	0.0	50.0	2.3
=	-41.7	0.0	50.0	2.3
=	-41.5	0.0	50.0	2.3
=	-41.3	0.0	50.0	2.3
=	-41.1	0.0	50.0	2.3
=	-41.0	0.0	50.0	2.3
=	-40.9	0.0	50.0	2.4
=	-40.7	0.0	50.0	2.4
=	-40.6	0.0	50.0	2.4
=	-40.4	0.0	50.0	2.4
=	-40.3	0.0	50.0	2.4
=	-40.2	0.0	50.0	2.4
=	-40.0	0.0	50.0	2.5
=	-39.8	0.0	50.0	2.5
=	-39.6	0.0	50.0	2.5
=	-39.4	0.0	50.0	2.6
=	-39.2	0.0	50.0	2.6
=	-39.0	0.0	50.0	2.6
=	-38.9	0.0	50.0	2.7
=	-38.8	0.0	50.0	2.7
=	-38.6	0.0	50.0	2.7
=	-38.5	0.0	50.0	2.7
=	-38.4	0.0	50.0	2.7
=	-38.2	0.0	50.0	2.8
=	-37.9	0.0	50.0	2.8
=	-37.8	0.0	50.0	2.9
=	-37.6	0.0	50.0	2.9
=	-37.5	0.0	50.0	2.9
=	-37.3	0.0	50.0	2.9
=	-37.1	0.0	50.0	3.0
=	-37.0	0.0	50.0	3.0
=	-36.8	0.0	50.0	3.1
=	-36.6	0.0	50.0	3.1
=	-36.4	0.0	50.0	3.2
=	-36.2	0.0	50.0	3.3
=	-36.0	0.0	50.0	3.3
=	-35.8	0.0	50.0	3.4
=	-35.6	0.0	50.0	3.4
=	-35.4	0.0	50.0	3.4
=	-35.3	0.0	50.0	3.5
=	-35.2	0.0	50.0	3.5
=	-35.0	0.0	50.0	3.5
=	-34.9	0.0	50.0	3.6
=	-34.7	0.0	50.0	3.7
=	-34.6	0.0	50.0	3.7
=	-34.5	0.0	50.0	3.7
=	-34.4	0.0	50.0	3.8
=	-34.2	0.0	50.0	3.8
=	-34.1	0.0	50.0	3.8
=	-34.0	0.0	50.0	3.9
=	-33.8	0.0	50.0	3.9
=	-33.6	0.0	50.0	4.0
=	-33.4	0.0	50.0	4.1
=	-33.3	0.0	50.0	4.1
=	-33.1	0.0	50.0	4.2
=	-32.9	0.0	50.0	4.3
=	-32.7	0.0	50.0	4.4
=	-32.5	0.0	50.0	4.5
=	-32.4	0.0	50.0	4.5
=	-32.3	0.0	50.0	4.6
=	-32.1	0.0	50.0	4.7
=	-31.9	0.0	50.0	4.8
=	-31.8	0.0	50.0	4.9
=	-31.7	0.0	50.0	5.0
=	-31.5	0.0	50.0	5.1
=	-31.3	0.0	50.0	5.3
=	-31.0	0.0	50.0	5.4
=	-30.9	0.0	50.0	5.6
=	-30.6	0.0	50.0	5.7
=	-30.4	0.0	50.0	5.9
=	-30.3	0.0	50.0	6.0
=	-30.1	0.0	50.0	6.2
=	-29.9	0.0	50.0	6.4
=	-29.6	0.0	50.0	6.6
=	-29.5	0.0	50.0	6.7
=	-29.3	0.0	50.0	6.8
=	-29.1	0.0	50.0	7.1
=	-29.0	0.0	50.0	7.2
=	-28.8	0.0	50.0	7.5
=	-28.7	0.0	50.0	7.7
=	-28.4	0.0	50.0	8.0
=	-28.2	0.0	50.0	8.3
=	-28.0	0.0	50.0	8.6
=	-27.9	0.0	50.0	8.9
=	-27.7	0.0	50.0	9.2
=	-27.5	0.0	50.0	9.4
=	-27.4	0.0	50.0	9.6
=	-27.3	0.0	50.0	9.9
=	-27.1	0.0	50.0	10.3
=	-27.0	0.0	50.0	10.5
=	-26.8	0.0	50.0	10.9
=	-26.7	0.0	50.0	11.2
=	-26.5	0.0	50.0	11.7
=	-26.3	0.0	50.0	12.1
=	-26.2	0.0	50.0	12.3
=	-26.0	0.0	50.0	12.7
=	-25.8	0.0	50.0	13.3
=	-25.7	0.0	50.0	13.8
=	-25.5	0.0	50.0	14.5
=	-25.3	0.0	50.0	15.2
=	-25.1	0.0	50.0	16.0
=	-25.0	0.0	50.0	16.4
=	-24.8	0.0	50.0	16.9
=	-24.7	0.0	50.0	17.3
=	-24.6	0.0	50.0	17.9
=	-24.5	0.0	50.0	18.3
=	-24.4	0.0	50.0	18.9
=	-24.2	0.0	50.0	20.1
=	-24.1	0.0	50.0	21.0
=	-23.9	0.0	50.0	22.1
=	-23.7	0.0	50.0	23.1
=	-23.6	0.0	50.0	24.2
=	-23.5	0.0	50.0	25.0
=	-23.3	0.0	50.0	26.2
=	-23.2	0.0	50.0	27.4
=	-23.0	0.0	50.0	28.9
=	-22.9	0.0	50.0	29.9
=	-22.8	0.0	50.0	31.0
=	-22.6	0.0	50.0	33.0
=	-22.4	0.0	50.0	34.7
=	-22.2	0.0	50.0	37.1
=	-22.0	0.0	50.0	39.0
=	-21.9	0.0	50.0	40.1
=	-21.8	0.0	50.0	41.2
=	-21.6	0.0	50.0	42.9
=	-21.5	0.0	50.0	44.3
=	-21.4	0.0	50.0	45.7
=	-21.2	0.0	50.0	47.8
=	-21.0	0.0	50.0	49.7
=	-20.9	0.0	50.0	51.2
=	-20.8	0.0	50.0	53.2
=	-20.6	0.0	50.0	54.6
=	-20.5	0.0	50.0	56.3
=	-20.4	0.0	50.0	57.9
=	-20.2	0.0	50.0	59.6
=	-20.1	0.0	50.0	61.2
=	-19.9	0.0	50.0	63.5
=	-19.8	0.0	50.0	64.7
=	-19.7	0.0	50.0	65.9
=	-19.6	0.0	50.0	67.0
=	-19.4	0.0	50.0	68.5
=	-19.3	0.0	50.0	69.9
=	-19.1	0.0	50.0	71.8
=	-19.0	0.0	50.0	73.2
=	-18.8	0.0	50.0	74.5
=	-18.7	0.0	50.0	76.0
=	-18.6	0.0	50.0	77.0
=	-18.5	0.0	50.0	78.5
=	-18.3	0.0	50.0	79.6
=	-18.2	0.0	50.0	80.8
=	-18.0	0.0	50.0	81.9
=	-17.9	0.0	50.0	83.5
=	-17.7	0.0	50.0	85.2
=	-17.5	0.0	50.0	86.6
=	-17.3	0.0	50.0	88.0
=	-17.1	0.0	50.0	89.2
=	-17.0	0.0	50.0	90.0
=	-16.8	0.0	50.0	90.6
=	-16.7	0.0	50.0	91.2
=	-16.5	0.0	50.0	92.3
=	-16.3	0.0	50.0	93.0
=	-16.2	0.0	50.0	93.5
=	-16.1	0.0	50.0	94.2
=	-15.9	0.0	50.0	94.7
=	-15.8	0.0	50.0	95.0
=	-15.7	0.0	50.0	95.4
=	-15.5	0.0	50.0	96.3
=	-15.3	0.0	50.0	96.9
=	-15.0	0.0	50.0	97.2
=	-14.8	0.0	50.0	98.0
=	-14.7	0.0	50.0	98.2
=	-14.6	0.0	50.0	98.3
=	-14.5	0.0	50.0	98.4
=	-14.4	0.0	50.0	98.5
=	-14.2	0.0	50.0	98.8
=	-14.1	0.0	50.0	99.1
=	-13.9	0.0	50.0	99.5
=	-13.7	0.0	50.0	99.6
=	-13.6	0.0	50.0	99.7
=	-13.4	0.0	50.0	99.9
=	-13.3	0.0	50.0	100.0
=	-13.2	0.0	50.0	100.1
=	-13.1	0.0	50.0	100.2
=	-12.9	0.0	50.0	100.4
=	-12.7	0.0	50.0	100.6
=	-12.5	0.0	50.0	100.8
=	-12.4	0.0	50.0	101.0
=	-12.3	0.0	50.0	101.1
=	-12.1	0.0	50.0	101.2
=	-12.0	0.0	50.0	101.3
=	-11.8	0.0	50.0	101.4
=	-11.6	0.0	50.0	101.5
=	-11.4	0.0	50.0	101.6
=	-11.2	0.0	50.0	101.6
=	-11.1	0.0	50.0	101.7
=	-11.0	0.0	50.0	101.7
=	-10.8	0.0	50.0	101.7
=	-10.6	0.0	50.0	101.8
=	-10.4	0.0	50.0	101.8
=	-10.3	0.0	50.0	101.8
=	-10.2	0.0	50.0	101.9
=	-10.0	0.0	50.0	101.9
=	-9.9	0.0	50.0	101.9
=	-9.7	0.0	50.0	101.9
=	-9.6	0.0	50.0	101.9
=	-9.4	0.0	50.0	102.0
=	-9.2	0.0	50.0	102.0
=	-9.0	0.0	50.0	102.0
=	-8.8	0.0	50.0	102.0
=	-8.6	0.0	50.0	102.0
=	-8.5	0.0	50.0	102.0
=	-8.3	0.0	50.0	102.0
=	-8.1	0.0	50.0	102.0
=	-7.9	0.0	50.0	102.0
=	-7.7	0.0	50.0	102.0
=	-7.6	0.0	50.0	102.0
=	-7.5	0.0	50.0	102.0
=	-7.3	0.0	50.0	102.0
=	-7.1	0.0	50.0	102.0
=	-6.9	0.0	50.0	102.0
=	-6.7	0.0	50.0	102.0
=	-6.6	0.0	50.0	102.0
=	-6.5	0.0	50.0	101.9
=	-6.3	0.0	50.0	101.9
=	-6.1	0.0	50.0	101.8
=	-5.9	0.0	50.0	101.8
=	-5.7	0.0	50.0	101.8
=	-5.5	0.0	50.0	101.8
=	-5.3	0.0	50.0	101.7
=	-5.1	0.0	50.0	101.7
=	-5.0	0.0	50.0	101.7
=	-4.8	0.0	50.0	101.7
=	-4.6	0.0	50.0	101.6
=	-4.5	0.0	50.0	101.5
=	-4.3	0.0	50.0	101.5
=	-4.0	0.0	50.0	101.4
=	-3.8	0.0	50.0	101.3
=	-3.6	0.0	50.0	101.2
=	-3.4	0.0	50.0	101.2
=	-3.2	0.0	50.0	101.1
=	-3.0	0.0	50.0	101.1
=	-2.9	0.0	50.0	101.0
=	-2.8	0.0	50.0	101.0
=	-2.7	0.0	50.0	100.9
=	-2.5	0.0	50.0	100.9
=	-2.4	0.0	50.0	100.8
=	-2.2	0.0	50.0	100.8
=	-2.0	0.0	50.0	100.7
=	-1.8	0.0	50.0	100.6
=	-1.6	0.0	50.0	100.6
=	-1.5	0.0	50.0	100.5
=	-1.4	0.0	50.0	100.5
=	-1.3	0.0	50.0	100.5
=	-1.1	0.0	50.0	100.4
=	-0.9	0.0	50.0	100.4
=	-0.8	0.0	50.0	100.3
=	-0.7	0.0	50.0	100.3
=	-0.5	0.0	50.0	100.2
=	-0.4	0.0	50.0	100.1
=	-0.3	0.0	50.0	100.1
=	-0.1	0.0	50.0	100.1
=	0.0	0.0	50.0	100.0
=	0.1	0.0	50.0	100.0
=	0.2	0.0	50.0	100.0
=	0.4	0.0	50.0	99.8
=	0.5	0.0	50.0	99.8
=	0.6	0.0	50.0	99.7
=	0.8	0.0	50.0	99.6
=	0.9	0.0	50.0	99.6
=	1.0	0.0	50.0	99.6
=	1.2	0.0	50.0	99.5
=	1.4	0.0	50.0	99.4
=	1.6	0.0	50.0	99.3
=	1.8	0.0	50.0	99.3
=	2.0	0.0	50.0	99.2
=	2.2	0.0	50.0	99.1
=	2.3	0.0	50.0	99.1
=	2.4	0.0	50.0	99.0
=	2.6	0.0	50.0	98.9
=	2.9	0.0	50.0	98.9
=	3.0	0.0	50.0	98.8
=	3.2	0.0	50.0	98.6
=	3.4	0.0	50.0	98.5
=	3.6	0.0	50.0	98.4
=	3.7	0.0	50.0	98.4
=	3.9	0.0	50.0	98.3
=	4.0	0.0	50.0	98.3
=	4.1	0.0	50.0	98.2
=	4.3	0.0	50.0	98.1
=	4.4	0.0	50.0	98.1
=	4.5	0.0	50.0	98.1
=	4.6	0.0	50.0	98.0
=	4.7	0.0	50.0	98.0
=	4.8	0.0	50.0	97.9
=	5.0	0.0	50.0	97.9
=	5.1	0.0	50.0	97.8
=	5.3	0.0	50.0	97.7
