:MSR 	1	 # No. of measurement in file
:SYS BDS 0   # Beam Data Scanner System
#
# RFA300 ASCII Measurement Dump ( BDS format )
#
# Measurement number 	1
#
%VNR 1.0
%MOD 	RAT
%TYP 	SCN
%SCN 	DPT
%FLD 	ION
%DAT 	03-02-2012
%TIM 	12:00:00
%FSZ 	150	150
%BMT 	ELE	   12.0
%SSD 	1000
%BUP 	0
%BRD 	1000
%FSH 	1
%ASC 	0
%WEG 	0
%GPO 	0
%CPO 	0
%MEA 	1
%PRD 	0,0
%PTS 	769
%STS 	    0.0	  0.0	   0.0 # Start Scan values in mm ( X , Y , Z )
%EDS 	    0.0	   0.0	   168.2 # End Scan values in mm ( X , Y , Z )
#
#	  X      Y      Z     Dose
#
=	0.0	0.0	0.0	2.4
=	0.0	0.0	0.2	2.4
=	0.0	0.0	0.4	2.4
=	0.0	0.0	0.7	2.4
=	0.0	0.0	0.8	2.4
=	0.0	0.0	1.1	2.4
=	0.0	0.0	1.2	2.4
=	0.0	0.0	1.5	2.4
=	0.0	0.0	1.7	2.4
=	0.0	0.0	1.9	2.4
=	0.0	0.0	2.1	2.4
=	0.0	0.0	2.3	2.4
=	0.0	0.0	2.5	2.4
=	0.0	0.0	2.7	2.4
=	0.0	0.0	2.9	2.4
=	0.0	0.0	3.1	2.4
=	0.0	0.0	3.3	2.4
=	0.0	0.0	3.5	2.4
=	0.0	0.0	3.7	2.4
=	0.0	0.0	3.9	2.4
=	0.0	0.0	4.1	2.4
=	0.0	0.0	4.3	2.4
=	0.0	0.0	4.5	2.4
=	0.0	0.0	4.7	2.4
=	0.0	0.0	4.9	2.4
=	0.0	0.0	5.1	2.4
=	0.0	0.0	5.3	2.4
=	0.0	0.0	5.5	2.4
=	0.0	0.0	5.7	2.4
=	0.0	0.0	5.9	2.4
=	0.0	0.0	6.1	2.4
=	0.0	0.0	6.3	2.4
=	0.0	0.0	6.5	2.4
=	0.0	0.0	6.8	2.4
=	0.0	0.0	6.9	2.4
=	0.0	0.0	7.1	2.4
=	0.0	0.0	7.3	2.4
=	0.0	0.0	7.5	2.4
=	0.0	0.0	7.7	2.4
=	0.0	0.0	7.9	2.4
=	0.0	0.0	8.0	2.4
=	0.0	0.0	8.1	2.4
=	0.0	0.0	8.3	2.4
=	0.0	0.0	8.5	2.4
=	0.0	0.0	8.8	2.4
=	0.0	0.0	8.9	2.4
=	0.0	0.0	9.2	2.4
=	0.0	0.0	9.3	2.4
=	0.0	0.0	9.5	2.4
=	0.0	0.0	9.8	2.4
=	0.0	0.0	9.9	2.4
=	0.0	0.0	10.2	2.4
=	0.0	0.0	10.4	2.4
=	0.0	0.0	10.5	2.4
=	0.0	0.0	10.8	2.4
=	0.0	0.0	10.9	2.4
=	0.0	0.0	11.2	2.3
=	0.0	0.0	11.4	2.3
=	0.0	0.0	11.6	2.3
=	0.0	0.0	11.8	2.3
=	0.0	0.0	12.0	2.3
=	0.0	0.0	12.2	2.3
=	0.0	0.0	12.4	2.3
=	0.0	0.0	12.6	2.3
=	0.0	0.0	12.8	2.3
=	0.0	0.0	13.0	2.3
=	0.0	0.0	13.2	2.3
=	0.0	0.0	13.4	2.3
=	0.0	0.0	13.6	2.3
=	0.0	0.0	13.8	2.3
=	0.0	0.0	14.0	2.3
=	0.0	0.0	14.2	2.3
=	0.0	0.0	14.4	2.3
=	0.0	0.0	14.5	2.3
=	0.0	0.0	14.8	2.3
=	0.0	0.0	15.0	2.3
=	0.0	0.0	15.2	2.3
=	0.0	0.0	15.4	2.3
=	0.0	0.0	15.6	2.3
=	0.0	0.0	15.8	2.3
=	0.0	0.0	16.0	2.3
=	0.0	0.0	16.1	2.3
=	0.0	0.0	16.4	2.2
=	0.0	0.0	16.5	2.2
=	0.0	0.0	16.8	2.2
=	0.0	0.0	16.9	2.2
=	0.0	0.0	17.0	2.2
=	0.0	0.0	17.2	2.2
=	0.0	0.0	17.4	2.2
=	0.0	0.0	17.6	2.2
=	0.0	0.0	17.9	2.2
=	0.0	0.0	18.0	2.2
=	0.0	0.0	18.1	2.2
=	0.0	0.0	18.2	2.2
=	0.0	0.0	18.4	2.2
=	0.0	0.0	18.5	2.2
=	0.0	0.0	18.7	2.2
=	0.0	0.0	18.8	2.2
=	0.0	0.0	18.9	2.2
=	0.0	0.0	19.1	2.2
=	0.0	0.0	19.2	2.2
=	0.0	0.0	19.5	2.2
=	0.0	0.0	19.7	2.2
=	0.0	0.0	19.9	2.2
=	0.0	0.0	20.0	2.2
=	0.0	0.0	20.1	2.2
=	0.0	0.0	20.3	2.2
=	0.0	0.0	20.4	2.2
=	0.0	0.0	20.6	2.2
=	0.0	0.0	20.7	2.2
=	0.0	0.0	20.8	2.2
=	0.0	0.0	21.0	2.2
=	0.0	0.0	21.1	2.1
=	0.0	0.0	21.2	2.1
=	0.0	0.0	21.4	2.1
=	0.0	0.0	21.5	2.1
=	0.0	0.0	21.7	2.1
=	0.0	0.0	21.9	2.1
=	0.0	0.0	22.0	2.1
=	0.0	0.0	22.2	2.1
=	0.0	0.0	22.3	2.1
=	0.0	0.0	22.4	2.1
=	0.0	0.0	22.6	2.1
=	0.0	0.0	22.7	2.1
=	0.0	0.0	22.9	2.1
=	0.0	0.0	23.0	2.1
=	0.0	0.0	23.3	2.1
=	0.0	0.0	23.5	2.1
=	0.0	0.0	23.7	2.1
=	0.0	0.0	23.9	2.1
=	0.0	0.0	24.1	2.1
=	0.0	0.0	24.3	2.1
=	0.0	0.0	24.5	2.1
=	0.0	0.0	24.6	2.1
=	0.0	0.0	24.7	2.1
=	0.0	0.0	24.9	2.1
=	0.0	0.0	25.0	2.1
=	0.0	0.0	25.1	2.1
=	0.0	0.0	25.3	2.1
=	0.0	0.0	25.5	2.1
=	0.0	0.0	25.7	2.1
=	0.0	0.0	25.9	2.1
=	0.0	0.0	26.1	2.1
=	0.0	0.0	26.3	2.0
=	0.0	0.0	26.5	2.0
=	0.0	0.0	26.7	2.0
=	0.0	0.0	26.9	2.0
=	0.0	0.0	27.1	2.0
=	0.0	0.0	27.3	2.0
=	0.0	0.0	27.5	2.0
=	0.0	0.0	27.7	2.0
=	0.0	0.0	27.9	2.0
=	0.0	0.0	28.1	2.0
=	0.0	0.0	28.2	2.0
=	0.0	0.0	28.4	2.0
=	0.0	0.0	28.5	2.0
=	0.0	0.0	28.8	2.0
=	0.0	0.0	28.9	2.0
=	0.0	0.0	29.1	2.0
=	0.0	0.0	29.3	2.0
=	0.0	0.0	29.4	2.0
=	0.0	0.0	29.7	2.0
=	0.0	0.0	29.8	2.0
=	0.0	0.0	30.2	2.0
=	0.0	0.0	30.4	2.0
=	0.0	0.0	30.6	2.0
=	0.0	0.0	30.8	2.0
=	0.0	0.0	31.0	2.0
=	0.0	0.0	31.1	2.0
=	0.0	0.0	31.4	2.0
=	0.0	0.0	31.5	2.0
=	0.0	0.0	31.8	2.0
=	0.0	0.0	31.9	2.0
=	0.0	0.0	32.2	2.0
=	0.0	0.0	32.4	2.0
=	0.0	0.0	32.6	2.0
=	0.0	0.0	32.8	2.0
=	0.0	0.0	33.0	2.0
=	0.0	0.0	33.2	2.0
=	0.0	0.0	33.4	2.0
=	0.0	0.0	33.6	1.9
=	0.0	0.0	33.8	1.9
=	0.0	0.0	34.0	1.9
=	0.0	0.0	34.2	1.9
=	0.0	0.0	34.4	1.9
=	0.0	0.0	34.6	1.9
=	0.0	0.0	34.8	1.9
=	0.0	0.0	35.0	1.9
=	0.0	0.0	35.2	1.9
=	0.0	0.0	35.4	1.9
=	0.0	0.0	35.6	1.9
=	0.0	0.0	35.8	1.9
=	0.0	0.0	36.0	1.9
=	0.0	0.0	36.2	1.9
=	0.0	0.0	36.4	1.9
=	0.0	0.0	36.6	1.9
=	0.0	0.0	36.9	1.9
=	0.0	0.0	37.0	1.9
=	0.0	0.0	37.2	1.9
=	0.0	0.0	37.5	1.9
=	0.0	0.0	37.6	1.9
=	0.0	0.0	37.8	1.9
=	0.0	0.0	38.1	1.9
=	0.0	0.0	38.2	1.9
=	0.0	0.0	38.3	1.9
=	0.0	0.0	38.6	1.9
=	0.0	0.0	38.7	1.9
=	0.0	0.0	39.1	1.9
=	0.0	0.0	39.2	1.9
=	0.0	0.0	39.5	1.9
=	0.0	0.0	39.7	1.9
=	0.0	0.0	39.9	1.9
=	0.0	0.0	40.0	1.9
=	0.0	0.0	40.3	1.9
=	0.0	0.0	40.7	1.9
=	0.0	0.0	41.1	1.8
=	0.0	0.0	41.5	1.8
=	0.0	0.0	41.9	1.8
=	0.0	0.0	42.3	1.8
=	0.0	0.0	42.7	1.8
=	0.0	0.0	42.8	1.8
=	0.0	0.0	43.1	1.8
=	0.0	0.0	43.5	1.8
=	0.0	0.0	43.9	1.8
=	0.0	0.0	44.0	1.8
=	0.0	0.0	44.3	1.8
=	0.0	0.0	44.4	1.8
=	0.0	0.0	44.7	1.8
=	0.0	0.0	44.8	1.8
=	0.0	0.0	45.1	1.8
=	0.0	0.0	45.5	1.8
=	0.0	0.0	45.9	1.8
=	0.0	0.0	46.3	1.8
=	0.0	0.0	46.7	1.8
=	0.0	0.0	46.8	1.8
=	0.0	0.0	47.1	1.8
=	0.0	0.0	47.3	1.8
=	0.0	0.0	47.6	1.8
=	0.0	0.0	48.0	1.7
=	0.0	0.0	48.4	1.7
=	0.0	0.0	48.8	1.7
=	0.0	0.0	48.9	1.7
=	0.0	0.0	49.2	1.7
=	0.0	0.0	49.6	1.7
=	0.0	0.0	50.0	1.7
=	0.0	0.0	50.4	1.7
=	0.0	0.0	50.5	1.7
=	0.0	0.0	50.8	1.7
=	0.0	0.0	50.9	1.7
=	0.0	0.0	51.2	1.7
=	0.0	0.0	51.6	1.7
=	0.0	0.0	52.0	1.7
=	0.0	0.0	52.4	1.7
=	0.0	0.0	52.8	1.7
=	0.0	0.0	53.2	1.7
=	0.0	0.0	53.3	1.7
=	0.0	0.0	53.6	1.7
=	0.0	0.0	54.0	1.7
=	0.0	0.0	54.5	1.7
=	0.0	0.0	54.8	1.6
=	0.0	0.0	55.2	1.6
=	0.0	0.0	55.3	1.6
=	0.0	0.0	55.7	1.6
=	0.0	0.0	56.1	1.6
=	0.0	0.0	56.4	1.6
=	0.0	0.0	56.8	1.6
=	0.0	0.0	57.0	1.6
=	0.0	0.0	57.3	1.6
=	0.0	0.0	57.4	1.6
=	0.0	0.0	57.7	1.6
=	0.0	0.0	57.8	1.6
=	0.0	0.0	58.1	1.6
=	0.0	0.0	58.2	1.6
=	0.0	0.0	58.5	1.6
=	0.0	0.0	58.6	1.6
=	0.0	0.0	58.9	1.6
=	0.0	0.0	59.0	1.6
=	0.0	0.0	59.3	1.6
=	0.0	0.0	59.4	1.6
=	0.0	0.0	59.7	1.6
=	0.0	0.0	59.8	1.6
=	0.0	0.0	60.1	1.6
=	0.0	0.0	60.2	1.6
=	0.0	0.0	60.5	1.6
=	0.0	0.0	60.7	1.6
=	0.0	0.0	60.9	1.6
=	0.0	0.0	61.0	1.6
=	0.0	0.0	61.3	1.6
=	0.0	0.0	61.4	1.6
=	0.0	0.0	61.7	1.6
=	0.0	0.0	62.1	1.6
=	0.0	0.0	62.2	1.6
=	0.0	0.0	62.5	1.6
=	0.0	0.0	62.7	1.6
=	0.0	0.0	62.9	1.6
=	0.0	0.0	63.1	1.6
=	0.0	0.0	63.3	1.6
=	0.0	0.0	63.5	1.6
=	0.0	0.0	63.8	1.6
=	0.0	0.0	63.9	1.6
=	0.0	0.0	64.1	1.6
=	0.0	0.0	64.3	1.6
=	0.0	0.0	64.6	1.6
=	0.0	0.0	64.7	1.5
=	0.0	0.0	64.9	1.5
=	0.0	0.0	65.1	1.5
=	0.0	0.0	65.4	1.5
=	0.0	0.0	65.5	1.5
=	0.0	0.0	65.8	1.5
=	0.0	0.0	65.9	1.5
=	0.0	0.0	66.2	1.5
=	0.0	0.0	66.3	1.5
=	0.0	0.0	66.6	1.5
=	0.0	0.0	66.7	1.5
=	0.0	0.0	67.0	1.5
=	0.0	0.0	67.1	1.5
=	0.0	0.0	67.4	1.5
=	0.0	0.0	67.5	1.5
=	0.0	0.0	67.8	1.5
=	0.0	0.0	67.9	1.5
=	0.0	0.0	68.2	1.5
=	0.0	0.0	68.3	1.5
=	0.0	0.0	68.6	1.5
=	0.0	0.0	68.8	1.5
=	0.0	0.0	69.0	1.5
=	0.0	0.0	69.1	1.5
=	0.0	0.0	69.4	1.5
=	0.0	0.0	69.5	1.5
=	0.0	0.0	69.8	1.5
=	0.0	0.0	69.9	1.5
=	0.0	0.0	70.2	1.5
=	0.0	0.0	70.4	1.5
=	0.0	0.0	70.6	1.5
=	0.0	0.0	70.8	1.5
=	0.0	0.0	71.0	1.5
=	0.0	0.0	71.2	1.5
=	0.0	0.0	71.4	1.5
=	0.0	0.0	71.6	1.5
=	0.0	0.0	71.8	1.5
=	0.0	0.0	72.0	1.5
=	0.0	0.0	72.2	1.5
=	0.0	0.0	72.4	1.5
=	0.0	0.0	72.6	1.5
=	0.0	0.0	72.8	1.4
=	0.0	0.0	73.1	1.4
=	0.0	0.0	73.2	1.4
=	0.0	0.0	73.4	1.4
=	0.0	0.0	73.6	1.4
=	0.0	0.0	73.8	1.4
=	0.0	0.0	74.0	1.4
=	0.0	0.0	74.3	1.4
=	0.0	0.0	74.4	1.4
=	0.0	0.0	74.7	1.4
=	0.0	0.0	74.9	1.4
=	0.0	0.0	75.1	1.4
=	0.0	0.0	75.3	1.4
=	0.0	0.0	75.5	1.4
=	0.0	0.0	75.7	1.4
=	0.0	0.0	75.9	1.4
=	0.0	0.0	76.1	1.4
=	0.0	0.0	76.3	1.4
=	0.0	0.0	76.5	1.4
=	0.0	0.0	76.7	1.4
=	0.0	0.0	76.9	1.4
=	0.0	0.0	77.1	1.4
=	0.0	0.0	77.3	1.4
=	0.0	0.0	77.5	1.4
=	0.0	0.0	77.7	1.4
=	0.0	0.0	77.9	1.4
=	0.0	0.0	78.1	1.4
=	0.0	0.0	78.3	1.4
=	0.0	0.0	78.5	1.4
=	0.0	0.0	78.7	1.4
=	0.0	0.0	78.9	1.4
=	0.0	0.0	79.1	1.4
=	0.0	0.0	79.3	1.4
=	0.0	0.0	79.5	1.4
=	0.0	0.0	79.7	1.4
=	0.0	0.0	79.9	1.4
=	0.0	0.0	80.1	1.4
=	0.0	0.0	80.3	1.4
=	0.0	0.0	80.6	1.4
=	0.0	0.0	80.7	1.4
=	0.0	0.0	81.0	1.4
=	0.0	0.0	81.1	1.4
=	0.0	0.0	81.4	1.4
=	0.0	0.0	81.5	1.4
=	0.0	0.0	81.8	1.4
=	0.0	0.0	81.9	1.4
=	0.0	0.0	82.2	1.4
=	0.0	0.0	82.3	1.4
=	0.0	0.0	82.4	1.4
=	0.0	0.0	82.6	1.4
=	0.0	0.0	82.8	1.4
=	0.0	0.0	82.9	1.4
=	0.0	0.0	83.0	1.4
=	0.0	0.0	83.1	1.4
=	0.0	0.0	83.3	1.4
=	0.0	0.0	83.4	1.4
=	0.0	0.0	83.5	1.4
=	0.0	0.0	83.8	1.4
=	0.0	0.0	84.0	1.4
=	0.0	0.0	84.2	1.4
=	0.0	0.0	84.4	1.4
=	0.0	0.0	84.6	1.4
=	0.0	0.0	84.8	1.3
=	0.0	0.0	84.9	1.3
=	0.0	0.0	85.0	1.3
=	0.0	0.0	85.2	1.3
=	0.0	0.0	85.3	1.3
=	0.0	0.0	85.4	1.3
=	0.0	0.0	85.6	1.3
=	0.0	0.0	85.8	1.3
=	0.0	0.0	86.0	1.3
=	0.0	0.0	86.2	1.3
=	0.0	0.0	86.4	1.3
=	0.0	0.0	86.5	1.3
=	0.0	0.0	86.6	1.3
=	0.0	0.0	86.8	1.3
=	0.0	0.0	86.9	1.3
=	0.0	0.0	87.1	1.3
=	0.0	0.0	87.2	1.3
=	0.0	0.0	87.4	1.3
=	0.0	0.0	87.6	1.3
=	0.0	0.0	87.7	1.3
=	0.0	0.0	87.8	1.3
=	0.0	0.0	88.0	1.3
=	0.0	0.0	88.2	1.3
=	0.0	0.0	88.4	1.3
=	0.0	0.0	88.7	1.3
=	0.0	0.0	88.8	1.3
=	0.0	0.0	88.9	1.3
=	0.0	0.0	89.1	1.3
=	0.0	0.0	89.2	1.3
=	0.0	0.0	89.3	1.3
=	0.0	0.0	89.5	1.3
=	0.0	0.0	89.7	1.3
=	0.0	0.0	89.9	1.3
=	0.0	0.0	90.0	1.3
=	0.0	0.0	90.3	1.3
=	0.0	0.0	90.4	1.3
=	0.0	0.0	90.7	1.3
=	0.0	0.0	90.8	1.3
=	0.0	0.0	90.9	1.3
=	0.0	0.0	91.1	1.3
=	0.0	0.0	91.2	1.3
=	0.0	0.0	91.3	1.3
=	0.0	0.0	91.5	1.3
=	0.0	0.0	91.6	1.3
=	0.0	0.0	91.9	1.3
=	0.0	0.0	92.0	1.3
=	0.0	0.0	92.3	1.3
=	0.0	0.0	92.4	1.3
=	0.0	0.0	92.7	1.3
=	0.0	0.0	93.0	1.3
=	0.0	0.0	93.2	1.3
=	0.0	0.0	93.3	1.3
=	0.0	0.0	93.6	1.3
=	0.0	0.0	93.8	1.3
=	0.0	0.0	94.0	1.3
=	0.0	0.0	94.1	1.3
=	0.0	0.0	94.4	1.3
=	0.0	0.0	94.5	1.3
=	0.0	0.0	94.8	1.3
=	0.0	0.0	94.9	1.3
=	0.0	0.0	95.2	1.2
=	0.0	0.0	95.4	1.2
=	0.0	0.0	95.6	1.2
=	0.0	0.0	95.7	1.2
=	0.0	0.0	96.0	1.2
=	0.0	0.0	96.1	1.2
=	0.0	0.0	96.4	1.2
=	0.0	0.0	96.5	1.2
=	0.0	0.0	96.8	1.2
=	0.0	0.0	96.9	1.2
=	0.0	0.0	97.2	1.2
=	0.0	0.0	97.4	1.2
=	0.0	0.0	97.6	1.2
=	0.0	0.0	97.8	1.2
=	0.0	0.0	98.0	1.2
=	0.0	0.0	98.1	1.2
=	0.0	0.0	98.4	1.2
=	0.0	0.0	98.5	1.2
=	0.0	0.0	98.8	1.2
=	0.0	0.0	99.0	1.2
=	0.0	0.0	99.2	1.2
=	0.0	0.0	99.4	1.2
=	0.0	0.0	99.6	1.2
=	0.0	0.0	99.8	1.2
=	0.0	0.0	100.0	1.2
=	0.0	0.0	100.2	1.2
=	0.0	0.0	100.4	1.2
=	0.0	0.0	100.5	1.2
=	0.0	0.0	100.8	1.2
=	0.0	0.0	100.9	1.2
=	0.0	0.0	101.2	1.2
=	0.0	0.0	101.4	1.2
=	0.0	0.0	101.6	1.2
=	0.0	0.0	101.8	1.2
=	0.0	0.0	102.0	1.2
=	0.0	0.0	102.2	1.2
=	0.0	0.0	102.4	1.2
=	0.0	0.0	102.5	1.2
=	0.0	0.0	102.8	1.2
=	0.0	0.0	103.0	1.2
=	0.0	0.0	103.3	1.2
=	0.0	0.0	103.4	1.2
=	0.0	0.0	103.7	1.2
=	0.0	0.0	103.8	1.2
=	0.0	0.0	104.0	1.2
=	0.0	0.0	104.2	1.2
=	0.0	0.0	104.5	1.2
=	0.0	0.0	104.6	1.2
=	0.0	0.0	104.9	1.2
=	0.0	0.0	105.0	1.2
=	0.0	0.0	105.3	1.2
=	0.0	0.0	105.7	1.2
=	0.0	0.0	105.8	1.2
=	0.0	0.0	106.1	1.2
=	0.0	0.0	106.2	1.2
=	0.0	0.0	106.5	1.2
=	0.0	0.0	106.6	1.2
=	0.0	0.0	106.9	1.2
=	0.0	0.0	107.0	1.2
=	0.0	0.0	107.3	1.2
=	0.0	0.0	107.4	1.2
=	0.0	0.0	107.7	1.2
=	0.0	0.0	107.8	1.2
=	0.0	0.0	108.1	1.2
=	0.0	0.0	108.2	1.1
=	0.0	0.0	108.5	1.1
=	0.0	0.0	108.9	1.1
=	0.0	0.0	109.0	1.1
=	0.0	0.0	109.3	1.1
=	0.0	0.0	109.4	1.1
=	0.0	0.0	109.7	1.1
=	0.0	0.0	109.8	1.1
=	0.0	0.0	110.1	1.1
=	0.0	0.0	110.2	1.1
=	0.0	0.0	110.6	1.1
=	0.0	0.0	111.0	1.1
=	0.0	0.0	111.4	1.1
=	0.0	0.0	111.5	1.1
=	0.0	0.0	111.8	1.1
=	0.0	0.0	111.9	1.1
=	0.0	0.0	112.2	1.1
=	0.0	0.0	112.3	1.1
=	0.0	0.0	112.6	1.1
=	0.0	0.0	113.0	1.1
=	0.0	0.0	113.4	1.1
=	0.0	0.0	113.8	1.1
=	0.0	0.0	114.2	1.1
=	0.0	0.0	114.6	1.1
=	0.0	0.0	115.0	1.1
=	0.0	0.0	115.4	1.1
=	0.0	0.0	115.8	1.1
=	0.0	0.0	116.2	1.1
=	0.0	0.0	116.3	1.1
=	0.0	0.0	116.6	1.1
=	0.0	0.0	117.0	1.1
=	0.0	0.0	117.4	1.1
=	0.0	0.0	117.8	1.1
=	0.0	0.0	118.2	1.1
=	0.0	0.0	118.6	1.1
=	0.0	0.0	119.0	1.1
=	0.0	0.0	119.4	1.1
=	0.0	0.0	119.8	1.1
=	0.0	0.0	120.2	1.1
=	0.0	0.0	120.6	1.1
=	0.0	0.0	121.0	1.1
=	0.0	0.0	121.4	1.1
=	0.0	0.0	121.8	1.1
=	0.0	0.0	122.3	1.1
=	0.0	0.0	122.6	1.1
=	0.0	0.0	123.1	1.1
=	0.0	0.0	123.5	1.1
=	0.0	0.0	123.8	1.0
=	0.0	0.0	124.3	1.0
=	0.0	0.0	124.6	1.0
=	0.0	0.0	124.7	1.0
=	0.0	0.0	125.1	1.0
=	0.0	0.0	125.5	1.0
=	0.0	0.0	125.8	1.0
=	0.0	0.0	126.2	1.0
=	0.0	0.0	126.7	1.0
=	0.0	0.0	127.1	1.0
=	0.0	0.0	127.5	1.0
=	0.0	0.0	127.9	1.0
=	0.0	0.0	128.3	1.0
=	0.0	0.0	128.7	1.0
=	0.0	0.0	129.1	1.0
=	0.0	0.0	129.5	1.0
=	0.0	0.0	129.6	1.0
=	0.0	0.0	129.9	1.0
=	0.0	0.0	130.3	1.0
=	0.0	0.0	130.7	1.0
=	0.0	0.0	130.8	1.0
=	0.0	0.0	131.1	1.0
=	0.0	0.0	131.5	1.0
=	0.0	0.0	131.6	1.0
=	0.0	0.0	131.9	1.0
=	0.0	0.0	132.0	1.0
=	0.0	0.0	132.3	1.0
=	0.0	0.0	132.4	1.0
=	0.0	0.0	132.7	1.0
=	0.0	0.0	132.8	1.0
=	0.0	0.0	133.1	1.0
=	0.0	0.0	133.3	1.0
=	0.0	0.0	133.5	1.0
=	0.0	0.0	133.7	1.0
=	0.0	0.0	133.9	1.0
=	0.0	0.0	134.0	1.0
=	0.0	0.0	134.3	1.0
=	0.0	0.0	134.4	1.0
=	0.0	0.0	134.7	1.0
=	0.0	0.0	135.2	1.0
=	0.0	0.0	135.5	1.0
=	0.0	0.0	135.9	1.0
=	0.0	0.0	136.4	0.9
=	0.0	0.0	136.8	0.9
=	0.0	0.0	136.9	0.9
=	0.0	0.0	137.2	0.9
=	0.0	0.0	137.6	0.9
=	0.0	0.0	137.7	0.9
=	0.0	0.0	138.0	0.9
=	0.0	0.0	138.1	0.9
=	0.0	0.0	138.4	0.9
=	0.0	0.0	138.5	0.9
=	0.0	0.0	138.8	0.9
=	0.0	0.0	138.9	0.9
=	0.0	0.0	139.2	0.9
=	0.0	0.0	139.3	0.9
=	0.0	0.0	139.6	0.9
=	0.0	0.0	139.7	0.9
=	0.0	0.0	140.0	0.9
=	0.0	0.0	140.1	0.9
=	0.0	0.0	140.4	0.9
=	0.0	0.0	140.5	0.9
=	0.0	0.0	140.8	0.9
=	0.0	0.0	140.9	0.9
=	0.0	0.0	141.2	0.9
=	0.0	0.0	141.3	0.9
=	0.0	0.0	141.6	0.9
=	0.0	0.0	141.7	0.9
=	0.0	0.0	142.0	0.9
=	0.0	0.0	142.1	0.9
=	0.0	0.0	142.4	0.9
=	0.0	0.0	142.5	0.9
=	0.0	0.0	142.8	0.9
=	0.0	0.0	143.2	0.9
=	0.0	0.0	143.3	0.9
=	0.0	0.0	143.6	0.9
=	0.0	0.0	143.8	0.9
=	0.0	0.0	144.0	0.9
=	0.0	0.0	144.2	0.9
=	0.0	0.0	144.4	0.9
=	0.0	0.0	144.6	0.9
=	0.0	0.0	144.8	0.9
=	0.0	0.0	145.0	0.9
=	0.0	0.0	145.2	0.9
=	0.0	0.0	145.3	0.9
=	0.0	0.0	145.6	0.9
=	0.0	0.0	145.8	0.9
=	0.0	0.0	146.0	0.9
=	0.0	0.0	146.2	0.9
=	0.0	0.0	146.4	0.9
=	0.0	0.0	146.6	0.9
=	0.0	0.0	146.8	0.9
=	0.0	0.0	147.0	0.9
=	0.0	0.0	147.2	0.9
=	0.0	0.0	147.4	0.9
=	0.0	0.0	147.6	0.9
=	0.0	0.0	147.7	0.9
=	0.0	0.0	148.0	0.9
=	0.0	0.0	148.2	0.9
=	0.0	0.0	148.5	0.9
=	0.0	0.0	148.6	0.9
=	0.0	0.0	148.8	0.9
=	0.0	0.0	149.0	0.9
=	0.0	0.0	149.2	0.9
=	0.0	0.0	149.4	0.9
=	0.0	0.0	149.6	0.9
=	0.0	0.0	149.8	0.9
=	0.0	0.0	150.0	0.9
=	0.0	0.0	150.2	0.9
=	0.0	0.0	150.5	0.9
=	0.0	0.0	150.6	0.9
=	0.0	0.0	150.9	0.9
=	0.0	0.0	151.0	0.9
=	0.0	0.0	151.3	0.9
=	0.0	0.0	151.4	0.9
=	0.0	0.0	151.7	0.9
=	0.0	0.0	151.8	0.9
=	0.0	0.0	152.0	0.9
=	0.0	0.0	152.2	0.9
=	0.0	0.0	152.4	0.9
=	0.0	0.0	152.6	0.9
=	0.0	0.0	152.9	0.9
=	0.0	0.0	153.0	0.9
=	0.0	0.0	153.3	0.9
=	0.0	0.0	153.4	0.9
=	0.0	0.0	153.7	0.9
=	0.0	0.0	153.8	0.9
=	0.0	0.0	154.0	0.8
=	0.0	0.0	154.3	0.8
=	0.0	0.0	154.5	0.8
=	0.0	0.0	154.7	0.8
=	0.0	0.0	154.9	0.8
=	0.0	0.0	155.1	0.8
=	0.0	0.0	155.3	0.8
=	0.0	0.0	155.5	0.8
=	0.0	0.0	155.7	0.8
=	0.0	0.0	155.9	0.8
=	0.0	0.0	156.1	0.8
=	0.0	0.0	156.3	0.8
=	0.0	0.0	156.5	0.8
=	0.0	0.0	156.7	0.8
=	0.0	0.0	156.9	0.8
=	0.0	0.0	157.1	0.8
=	0.0	0.0	157.3	0.8
=	0.0	0.0	157.5	0.8
=	0.0	0.0	157.7	0.8
=	0.0	0.0	157.9	0.8
=	0.0	0.0	158.1	0.8
=	0.0	0.0	158.3	0.8
=	0.0	0.0	158.5	0.8
=	0.0	0.0	158.7	0.8
=	0.0	0.0	158.9	0.8
=	0.0	0.0	159.1	0.8
=	0.0	0.0	159.3	0.8
=	0.0	0.0	159.5	0.8
=	0.0	0.0	159.8	0.8
=	0.0	0.0	159.9	0.8
=	0.0	0.0	160.1	0.8
=	0.0	0.0	160.3	0.8
=	0.0	0.0	160.5	0.8
=	0.0	0.0	160.7	0.8
=	0.0	0.0	160.9	0.8
=	0.0	0.0	161.1	0.8
=	0.0	0.0	161.3	0.8
=	0.0	0.0	161.6	0.8
=	0.0	0.0	161.7	0.8
=	0.0	0.0	161.9	0.8
=	0.0	0.0	162.1	0.8
=	0.0	0.0	162.4	0.8
=	0.0	0.0	162.5	0.8
=	0.0	0.0	162.7	0.8
=	0.0	0.0	162.9	0.8
=	0.0	0.0	163.2	0.8
=	0.0	0.0	163.4	0.8
=	0.0	0.0	163.6	0.8
=	0.0	0.0	163.8	0.8
=	0.0	0.0	164.0	0.8
=	0.0	0.0	164.2	0.8
=	0.0	0.0	164.4	0.8
=	0.0	0.0	164.5	0.8
=	0.0	0.0	164.8	0.8
=	0.0	0.0	165.0	0.8
=	0.0	0.0	165.2	0.8
=	0.0	0.0	165.3	0.8
=	0.0	0.0	165.5	0.8
=	0.0	0.0	165.8	0.8
=	0.0	0.0	166.2	0.8
=	0.0	0.0	166.5	0.8
=	0.0	0.0	166.7	0.8
=	0.0	0.0	166.9	0.8
=	0.0	0.0	167.2	0.8
=	0.0	0.0	167.9	0.8
=	0.0	0.0	168.2	0.8
:EOM # End of Measurement

:EOF # End of File