:MSR 	1	 # No. of measurement in file
:SYS BDS 0   # Beam Data Scanner System
#
# RFA300 ASCII Measurement Dump ( BDS format )
#
# Measurement number 	1
#
%VNR 1.0
%MOD 	RAT
%TYP 	SCN
%SCN 	DPT
%FLD 	ION
%DAT 	03-02-2012
%TIM 	12:00:00
%FSZ 	150	150
%BMT 	ELE	   15.0
%SSD 	1000
%BUP 	0
%BRD 	1000
%FSH 	1
%ASC 	0
%WEG 	0
%GPO 	0
%CPO 	0
%MEA 	1
%PRD 	0,0
%PTS 	946
%STS 	    0.0	  0.0	   0.0 # Start Scan values in mm ( X , Y , Z )
%EDS 	    0.0	   0.0	   198.2 # End Scan values in mm ( X , Y , Z )
#
#	  X      Y      Z     Dose
#
=	0.0	0.0	0.0	4.0
=	0.0	0.0	0.2	4.0
=	0.0	0.0	0.6	4.0
=	0.0	0.0	0.7	4.0
=	0.0	0.0	1.0	4.0
=	0.0	0.0	1.1	4.1
=	0.0	0.0	1.4	4.1
=	0.0	0.0	1.6	4.1
=	0.0	0.0	1.8	4.1
=	0.0	0.0	2.0	4.1
=	0.0	0.0	2.2	4.1
=	0.0	0.0	2.3	4.1
=	0.0	0.0	2.6	4.1
=	0.0	0.0	2.7	4.1
=	0.0	0.0	3.1	4.1
=	0.0	0.0	3.2	4.1
=	0.0	0.0	3.4	4.1
=	0.0	0.0	3.6	4.1
=	0.0	0.0	3.8	4.1
=	0.0	0.0	4.0	4.1
=	0.0	0.0	4.2	4.1
=	0.0	0.0	4.4	4.1
=	0.0	0.0	4.7	4.1
=	0.0	0.0	4.8	4.1
=	0.0	0.0	5.1	4.1
=	0.0	0.0	5.2	4.1
=	0.0	0.0	5.5	4.1
=	0.0	0.0	5.6	4.1
=	0.0	0.0	5.9	4.1
=	0.0	0.0	6.0	4.1
=	0.0	0.0	6.3	4.1
=	0.0	0.0	6.4	4.1
=	0.0	0.0	6.7	4.1
=	0.0	0.0	7.1	4.1
=	0.0	0.0	7.5	4.1
=	0.0	0.0	7.7	4.1
=	0.0	0.0	7.9	4.1
=	0.0	0.0	8.0	4.0
=	0.0	0.0	8.3	4.0
=	0.0	0.0	8.4	4.0
=	0.0	0.0	8.8	4.0
=	0.0	0.0	9.1	4.0
=	0.0	0.0	9.5	4.0
=	0.0	0.0	9.7	4.0
=	0.0	0.0	9.9	4.0
=	0.0	0.0	10.1	4.0
=	0.0	0.0	10.3	4.0
=	0.0	0.0	10.5	4.0
=	0.0	0.0	10.8	4.0
=	0.0	0.0	10.9	4.0
=	0.0	0.0	11.1	3.9
=	0.0	0.0	11.3	3.9
=	0.0	0.0	11.6	3.9
=	0.0	0.0	11.7	3.9
=	0.0	0.0	11.9	3.9
=	0.0	0.0	12.1	3.9
=	0.0	0.0	12.3	3.9
=	0.0	0.0	12.5	3.9
=	0.0	0.0	12.8	3.9
=	0.0	0.0	12.9	3.9
=	0.0	0.0	13.2	3.9
=	0.0	0.0	13.3	3.9
=	0.0	0.0	13.6	3.9
=	0.0	0.0	13.7	3.9
=	0.0	0.0	14.0	3.8
=	0.0	0.0	14.1	3.8
=	0.0	0.0	14.4	3.8
=	0.0	0.0	14.5	3.8
=	0.0	0.0	14.8	3.8
=	0.0	0.0	15.2	3.8
=	0.0	0.0	15.3	3.8
=	0.0	0.0	15.6	3.8
=	0.0	0.0	15.7	3.8
=	0.0	0.0	16.0	3.8
=	0.0	0.0	16.2	3.8
=	0.0	0.0	16.4	3.8
=	0.0	0.0	16.6	3.8
=	0.0	0.0	16.8	3.7
=	0.0	0.0	16.9	3.7
=	0.0	0.0	17.2	3.7
=	0.0	0.0	17.4	3.7
=	0.0	0.0	17.6	3.7
=	0.0	0.0	17.8	3.7
=	0.0	0.0	18.0	3.7
=	0.0	0.0	18.1	3.7
=	0.0	0.0	18.4	3.7
=	0.0	0.0	18.6	3.7
=	0.0	0.0	18.8	3.7
=	0.0	0.0	19.0	3.7
=	0.0	0.0	19.3	3.6
=	0.0	0.0	19.4	3.6
=	0.0	0.0	19.6	3.6
=	0.0	0.0	19.8	3.6
=	0.0	0.0	20.0	3.6
=	0.0	0.0	20.2	3.6
=	0.0	0.0	20.4	3.6
=	0.0	0.0	20.6	3.6
=	0.0	0.0	20.8	3.6
=	0.0	0.0	21.0	3.6
=	0.0	0.0	21.3	3.6
=	0.0	0.0	21.4	3.6
=	0.0	0.0	21.7	3.6
=	0.0	0.0	21.8	3.5
=	0.0	0.0	22.0	3.5
=	0.0	0.0	22.2	3.5
=	0.0	0.0	22.4	3.5
=	0.0	0.0	22.6	3.5
=	0.0	0.0	22.9	3.5
=	0.0	0.0	23.0	3.5
=	0.0	0.0	23.3	3.5
=	0.0	0.0	23.4	3.5
=	0.0	0.0	23.7	3.5
=	0.0	0.0	23.8	3.5
=	0.0	0.0	24.1	3.5
=	0.0	0.0	24.3	3.5
=	0.0	0.0	24.5	3.5
=	0.0	0.0	24.6	3.5
=	0.0	0.0	24.9	3.5
=	0.0	0.0	25.1	3.5
=	0.0	0.0	25.3	3.5
=	0.0	0.0	25.4	3.5
=	0.0	0.0	25.7	3.5
=	0.0	0.0	25.9	3.4
=	0.0	0.0	26.1	3.4
=	0.0	0.0	26.3	3.4
=	0.0	0.0	26.5	3.4
=	0.0	0.0	26.7	3.4
=	0.0	0.0	26.9	3.4
=	0.0	0.0	27.0	3.4
=	0.0	0.0	27.3	3.4
=	0.0	0.0	27.5	3.4
=	0.0	0.0	27.7	3.4
=	0.0	0.0	27.9	3.4
=	0.0	0.0	28.1	3.4
=	0.0	0.0	28.3	3.4
=	0.0	0.0	28.5	3.4
=	0.0	0.0	28.6	3.4
=	0.0	0.0	28.9	3.3
=	0.0	0.0	29.1	3.3
=	0.0	0.0	29.3	3.3
=	0.0	0.0	29.5	3.3
=	0.0	0.0	29.7	3.3
=	0.0	0.0	29.9	3.3
=	0.0	0.0	30.1	3.3
=	0.0	0.0	30.3	3.3
=	0.0	0.0	30.5	3.3
=	0.0	0.0	30.7	3.3
=	0.0	0.0	30.9	3.3
=	0.0	0.0	31.1	3.3
=	0.0	0.0	31.4	3.3
=	0.0	0.0	31.5	3.3
=	0.0	0.0	31.8	3.3
=	0.0	0.0	31.9	3.3
=	0.0	0.0	32.2	3.3
=	0.0	0.0	32.3	3.3
=	0.0	0.0	32.6	3.3
=	0.0	0.0	32.7	3.3
=	0.0	0.0	33.0	3.2
=	0.0	0.0	33.1	3.2
=	0.0	0.0	33.4	3.2
=	0.0	0.0	33.5	3.2
=	0.0	0.0	33.8	3.2
=	0.0	0.0	34.0	3.2
=	0.0	0.0	34.2	3.2
=	0.0	0.0	34.4	3.2
=	0.0	0.0	34.6	3.2
=	0.0	0.0	34.8	3.2
=	0.0	0.0	35.0	3.2
=	0.0	0.0	35.2	3.2
=	0.0	0.0	35.4	3.2
=	0.0	0.0	35.5	3.2
=	0.0	0.0	35.8	3.2
=	0.0	0.0	35.9	3.2
=	0.0	0.0	36.2	3.2
=	0.0	0.0	36.4	3.1
=	0.0	0.0	36.6	3.1
=	0.0	0.0	36.8	3.1
=	0.0	0.0	37.0	3.1
=	0.0	0.0	37.2	3.1
=	0.0	0.0	37.4	3.1
=	0.0	0.0	37.6	3.1
=	0.0	0.0	37.8	3.1
=	0.0	0.0	37.9	3.1
=	0.0	0.0	38.2	3.1
=	0.0	0.0	38.3	3.1
=	0.0	0.0	38.4	3.1
=	0.0	0.0	38.6	3.1
=	0.0	0.0	38.7	3.1
=	0.0	0.0	39.1	3.1
=	0.0	0.0	39.2	3.1
=	0.0	0.0	39.5	3.1
=	0.0	0.0	39.6	3.1
=	0.0	0.0	39.8	3.1
=	0.0	0.0	40.0	3.1
=	0.0	0.0	40.2	3.1
=	0.0	0.0	40.4	3.1
=	0.0	0.0	40.5	3.1
=	0.0	0.0	40.7	3.1
=	0.0	0.0	40.8	3.0
=	0.0	0.0	40.9	3.0
=	0.0	0.0	41.2	3.0
=	0.0	0.0	41.4	3.0
=	0.0	0.0	41.6	3.0
=	0.0	0.0	41.8	3.0
=	0.0	0.0	42.0	3.0
=	0.0	0.0	42.2	3.0
=	0.0	0.0	42.4	3.0
=	0.0	0.0	42.6	3.0
=	0.0	0.0	42.9	3.0
=	0.0	0.0	43.0	3.0
=	0.0	0.0	43.2	3.0
=	0.0	0.0	43.4	3.0
=	0.0	0.0	43.5	3.0
=	0.0	0.0	43.7	3.0
=	0.0	0.0	43.8	3.0
=	0.0	0.0	43.9	3.0
=	0.0	0.0	44.0	3.0
=	0.0	0.0	44.2	3.0
=	0.0	0.0	44.4	3.0
=	0.0	0.0	44.6	3.0
=	0.0	0.0	44.9	3.0
=	0.0	0.0	45.0	3.0
=	0.0	0.0	45.3	3.0
=	0.0	0.0	45.4	3.0
=	0.0	0.0	45.7	2.9
=	0.0	0.0	45.8	2.9
=	0.0	0.0	46.1	2.9
=	0.0	0.0	46.2	2.9
=	0.0	0.0	46.5	2.9
=	0.0	0.0	46.6	2.9
=	0.0	0.0	46.9	2.9
=	0.0	0.0	47.0	2.9
=	0.0	0.0	47.3	2.9
=	0.0	0.0	47.4	2.9
=	0.0	0.0	47.7	2.9
=	0.0	0.0	47.9	2.9
=	0.0	0.0	48.1	2.9
=	0.0	0.0	48.3	2.9
=	0.0	0.0	48.5	2.9
=	0.0	0.0	48.7	2.9
=	0.0	0.0	48.9	2.9
=	0.0	0.0	49.1	2.9
=	0.0	0.0	49.3	2.9
=	0.0	0.0	49.5	2.9
=	0.0	0.0	49.7	2.9
=	0.0	0.0	49.9	2.9
=	0.0	0.0	50.1	2.9
=	0.0	0.0	50.3	2.9
=	0.0	0.0	50.6	2.9
=	0.0	0.0	50.7	2.9
=	0.0	0.0	50.9	2.8
=	0.0	0.0	51.1	2.8
=	0.0	0.0	51.3	2.8
=	0.0	0.0	51.5	2.8
=	0.0	0.0	51.8	2.8
=	0.0	0.0	51.9	2.8
=	0.0	0.0	52.2	2.8
=	0.0	0.0	52.3	2.8
=	0.0	0.0	52.6	2.8
=	0.0	0.0	52.7	2.8
=	0.0	0.0	53.0	2.8
=	0.0	0.0	53.1	2.8
=	0.0	0.0	53.3	2.8
=	0.0	0.0	53.5	2.8
=	0.0	0.0	53.8	2.8
=	0.0	0.0	53.9	2.8
=	0.0	0.0	54.2	2.8
=	0.0	0.0	54.3	2.8
=	0.0	0.0	54.6	2.8
=	0.0	0.0	54.7	2.8
=	0.0	0.0	55.0	2.8
=	0.0	0.0	55.1	2.8
=	0.0	0.0	55.4	2.7
=	0.0	0.0	55.5	2.7
=	0.0	0.0	55.8	2.7
=	0.0	0.0	56.0	2.7
=	0.0	0.0	56.2	2.7
=	0.0	0.0	56.4	2.7
=	0.0	0.0	56.6	2.7
=	0.0	0.0	56.7	2.7
=	0.0	0.0	56.9	2.7
=	0.0	0.0	57.0	2.7
=	0.0	0.0	57.1	2.7
=	0.0	0.0	57.3	2.7
=	0.0	0.0	57.4	2.7
=	0.0	0.0	57.6	2.7
=	0.0	0.0	57.8	2.7
=	0.0	0.0	58.0	2.7
=	0.0	0.0	58.2	2.7
=	0.0	0.0	58.4	2.7
=	0.0	0.0	58.7	2.7
=	0.0	0.0	58.8	2.7
=	0.0	0.0	58.9	2.7
=	0.0	0.0	59.1	2.7
=	0.0	0.0	59.3	2.7
=	0.0	0.0	59.5	2.7
=	0.0	0.0	59.6	2.7
=	0.0	0.0	59.7	2.7
=	0.0	0.0	59.9	2.6
=	0.0	0.0	60.0	2.6
=	0.0	0.0	60.1	2.6
=	0.0	0.0	60.3	2.6
=	0.0	0.0	60.4	2.6
=	0.0	0.0	60.5	2.6
=	0.0	0.0	60.7	2.6
=	0.0	0.0	60.9	2.6
=	0.0	0.0	61.1	2.6
=	0.0	0.0	61.3	2.6
=	0.0	0.0	61.5	2.6
=	0.0	0.0	61.6	2.6
=	0.0	0.0	61.9	2.6
=	0.0	0.0	62.0	2.6
=	0.0	0.0	62.1	2.6
=	0.0	0.0	62.3	2.6
=	0.0	0.0	62.4	2.6
=	0.0	0.0	62.5	2.6
=	0.0	0.0	62.7	2.6
=	0.0	0.0	62.8	2.6
=	0.0	0.0	63.0	2.6
=	0.0	0.0	63.1	2.6
=	0.0	0.0	63.2	2.6
=	0.0	0.0	63.4	2.6
=	0.0	0.0	63.5	2.6
=	0.0	0.0	63.7	2.6
=	0.0	0.0	63.9	2.6
=	0.0	0.0	64.0	2.6
=	0.0	0.0	64.2	2.6
=	0.0	0.0	64.3	2.6
=	0.0	0.0	64.4	2.6
=	0.0	0.0	64.6	2.6
=	0.0	0.0	64.7	2.6
=	0.0	0.0	64.8	2.6
=	0.0	0.0	65.0	2.6
=	0.0	0.0	65.1	2.5
=	0.0	0.0	65.4	2.5
=	0.0	0.0	65.5	2.5
=	0.0	0.0	65.8	2.5
=	0.0	0.0	65.9	2.5
=	0.0	0.0	66.1	2.5
=	0.0	0.0	66.2	2.5
=	0.0	0.0	66.3	2.5
=	0.0	0.0	66.5	2.5
=	0.0	0.0	66.6	2.5
=	0.0	0.0	66.7	2.5
=	0.0	0.0	67.0	2.5
=	0.0	0.0	67.2	2.5
=	0.0	0.0	67.3	2.5
=	0.0	0.0	67.4	2.5
=	0.0	0.0	67.6	2.5
=	0.0	0.0	67.7	2.5
=	0.0	0.0	67.8	2.5
=	0.0	0.0	68.0	2.5
=	0.0	0.0	68.1	2.5
=	0.0	0.0	68.2	2.5
=	0.0	0.0	68.4	2.5
=	0.0	0.0	68.5	2.5
=	0.0	0.0	68.6	2.5
=	0.0	0.0	68.8	2.5
=	0.0	0.0	68.9	2.5
=	0.0	0.0	69.0	2.5
=	0.0	0.0	69.2	2.5
=	0.0	0.0	69.4	2.5
=	0.0	0.0	69.6	2.5
=	0.0	0.0	69.7	2.5
=	0.0	0.0	69.8	2.5
=	0.0	0.0	70.0	2.5
=	0.0	0.0	70.1	2.5
=	0.0	0.0	70.2	2.5
=	0.0	0.0	70.4	2.5
=	0.0	0.0	70.5	2.5
=	0.0	0.0	70.6	2.5
=	0.0	0.0	70.8	2.5
=	0.0	0.0	71.0	2.5
=	0.0	0.0	71.2	2.5
=	0.0	0.0	71.5	2.4
=	0.0	0.0	71.6	2.4
=	0.0	0.0	71.9	2.4
=	0.0	0.0	72.0	2.4
=	0.0	0.0	72.1	2.4
=	0.0	0.0	72.3	2.4
=	0.0	0.0	72.4	2.4
=	0.0	0.0	72.7	2.4
=	0.0	0.0	72.8	2.4
=	0.0	0.0	73.1	2.4
=	0.0	0.0	73.3	2.4
=	0.0	0.0	73.5	2.4
=	0.0	0.0	73.7	2.4
=	0.0	0.0	73.9	2.4
=	0.0	0.0	74.1	2.4
=	0.0	0.0	74.3	2.4
=	0.0	0.0	74.5	2.4
=	0.0	0.0	74.7	2.4
=	0.0	0.0	74.9	2.4
=	0.0	0.0	75.1	2.4
=	0.0	0.0	75.2	2.4
=	0.0	0.0	75.5	2.4
=	0.0	0.0	75.7	2.4
=	0.0	0.0	75.9	2.4
=	0.0	0.0	76.1	2.4
=	0.0	0.0	76.4	2.4
=	0.0	0.0	76.5	2.4
=	0.0	0.0	76.8	2.4
=	0.0	0.0	76.9	2.4
=	0.0	0.0	77.2	2.4
=	0.0	0.0	77.3	2.4
=	0.0	0.0	77.6	2.4
=	0.0	0.0	77.7	2.4
=	0.0	0.0	78.0	2.4
=	0.0	0.0	78.2	2.4
=	0.0	0.0	78.4	2.3
=	0.0	0.0	78.5	2.3
=	0.0	0.0	78.8	2.3
=	0.0	0.0	78.9	2.3
=	0.0	0.0	79.2	2.3
=	0.0	0.0	79.3	2.3
=	0.0	0.0	79.6	2.3
=	0.0	0.0	79.8	2.3
=	0.0	0.0	80.0	2.3
=	0.0	0.0	80.1	2.3
=	0.0	0.0	80.4	2.3
=	0.0	0.0	80.5	2.3
=	0.0	0.0	80.8	2.3
=	0.0	0.0	80.9	2.3
=	0.0	0.0	81.2	2.3
=	0.0	0.0	81.3	2.3
=	0.0	0.0	81.6	2.3
=	0.0	0.0	81.7	2.3
=	0.0	0.0	82.0	2.3
=	0.0	0.0	82.1	2.3
=	0.0	0.0	82.4	2.3
=	0.0	0.0	82.5	2.3
=	0.0	0.0	82.8	2.3
=	0.0	0.0	83.0	2.3
=	0.0	0.0	83.2	2.2
=	0.0	0.0	83.4	2.2
=	0.0	0.0	83.6	2.2
=	0.0	0.0	83.7	2.2
=	0.0	0.0	84.0	2.2
=	0.0	0.0	84.4	2.2
=	0.0	0.0	84.5	2.2
=	0.0	0.0	84.8	2.2
=	0.0	0.0	85.0	2.2
=	0.0	0.0	85.2	2.2
=	0.0	0.0	85.4	2.2
=	0.0	0.0	85.6	2.2
=	0.0	0.0	85.8	2.2
=	0.0	0.0	86.1	2.2
=	0.0	0.0	86.2	2.2
=	0.0	0.0	86.4	2.2
=	0.0	0.0	86.6	2.2
=	0.0	0.0	86.8	2.2
=	0.0	0.0	86.9	2.2
=	0.0	0.0	87.2	2.2
=	0.0	0.0	87.4	2.2
=	0.0	0.0	87.7	2.2
=	0.0	0.0	87.8	2.2
=	0.0	0.0	88.1	2.2
=	0.0	0.0	88.5	2.2
=	0.0	0.0	88.6	2.2
=	0.0	0.0	88.9	2.2
=	0.0	0.0	89.0	2.2
=	0.0	0.0	89.3	2.2
=	0.0	0.0	89.4	2.2
=	0.0	0.0	89.7	2.2
=	0.0	0.0	89.8	2.2
=	0.0	0.0	90.1	2.2
=	0.0	0.0	90.5	2.2
=	0.0	0.0	90.6	2.2
=	0.0	0.0	90.9	2.2
=	0.0	0.0	91.0	2.1
=	0.0	0.0	91.3	2.1
=	0.0	0.0	91.4	2.1
=	0.0	0.0	91.7	2.1
=	0.0	0.0	91.8	2.1
=	0.0	0.0	92.1	2.1
=	0.0	0.0	92.5	2.1
=	0.0	0.0	92.9	2.1
=	0.0	0.0	93.0	2.1
=	0.0	0.0	93.3	2.1
=	0.0	0.0	93.4	2.1
=	0.0	0.0	93.7	2.1
=	0.0	0.0	93.9	2.1
=	0.0	0.0	94.1	2.1
=	0.0	0.0	94.5	2.1
=	0.0	0.0	94.6	2.1
=	0.0	0.0	94.9	2.1
=	0.0	0.0	95.1	2.1
=	0.0	0.0	95.3	2.1
=	0.0	0.0	95.4	2.1
=	0.0	0.0	95.7	2.1
=	0.0	0.0	95.8	2.1
=	0.0	0.0	96.2	2.1
=	0.0	0.0	96.5	2.1
=	0.0	0.0	97.0	2.1
=	0.0	0.0	97.1	2.1
=	0.0	0.0	97.3	2.1
=	0.0	0.0	97.5	2.1
=	0.0	0.0	97.7	2.1
=	0.0	0.0	97.9	2.1
=	0.0	0.0	98.2	2.1
=	0.0	0.0	98.3	2.0
=	0.0	0.0	98.6	2.0
=	0.0	0.0	98.7	2.0
=	0.0	0.0	98.9	2.0
=	0.0	0.0	99.1	2.0
=	0.0	0.0	99.3	2.0
=	0.0	0.0	99.5	2.0
=	0.0	0.0	99.8	2.0
=	0.0	0.0	99.9	2.0
=	0.0	0.0	100.2	2.0
=	0.0	0.0	100.3	2.0
=	0.0	0.0	100.6	2.0
=	0.0	0.0	100.7	2.0
=	0.0	0.0	101.0	2.0
=	0.0	0.0	101.1	2.0
=	0.0	0.0	101.4	2.0
=	0.0	0.0	101.5	2.0
=	0.0	0.0	101.8	2.0
=	0.0	0.0	101.9	2.0
=	0.0	0.0	102.2	2.0
=	0.0	0.0	102.3	2.0
=	0.0	0.0	102.6	2.0
=	0.0	0.0	102.8	2.0
=	0.0	0.0	103.0	2.0
=	0.0	0.0	103.1	2.0
=	0.0	0.0	103.4	2.0
=	0.0	0.0	103.5	2.0
=	0.0	0.0	103.8	2.0
=	0.0	0.0	103.9	2.0
=	0.0	0.0	104.2	2.0
=	0.0	0.0	104.3	2.0
=	0.0	0.0	104.6	2.0
=	0.0	0.0	104.7	2.0
=	0.0	0.0	105.0	2.0
=	0.0	0.0	105.2	2.0
=	0.0	0.0	105.4	2.0
=	0.0	0.0	105.6	2.0
=	0.0	0.0	105.8	1.9
=	0.0	0.0	105.9	1.9
=	0.0	0.0	106.2	1.9
=	0.0	0.0	106.3	1.9
=	0.0	0.0	106.7	1.9
=	0.0	0.0	106.8	1.9
=	0.0	0.0	107.0	1.9
=	0.0	0.0	107.1	1.9
=	0.0	0.0	107.4	1.9
=	0.0	0.0	107.6	1.9
=	0.0	0.0	107.8	1.9
=	0.0	0.0	108.0	1.9
=	0.0	0.0	108.2	1.9
=	0.0	0.0	108.4	1.9
=	0.0	0.0	108.7	1.9
=	0.0	0.0	108.8	1.9
=	0.0	0.0	109.0	1.9
=	0.0	0.0	109.1	1.9
=	0.0	0.0	109.4	1.9
=	0.0	0.0	109.6	1.9
=	0.0	0.0	109.8	1.9
=	0.0	0.0	110.0	1.9
=	0.0	0.0	110.2	1.9
=	0.0	0.0	110.3	1.9
=	0.0	0.0	110.6	1.9
=	0.0	0.0	110.7	1.9
=	0.0	0.0	110.8	1.9
=	0.0	0.0	111.1	1.9
=	0.0	0.0	111.2	1.9
=	0.0	0.0	111.4	1.9
=	0.0	0.0	111.6	1.9
=	0.0	0.0	111.8	1.9
=	0.0	0.0	112.0	1.9
=	0.0	0.0	112.3	1.9
=	0.0	0.0	112.4	1.9
=	0.0	0.0	112.7	1.9
=	0.0	0.0	112.8	1.9
=	0.0	0.0	113.0	1.9
=	0.0	0.0	113.2	1.9
=	0.0	0.0	113.5	1.9
=	0.0	0.0	113.6	1.9
=	0.0	0.0	113.9	1.9
=	0.0	0.0	114.0	1.9
=	0.0	0.0	114.3	1.9
=	0.0	0.0	114.4	1.9
=	0.0	0.0	114.7	1.9
=	0.0	0.0	114.8	1.9
=	0.0	0.0	114.9	1.9
=	0.0	0.0	115.1	1.8
=	0.0	0.0	115.2	1.8
=	0.0	0.0	115.3	1.8
=	0.0	0.0	115.5	1.8
=	0.0	0.0	115.6	1.8
=	0.0	0.0	115.9	1.8
=	0.0	0.0	116.0	1.8
=	0.0	0.0	116.3	1.8
=	0.0	0.0	116.4	1.8
=	0.0	0.0	116.7	1.8
=	0.0	0.0	116.8	1.8
=	0.0	0.0	116.9	1.8
=	0.0	0.0	117.1	1.8
=	0.0	0.0	117.2	1.8
=	0.0	0.0	117.5	1.8
=	0.0	0.0	117.6	1.8
=	0.0	0.0	117.9	1.8
=	0.0	0.0	118.0	1.8
=	0.0	0.0	118.3	1.8
=	0.0	0.0	118.4	1.8
=	0.0	0.0	118.5	1.8
=	0.0	0.0	118.7	1.8
=	0.0	0.0	118.8	1.8
=	0.0	0.0	119.0	1.8
=	0.0	0.0	119.1	1.8
=	0.0	0.0	119.2	1.8
=	0.0	0.0	119.4	1.8
=	0.0	0.0	119.5	1.8
=	0.0	0.0	119.6	1.8
=	0.0	0.0	119.8	1.8
=	0.0	0.0	119.9	1.8
=	0.0	0.0	120.1	1.8
=	0.0	0.0	120.2	1.8
=	0.0	0.0	120.3	1.8
=	0.0	0.0	120.5	1.8
=	0.0	0.0	120.6	1.8
=	0.0	0.0	120.7	1.8
=	0.0	0.0	120.8	1.8
=	0.0	0.0	121.0	1.8
=	0.0	0.0	121.1	1.8
=	0.0	0.0	121.2	1.8
=	0.0	0.0	121.4	1.8
=	0.0	0.0	121.5	1.8
=	0.0	0.0	121.7	1.8
=	0.0	0.0	121.8	1.8
=	0.0	0.0	121.9	1.8
=	0.0	0.0	122.1	1.8
=	0.0	0.0	122.2	1.8
=	0.0	0.0	122.3	1.8
=	0.0	0.0	122.5	1.8
=	0.0	0.0	122.6	1.8
=	0.0	0.0	122.9	1.8
=	0.0	0.0	123.0	1.8
=	0.0	0.0	123.1	1.8
=	0.0	0.0	123.3	1.8
=	0.0	0.0	123.4	1.8
=	0.0	0.0	123.7	1.8
=	0.0	0.0	123.8	1.8
=	0.0	0.0	124.1	1.7
=	0.0	0.0	124.2	1.7
=	0.0	0.0	124.5	1.7
=	0.0	0.0	124.6	1.7
=	0.0	0.0	124.9	1.7
=	0.0	0.0	125.0	1.7
=	0.0	0.0	125.2	1.7
=	0.0	0.0	125.3	1.7
=	0.0	0.0	125.5	1.7
=	0.0	0.0	125.7	1.7
=	0.0	0.0	125.9	1.7
=	0.0	0.0	126.1	1.7
=	0.0	0.0	126.3	1.7
=	0.0	0.0	126.5	1.7
=	0.0	0.0	126.6	1.7
=	0.0	0.0	126.8	1.7
=	0.0	0.0	126.9	1.7
=	0.0	0.0	127.0	1.7
=	0.0	0.0	127.2	1.7
=	0.0	0.0	127.3	1.7
=	0.0	0.0	127.5	1.7
=	0.0	0.0	127.7	1.7
=	0.0	0.0	127.9	1.7
=	0.0	0.0	128.1	1.7
=	0.0	0.0	128.3	1.7
=	0.0	0.0	128.5	1.7
=	0.0	0.0	128.7	1.7
=	0.0	0.0	128.9	1.7
=	0.0	0.0	129.1	1.7
=	0.0	0.0	129.3	1.7
=	0.0	0.0	129.5	1.7
=	0.0	0.0	129.7	1.7
=	0.0	0.0	129.9	1.7
=	0.0	0.0	130.1	1.7
=	0.0	0.0	130.3	1.7
=	0.0	0.0	130.5	1.7
=	0.0	0.0	130.7	1.7
=	0.0	0.0	130.9	1.7
=	0.0	0.0	131.1	1.7
=	0.0	0.0	131.3	1.7
=	0.0	0.0	131.5	1.7
=	0.0	0.0	131.7	1.7
=	0.0	0.0	131.9	1.7
=	0.0	0.0	132.1	1.7
=	0.0	0.0	132.3	1.6
=	0.0	0.0	132.5	1.6
=	0.0	0.0	132.7	1.6
=	0.0	0.0	132.9	1.6
=	0.0	0.0	133.1	1.6
=	0.0	0.0	133.3	1.6
=	0.0	0.0	133.6	1.6
=	0.0	0.0	133.7	1.6
=	0.0	0.0	134.0	1.6
=	0.0	0.0	134.2	1.6
=	0.0	0.0	134.4	1.6
=	0.0	0.0	134.5	1.6
=	0.0	0.0	134.7	1.6
=	0.0	0.0	134.9	1.6
=	0.0	0.0	135.2	1.6
=	0.0	0.0	135.3	1.6
=	0.0	0.0	135.6	1.6
=	0.0	0.0	135.7	1.6
=	0.0	0.0	136.0	1.6
=	0.0	0.0	136.1	1.6
=	0.0	0.0	136.4	1.6
=	0.0	0.0	136.5	1.6
=	0.0	0.0	136.8	1.6
=	0.0	0.0	136.9	1.6
=	0.0	0.0	137.2	1.6
=	0.0	0.0	137.3	1.6
=	0.0	0.0	137.6	1.6
=	0.0	0.0	137.8	1.6
=	0.0	0.0	138.0	1.6
=	0.0	0.0	138.1	1.6
=	0.0	0.0	138.4	1.6
=	0.0	0.0	138.5	1.6
=	0.0	0.0	138.8	1.6
=	0.0	0.0	139.0	1.6
=	0.0	0.0	139.2	1.6
=	0.0	0.0	139.4	1.6
=	0.0	0.0	139.6	1.6
=	0.0	0.0	139.8	1.6
=	0.0	0.0	140.0	1.6
=	0.0	0.0	140.2	1.6
=	0.0	0.0	140.4	1.6
=	0.0	0.0	140.6	1.6
=	0.0	0.0	140.8	1.6
=	0.0	0.0	141.0	1.6
=	0.0	0.0	141.2	1.6
=	0.0	0.0	141.3	1.6
=	0.0	0.0	141.6	1.6
=	0.0	0.0	141.8	1.6
=	0.0	0.0	142.0	1.6
=	0.0	0.0	142.2	1.6
=	0.0	0.0	142.4	1.6
=	0.0	0.0	142.6	1.6
=	0.0	0.0	142.8	1.6
=	0.0	0.0	143.0	1.6
=	0.0	0.0	143.2	1.6
=	0.0	0.0	143.4	1.6
=	0.0	0.0	143.7	1.6
=	0.0	0.0	143.8	1.6
=	0.0	0.0	144.1	1.6
=	0.0	0.0	144.5	1.6
=	0.0	0.0	144.6	1.6
=	0.0	0.0	144.9	1.5
=	0.0	0.0	145.0	1.5
=	0.0	0.0	145.2	1.5
=	0.0	0.0	145.4	1.5
=	0.0	0.0	145.7	1.5
=	0.0	0.0	145.8	1.5
=	0.0	0.0	146.0	1.5
=	0.0	0.0	146.2	1.5
=	0.0	0.0	146.5	1.5
=	0.0	0.0	146.6	1.5
=	0.0	0.0	146.9	1.5
=	0.0	0.0	147.0	1.5
=	0.0	0.0	147.3	1.5
=	0.0	0.0	147.4	1.5
=	0.0	0.0	147.7	1.5
=	0.0	0.0	147.8	1.5
=	0.0	0.0	148.1	1.5
=	0.0	0.0	148.2	1.5
=	0.0	0.0	148.5	1.5
=	0.0	0.0	148.6	1.5
=	0.0	0.0	148.9	1.5
=	0.0	0.0	149.0	1.5
=	0.0	0.0	149.3	1.5
=	0.0	0.0	149.4	1.5
=	0.0	0.0	149.7	1.5
=	0.0	0.0	150.1	1.5
=	0.0	0.0	150.2	1.5
=	0.0	0.0	150.5	1.5
=	0.0	0.0	150.7	1.5
=	0.0	0.0	150.9	1.5
=	0.0	0.0	151.3	1.5
=	0.0	0.0	151.7	1.5
=	0.0	0.0	152.1	1.5
=	0.0	0.0	152.2	1.5
=	0.0	0.0	152.5	1.5
=	0.0	0.0	152.7	1.5
=	0.0	0.0	153.0	1.5
=	0.0	0.0	153.4	1.5
=	0.0	0.0	153.8	1.5
=	0.0	0.0	154.2	1.5
=	0.0	0.0	154.6	1.5
=	0.0	0.0	155.0	1.4
=	0.0	0.0	155.4	1.4
=	0.0	0.0	155.8	1.4
=	0.0	0.0	156.2	1.4
=	0.0	0.0	156.6	1.4
=	0.0	0.0	157.0	1.4
=	0.0	0.0	157.4	1.4
=	0.0	0.0	157.8	1.4
=	0.0	0.0	158.2	1.4
=	0.0	0.0	158.6	1.4
=	0.0	0.0	159.0	1.4
=	0.0	0.0	159.4	1.4
=	0.0	0.0	159.9	1.4
=	0.0	0.0	160.2	1.4
=	0.0	0.0	160.6	1.4
=	0.0	0.0	161.0	1.4
=	0.0	0.0	161.5	1.4
=	0.0	0.0	161.9	1.4
=	0.0	0.0	162.3	1.4
=	0.0	0.0	162.7	1.4
=	0.0	0.0	163.1	1.4
=	0.0	0.0	163.5	1.4
=	0.0	0.0	163.9	1.4
=	0.0	0.0	164.3	1.4
=	0.0	0.0	164.6	1.4
=	0.0	0.0	165.1	1.4
=	0.0	0.0	165.5	1.4
=	0.0	0.0	165.9	1.4
=	0.0	0.0	166.3	1.4
=	0.0	0.0	166.7	1.4
=	0.0	0.0	167.1	1.4
=	0.0	0.0	167.5	1.3
=	0.0	0.0	167.9	1.3
=	0.0	0.0	168.3	1.3
=	0.0	0.0	168.7	1.3
=	0.0	0.0	169.1	1.3
=	0.0	0.0	169.5	1.3
=	0.0	0.0	169.6	1.3
=	0.0	0.0	169.9	1.3
=	0.0	0.0	170.0	1.3
=	0.0	0.0	170.3	1.3
=	0.0	0.0	170.4	1.3
=	0.0	0.0	170.7	1.3
=	0.0	0.0	170.8	1.3
=	0.0	0.0	171.1	1.3
=	0.0	0.0	171.5	1.3
=	0.0	0.0	171.9	1.3
=	0.0	0.0	172.0	1.3
=	0.0	0.0	172.3	1.3
=	0.0	0.0	172.4	1.3
=	0.0	0.0	172.7	1.3
=	0.0	0.0	172.9	1.3
=	0.0	0.0	173.2	1.3
=	0.0	0.0	173.6	1.3
=	0.0	0.0	174.0	1.3
=	0.0	0.0	174.4	1.3
=	0.0	0.0	174.8	1.3
=	0.0	0.0	175.2	1.3
=	0.0	0.0	175.6	1.3
=	0.0	0.0	176.0	1.3
=	0.0	0.0	176.4	1.3
=	0.0	0.0	176.8	1.3
=	0.0	0.0	176.9	1.3
=	0.0	0.0	177.2	1.3
=	0.0	0.0	177.3	1.3
=	0.0	0.0	177.6	1.3
=	0.0	0.0	177.7	1.3
=	0.0	0.0	178.0	1.3
=	0.0	0.0	178.4	1.3
=	0.0	0.0	178.8	1.3
=	0.0	0.0	179.2	1.3
=	0.0	0.0	179.6	1.2
=	0.0	0.0	179.7	1.2
=	0.0	0.0	180.0	1.2
=	0.0	0.0	180.4	1.2
=	0.0	0.0	180.8	1.2
=	0.0	0.0	180.9	1.2
=	0.0	0.0	181.2	1.2
=	0.0	0.0	181.4	1.2
=	0.0	0.0	181.6	1.2
=	0.0	0.0	181.8	1.2
=	0.0	0.0	182.1	1.2
=	0.0	0.0	182.2	1.2
=	0.0	0.0	182.4	1.2
=	0.0	0.0	182.6	1.2
=	0.0	0.0	182.8	1.2
=	0.0	0.0	183.0	1.2
=	0.0	0.0	183.3	1.2
=	0.0	0.0	183.6	1.2
=	0.0	0.0	183.7	1.2
=	0.0	0.0	184.0	1.2
=	0.0	0.0	184.2	1.2
=	0.0	0.0	184.4	1.2
=	0.0	0.0	184.6	1.2
=	0.0	0.0	184.8	1.2
=	0.0	0.0	185.0	1.2
=	0.0	0.0	185.3	1.2
=	0.0	0.0	185.4	1.2
=	0.0	0.0	185.7	1.2
=	0.0	0.0	185.8	1.2
=	0.0	0.0	186.0	1.2
=	0.0	0.0	186.2	1.2
=	0.0	0.0	186.4	1.2
=	0.0	0.0	186.6	1.2
=	0.0	0.0	186.9	1.2
=	0.0	0.0	187.0	1.2
=	0.0	0.0	187.2	1.2
=	0.0	0.0	187.4	1.2
=	0.0	0.0	187.7	1.2
=	0.0	0.0	187.8	1.2
=	0.0	0.0	188.1	1.2
=	0.0	0.0	188.2	1.2
=	0.0	0.0	188.5	1.2
=	0.0	0.0	188.6	1.2
=	0.0	0.0	188.8	1.2
=	0.0	0.0	189.0	1.2
=	0.0	0.0	189.3	1.2
=	0.0	0.0	189.4	1.2
=	0.0	0.0	189.7	1.2
=	0.0	0.0	189.9	1.2
=	0.0	0.0	190.1	1.2
=	0.0	0.0	190.2	1.2
=	0.0	0.0	190.5	1.2
=	0.0	0.0	190.7	1.2
=	0.0	0.0	190.9	1.2
=	0.0	0.0	191.1	1.2
=	0.0	0.0	191.3	1.2
=	0.0	0.0	191.4	1.2
=	0.0	0.0	191.7	1.2
=	0.0	0.0	191.9	1.2
=	0.0	0.0	192.1	1.2
=	0.0	0.0	192.3	1.2
=	0.0	0.0	192.5	1.2
=	0.0	0.0	192.6	1.2
=	0.0	0.0	192.9	1.2
=	0.0	0.0	193.1	1.2
=	0.0	0.0	193.3	1.2
=	0.0	0.0	193.5	1.2
=	0.0	0.0	193.7	1.2
=	0.0	0.0	193.9	1.2
=	0.0	0.0	194.1	1.2
=	0.0	0.0	194.4	1.2
=	0.0	0.0	194.6	1.2
=	0.0	0.0	194.8	1.2
=	0.0	0.0	194.9	1.2
=	0.0	0.0	195.1	1.2
=	0.0	0.0	195.3	1.2
=	0.0	0.0	195.4	1.2
=	0.0	0.0	195.7	1.1
=	0.0	0.0	196.1	1.1
=	0.0	0.0	196.5	1.1
=	0.0	0.0	196.6	1.1
=	0.0	0.0	196.8	1.1
=	0.0	0.0	197.1	1.1
=	0.0	0.0	197.2	1.1
=	0.0	0.0	197.8	1.1
=	0.0	0.0	198.2	1.1
:EOM # End of Measurement

:EOF # End of File