:MSR 	5	 # No. of measurement in file
:SYS BDS 0   # Beam Data Scanner System
#
# RFA300 ASCII Measurement Dump ( BDS format )
#
# Measurement number 	1
#
%VNR 1.0
%MOD 	RAT
%TYP 	SCN
%SCN 	PRO
%FLD 	ION
%DAT 	10-14-2011
%TIM 	12:00:00
%FSZ 	400	300
%BMT 	PHO	   6.0
%SSD 	1000
%BUP 	0
%BRD 	1000
%FSH 	1
%ASC 	0
%WEG 	30
%GPO 	0
%CPO 	0
%MEA 	6
%PRD 	15,0
%PTS 	831
%STS 	    0.0	  -252.8	   15.0 # Start Scan values in mm ( X , Y , Z )
%EDS 	    0.0	   252.5	   15.0 # End Scan values in mm ( X , Y , Z )
#
#	  X      Y      Z     Dose
#
=	0.0	-252.8	15.0	10.7
=	0.0	-252.2	15.0	10.8
=	0.0	-251.5	15.0	10.9
=	0.0	-250.9	15.0	10.9
=	0.0	-250.3	15.0	10.9
=	0.0	-249.7	15.0	11.0
=	0.0	-249.2	15.0	11.0
=	0.0	-248.6	15.0	11.1
=	0.0	-248.1	15.0	11.1
=	0.0	-247.5	15.0	11.2
=	0.0	-247.0	15.0	11.2
=	0.0	-246.4	15.0	11.3
=	0.0	-245.7	15.0	11.3
=	0.0	-245.1	15.0	11.4
=	0.0	-244.5	15.0	11.4
=	0.0	-243.9	15.0	11.5
=	0.0	-243.4	15.0	11.5
=	0.0	-242.8	15.0	11.6
=	0.0	-242.2	15.0	11.6
=	0.0	-241.6	15.0	11.7
=	0.0	-240.9	15.0	11.7
=	0.0	-240.2	15.0	11.8
=	0.0	-239.6	15.0	11.8
=	0.0	-239.0	15.0	11.9
=	0.0	-238.4	15.0	11.9
=	0.0	-237.7	15.0	12.0
=	0.0	-237.0	15.0	12.0
=	0.0	-236.4	15.0	12.1
=	0.0	-235.7	15.0	12.2
=	0.0	-235.2	15.0	12.2
=	0.0	-234.4	15.0	12.3
=	0.0	-233.6	15.0	12.4
=	0.0	-233.0	15.0	12.4
=	0.0	-232.5	15.0	12.5
=	0.0	-231.8	15.0	12.6
=	0.0	-231.3	15.0	12.6
=	0.0	-230.6	15.0	12.7
=	0.0	-230.0	15.0	12.8
=	0.0	-229.5	15.0	12.8
=	0.0	-228.9	15.0	12.9
=	0.0	-228.2	15.0	13.0
=	0.0	-227.8	15.0	13.0
=	0.0	-227.2	15.0	13.1
=	0.0	-226.5	15.0	13.2
=	0.0	-225.7	15.0	13.3
=	0.0	-225.2	15.0	13.4
=	0.0	-224.6	15.0	13.5
=	0.0	-224.0	15.0	13.6
=	0.0	-223.5	15.0	13.6
=	0.0	-222.8	15.0	13.7
=	0.0	-222.2	15.0	13.8
=	0.0	-221.5	15.0	13.9
=	0.0	-221.0	15.0	14.0
=	0.0	-220.4	15.0	14.1
=	0.0	-219.9	15.0	14.2
=	0.0	-219.4	15.0	14.3
=	0.0	-218.9	15.0	14.4
=	0.0	-218.2	15.0	14.5
=	0.0	-217.6	15.0	14.6
=	0.0	-217.1	15.0	14.7
=	0.0	-216.5	15.0	14.8
=	0.0	-215.7	15.0	15.0
=	0.0	-214.9	15.0	15.2
=	0.0	-214.2	15.0	15.5
=	0.0	-213.5	15.0	15.6
=	0.0	-212.9	15.0	15.8
=	0.0	-212.4	15.0	16.0
=	0.0	-211.9	15.0	16.3
=	0.0	-211.2	15.0	16.6
=	0.0	-210.7	15.0	17.0
=	0.0	-209.9	15.0	17.7
=	0.0	-209.4	15.0	18.3
=	0.0	-208.8	15.0	19.4
=	0.0	-208.2	15.0	20.7
=	0.0	-207.5	15.0	22.8
=	0.0	-206.8	15.0	25.5
=	0.0	-206.0	15.0	29.6
=	0.0	-205.4	15.0	33.6
=	0.0	-204.8	15.0	37.7
=	0.0	-204.1	15.0	42.8
=	0.0	-203.4	15.0	47.9
=	0.0	-202.9	15.0	52.9
=	0.0	-202.3	15.0	57.6
=	0.0	-201.7	15.0	63.1
=	0.0	-200.9	15.0	69.5
=	0.0	-200.1	15.0	75.4
=	0.0	-199.5	15.0	79.7
=	0.0	-198.9	15.0	82.8
=	0.0	-198.2	15.0	85.3
=	0.0	-197.6	15.0	87.3
=	0.0	-197.0	15.0	88.6
=	0.0	-196.3	15.0	89.7
=	0.0	-195.6	15.0	90.6
=	0.0	-195.0	15.0	91.2
=	0.0	-194.4	15.0	91.6
=	0.0	-193.9	15.0	92.0
=	0.0	-193.4	15.0	92.3
=	0.0	-192.6	15.0	92.5
=	0.0	-192.0	15.0	92.7
=	0.0	-191.3	15.0	92.8
=	0.0	-190.8	15.0	93.0
=	0.0	-190.0	15.0	93.2
=	0.0	-189.4	15.0	93.3
=	0.0	-188.9	15.0	93.4
=	0.0	-188.3	15.0	93.5
=	0.0	-187.7	15.0	93.6
=	0.0	-187.2	15.0	93.6
=	0.0	-186.5	15.0	93.7
=	0.0	-186.0	15.0	93.8
=	0.0	-185.5	15.0	93.9
=	0.0	-184.8	15.0	94.0
=	0.0	-184.1	15.0	94.1
=	0.0	-183.5	15.0	94.1
=	0.0	-182.8	15.0	94.2
=	0.0	-182.3	15.0	94.2
=	0.0	-181.8	15.0	94.3
=	0.0	-181.2	15.0	94.4
=	0.0	-180.6	15.0	94.5
=	0.0	-180.1	15.0	94.6
=	0.0	-179.5	15.0	94.6
=	0.0	-179.0	15.0	94.7
=	0.0	-178.6	15.0	94.7
=	0.0	-177.9	15.0	94.8
=	0.0	-177.2	15.0	94.9
=	0.0	-176.5	15.0	95.0
=	0.0	-175.9	15.0	95.0
=	0.0	-175.1	15.0	95.1
=	0.0	-174.5	15.0	95.2
=	0.0	-173.9	15.0	95.2
=	0.0	-173.4	15.0	95.3
=	0.0	-172.8	15.0	95.3
=	0.0	-172.3	15.0	95.4
=	0.0	-171.6	15.0	95.5
=	0.0	-170.9	15.0	95.6
=	0.0	-170.4	15.0	95.6
=	0.0	-169.9	15.0	95.6
=	0.0	-169.3	15.0	95.7
=	0.0	-168.8	15.0	95.8
=	0.0	-168.2	15.0	95.8
=	0.0	-167.6	15.0	95.9
=	0.0	-167.0	15.0	95.9
=	0.0	-166.4	15.0	96.0
=	0.0	-165.8	15.0	96.0
=	0.0	-165.2	15.0	96.0
=	0.0	-164.7	15.0	96.1
=	0.0	-164.1	15.0	96.1
=	0.0	-163.3	15.0	96.2
=	0.0	-162.6	15.0	96.3
=	0.0	-162.0	15.0	96.3
=	0.0	-161.3	15.0	96.4
=	0.0	-160.5	15.0	96.4
=	0.0	-159.9	15.0	96.5
=	0.0	-159.3	15.0	96.5
=	0.0	-158.6	15.0	96.6
=	0.0	-157.8	15.0	96.6
=	0.0	-157.0	15.0	96.7
=	0.0	-156.3	15.0	96.7
=	0.0	-155.7	15.0	96.7
=	0.0	-155.1	15.0	96.7
=	0.0	-154.6	15.0	96.8
=	0.0	-154.0	15.0	96.9
=	0.0	-153.4	15.0	97.0
=	0.0	-152.6	15.0	97.0
=	0.0	-152.0	15.0	97.1
=	0.0	-151.4	15.0	97.1
=	0.0	-150.8	15.0	97.1
=	0.0	-150.3	15.0	97.2
=	0.0	-149.7	15.0	97.2
=	0.0	-149.0	15.0	97.3
=	0.0	-148.5	15.0	97.3
=	0.0	-147.9	15.0	97.3
=	0.0	-147.4	15.0	97.4
=	0.0	-146.8	15.0	97.4
=	0.0	-146.3	15.0	97.4
=	0.0	-145.8	15.0	97.4
=	0.0	-145.2	15.0	97.4
=	0.0	-144.5	15.0	97.5
=	0.0	-143.9	15.0	97.5
=	0.0	-143.3	15.0	97.5
=	0.0	-142.7	15.0	97.5
=	0.0	-142.0	15.0	97.6
=	0.0	-141.5	15.0	97.6
=	0.0	-140.9	15.0	97.6
=	0.0	-140.2	15.0	97.7
=	0.0	-139.7	15.0	97.7
=	0.0	-139.1	15.0	97.8
=	0.0	-138.6	15.0	97.8
=	0.0	-138.0	15.0	97.9
=	0.0	-137.4	15.0	97.9
=	0.0	-136.9	15.0	97.9
=	0.0	-136.2	15.0	98.0
=	0.0	-135.4	15.0	98.0
=	0.0	-134.8	15.0	98.0
=	0.0	-134.2	15.0	98.1
=	0.0	-133.5	15.0	98.1
=	0.0	-132.8	15.0	98.1
=	0.0	-132.2	15.0	98.2
=	0.0	-131.6	15.0	98.2
=	0.0	-131.0	15.0	98.3
=	0.0	-130.3	15.0	98.3
=	0.0	-129.6	15.0	98.3
=	0.0	-129.0	15.0	98.3
=	0.0	-128.4	15.0	98.4
=	0.0	-127.8	15.0	98.4
=	0.0	-127.1	15.0	98.4
=	0.0	-126.4	15.0	98.5
=	0.0	-125.7	15.0	98.5
=	0.0	-125.1	15.0	98.6
=	0.0	-124.5	15.0	98.6
=	0.0	-123.9	15.0	98.6
=	0.0	-123.4	15.0	98.6
=	0.0	-122.8	15.0	98.6
=	0.0	-122.2	15.0	98.7
=	0.0	-121.6	15.0	98.7
=	0.0	-121.0	15.0	98.8
=	0.0	-120.3	15.0	98.8
=	0.0	-119.6	15.0	98.9
=	0.0	-118.9	15.0	98.9
=	0.0	-118.3	15.0	98.9
=	0.0	-117.8	15.0	98.9
=	0.0	-117.2	15.0	98.9
=	0.0	-116.6	15.0	99.0
=	0.0	-116.0	15.0	99.0
=	0.0	-115.2	15.0	99.0
=	0.0	-114.4	15.0	99.0
=	0.0	-113.7	15.0	99.1
=	0.0	-112.9	15.0	99.1
=	0.0	-112.4	15.0	99.1
=	0.0	-111.9	15.0	99.2
=	0.0	-111.3	15.0	99.2
=	0.0	-110.8	15.0	99.2
=	0.0	-110.3	15.0	99.3
=	0.0	-109.8	15.0	99.3
=	0.0	-109.0	15.0	99.4
=	0.0	-108.4	15.0	99.4
=	0.0	-107.8	15.0	99.4
=	0.0	-107.1	15.0	99.4
=	0.0	-106.4	15.0	99.4
=	0.0	-105.7	15.0	99.5
=	0.0	-105.0	15.0	99.5
=	0.0	-104.4	15.0	99.5
=	0.0	-103.9	15.0	99.5
=	0.0	-103.3	15.0	99.5
=	0.0	-102.8	15.0	99.6
=	0.0	-102.3	15.0	99.6
=	0.0	-101.6	15.0	99.6
=	0.0	-101.0	15.0	99.6
=	0.0	-100.5	15.0	99.7
=	0.0	-99.8	15.0	99.7
=	0.0	-99.2	15.0	99.7
=	0.0	-98.6	15.0	99.8
=	0.0	-98.1	15.0	99.8
=	0.0	-97.6	15.0	99.8
=	0.0	-97.1	15.0	99.8
=	0.0	-96.4	15.0	99.8
=	0.0	-95.9	15.0	99.8
=	0.0	-95.3	15.0	99.8
=	0.0	-94.6	15.0	99.9
=	0.0	-94.0	15.0	99.9
=	0.0	-93.4	15.0	99.9
=	0.0	-92.8	15.0	99.9
=	0.0	-92.1	15.0	100.0
=	0.0	-91.4	15.0	100.0
=	0.0	-90.8	15.0	100.0
=	0.0	-90.2	15.0	100.0
=	0.0	-89.5	15.0	100.0
=	0.0	-88.9	15.0	100.0
=	0.0	-88.3	15.0	100.1
=	0.0	-87.7	15.0	100.1
=	0.0	-87.1	15.0	100.1
=	0.0	-86.5	15.0	100.2
=	0.0	-85.9	15.0	100.2
=	0.0	-85.3	15.0	100.2
=	0.0	-84.5	15.0	100.2
=	0.0	-83.9	15.0	100.3
=	0.0	-83.3	15.0	100.3
=	0.0	-82.8	15.0	100.3
=	0.0	-82.2	15.0	100.3
=	0.0	-81.6	15.0	100.3
=	0.0	-81.0	15.0	100.3
=	0.0	-80.3	15.0	100.4
=	0.0	-79.6	15.0	100.4
=	0.0	-79.0	15.0	100.4
=	0.0	-78.3	15.0	100.4
=	0.0	-77.7	15.0	100.4
=	0.0	-77.1	15.0	100.4
=	0.0	-76.4	15.0	100.4
=	0.0	-75.9	15.0	100.4
=	0.0	-75.3	15.0	100.5
=	0.0	-74.7	15.0	100.5
=	0.0	-74.2	15.0	100.5
=	0.0	-73.6	15.0	100.5
=	0.0	-73.1	15.0	100.6
=	0.0	-72.5	15.0	100.6
=	0.0	-71.9	15.0	100.6
=	0.0	-71.3	15.0	100.6
=	0.0	-70.7	15.0	100.6
=	0.0	-70.2	15.0	100.6
=	0.0	-69.5	15.0	100.6
=	0.0	-69.0	15.0	100.6
=	0.0	-68.5	15.0	100.6
=	0.0	-68.0	15.0	100.7
=	0.0	-67.2	15.0	100.7
=	0.0	-66.7	15.0	100.7
=	0.0	-66.1	15.0	100.7
=	0.0	-65.4	15.0	100.7
=	0.0	-64.6	15.0	100.7
=	0.0	-64.0	15.0	100.8
=	0.0	-63.3	15.0	100.8
=	0.0	-62.7	15.0	100.8
=	0.0	-62.0	15.0	100.8
=	0.0	-61.4	15.0	100.8
=	0.0	-60.8	15.0	100.8
=	0.0	-60.3	15.0	100.8
=	0.0	-59.7	15.0	100.8
=	0.0	-59.2	15.0	100.9
=	0.0	-58.6	15.0	100.9
=	0.0	-58.0	15.0	100.9
=	0.0	-57.4	15.0	100.9
=	0.0	-56.8	15.0	100.8
=	0.0	-56.3	15.0	100.8
=	0.0	-55.8	15.0	100.9
=	0.0	-55.3	15.0	100.9
=	0.0	-54.7	15.0	100.9
=	0.0	-54.1	15.0	100.9
=	0.0	-53.5	15.0	100.9
=	0.0	-52.8	15.0	100.9
=	0.0	-52.0	15.0	100.9
=	0.0	-51.4	15.0	100.9
=	0.0	-50.8	15.0	100.9
=	0.0	-50.1	15.0	100.9
=	0.0	-49.6	15.0	100.9
=	0.0	-49.0	15.0	100.9
=	0.0	-48.3	15.0	100.8
=	0.0	-47.7	15.0	100.8
=	0.0	-47.1	15.0	100.8
=	0.0	-46.4	15.0	100.8
=	0.0	-45.9	15.0	100.7
=	0.0	-45.1	15.0	100.7
=	0.0	-44.5	15.0	100.7
=	0.0	-43.8	15.0	100.7
=	0.0	-43.2	15.0	100.7
=	0.0	-42.6	15.0	100.7
=	0.0	-42.0	15.0	100.6
=	0.0	-41.4	15.0	100.6
=	0.0	-40.8	15.0	100.6
=	0.0	-40.1	15.0	100.6
=	0.0	-39.6	15.0	100.6
=	0.0	-39.0	15.0	100.5
=	0.0	-38.5	15.0	100.5
=	0.0	-37.9	15.0	100.5
=	0.0	-37.4	15.0	100.5
=	0.0	-36.8	15.0	100.5
=	0.0	-36.2	15.0	100.4
=	0.0	-35.6	15.0	100.4
=	0.0	-35.0	15.0	100.4
=	0.0	-34.5	15.0	100.4
=	0.0	-33.9	15.0	100.4
=	0.0	-33.3	15.0	100.4
=	0.0	-32.7	15.0	100.4
=	0.0	-32.1	15.0	100.4
=	0.0	-31.3	15.0	100.4
=	0.0	-30.7	15.0	100.4
=	0.0	-30.1	15.0	100.4
=	0.0	-29.6	15.0	100.4
=	0.0	-29.0	15.0	100.4
=	0.0	-28.4	15.0	100.4
=	0.0	-27.8	15.0	100.4
=	0.0	-27.3	15.0	100.4
=	0.0	-26.7	15.0	100.4
=	0.0	-26.1	15.0	100.4
=	0.0	-25.5	15.0	100.4
=	0.0	-24.9	15.0	100.4
=	0.0	-24.4	15.0	100.4
=	0.0	-23.8	15.0	100.4
=	0.0	-23.3	15.0	100.4
=	0.0	-22.7	15.0	100.4
=	0.0	-22.0	15.0	100.4
=	0.0	-21.5	15.0	100.4
=	0.0	-20.8	15.0	100.4
=	0.0	-20.1	15.0	100.4
=	0.0	-19.5	15.0	100.4
=	0.0	-19.0	15.0	100.4
=	0.0	-18.5	15.0	100.4
=	0.0	-17.9	15.0	100.3
=	0.0	-17.3	15.0	100.3
=	0.0	-16.6	15.0	100.3
=	0.0	-16.0	15.0	100.3
=	0.0	-15.3	15.0	100.3
=	0.0	-14.8	15.0	100.3
=	0.0	-14.3	15.0	100.3
=	0.0	-13.7	15.0	100.3
=	0.0	-13.1	15.0	100.3
=	0.0	-12.5	15.0	100.3
=	0.0	-11.9	15.0	100.2
=	0.0	-11.3	15.0	100.2
=	0.0	-10.6	15.0	100.2
=	0.0	-10.0	15.0	100.2
=	0.0	-9.4	15.0	100.2
=	0.0	-8.9	15.0	100.2
=	0.0	-8.3	15.0	100.1
=	0.0	-7.8	15.0	100.1
=	0.0	-7.3	15.0	100.1
=	0.0	-6.7	15.0	100.0
=	0.0	-6.0	15.0	100.1
=	0.0	-5.5	15.0	100.0
=	0.0	-5.0	15.0	100.0
=	0.0	-4.5	15.0	100.0
=	0.0	-3.9	15.0	100.0
=	0.0	-3.4	15.0	100.0
=	0.0	-2.9	15.0	100.0
=	0.0	-2.4	15.0	100.0
=	0.0	-1.8	15.0	100.0
=	0.0	-1.1	15.0	100.0
=	0.0	-0.6	15.0	100.0
=	0.0	0.0	15.0	100.0
=	0.0	0.2	15.0	100.0
=	0.0	0.8	15.0	100.0
=	0.0	1.5	15.0	100.0
=	0.0	2.1	15.0	100.0
=	0.0	2.7	15.0	100.0
=	0.0	3.2	15.0	100.0
=	0.0	3.6	15.0	100.0
=	0.0	4.2	15.0	100.0
=	0.0	4.8	15.0	100.0
=	0.0	5.2	15.0	100.0
=	0.0	5.8	15.0	100.1
=	0.0	6.3	15.0	100.1
=	0.0	7.0	15.0	100.1
=	0.0	7.5	15.0	100.1
=	0.0	8.1	15.0	100.1
=	0.0	8.6	15.0	100.1
=	0.0	9.1	15.0	100.2
=	0.0	9.7	15.0	100.2
=	0.0	10.3	15.0	100.2
=	0.0	11.0	15.0	100.2
=	0.0	11.6	15.0	100.2
=	0.0	12.2	15.0	100.2
=	0.0	12.8	15.0	100.3
=	0.0	13.4	15.0	100.3
=	0.0	14.0	15.0	100.3
=	0.0	14.5	15.0	100.3
=	0.0	15.0	15.0	100.3
=	0.0	15.7	15.0	100.3
=	0.0	16.3	15.0	100.3
=	0.0	16.9	15.0	100.3
=	0.0	17.6	15.0	100.3
=	0.0	18.2	15.0	100.3
=	0.0	18.8	15.0	100.4
=	0.0	19.3	15.0	100.4
=	0.0	19.8	15.0	100.4
=	0.0	20.4	15.0	100.4
=	0.0	21.1	15.0	100.4
=	0.0	21.8	15.0	100.4
=	0.0	22.4	15.0	100.4
=	0.0	23.0	15.0	100.4
=	0.0	23.5	15.0	100.4
=	0.0	24.1	15.0	100.4
=	0.0	24.7	15.0	100.4
=	0.0	25.2	15.0	100.4
=	0.0	25.8	15.0	100.4
=	0.0	26.4	15.0	100.4
=	0.0	27.0	15.0	100.4
=	0.0	27.5	15.0	100.4
=	0.0	28.1	15.0	100.4
=	0.0	28.7	15.0	100.4
=	0.0	29.3	15.0	100.4
=	0.0	29.9	15.0	100.4
=	0.0	30.4	15.0	100.4
=	0.0	31.0	15.0	100.4
=	0.0	31.7	15.0	100.4
=	0.0	32.4	15.0	100.4
=	0.0	33.0	15.0	100.4
=	0.0	33.6	15.0	100.4
=	0.0	34.2	15.0	100.4
=	0.0	34.8	15.0	100.4
=	0.0	35.3	15.0	100.4
=	0.0	35.9	15.0	100.4
=	0.0	36.5	15.0	100.4
=	0.0	37.1	15.0	100.5
=	0.0	37.6	15.0	100.5
=	0.0	38.2	15.0	100.5
=	0.0	38.7	15.0	100.5
=	0.0	39.3	15.0	100.5
=	0.0	39.9	15.0	100.6
=	0.0	40.4	15.0	100.6
=	0.0	41.1	15.0	100.6
=	0.0	41.7	15.0	100.6
=	0.0	42.3	15.0	100.6
=	0.0	42.9	15.0	100.7
=	0.0	43.5	15.0	100.7
=	0.0	44.2	15.0	100.7
=	0.0	44.8	15.0	100.7
=	0.0	45.5	15.0	100.7
=	0.0	46.1	15.0	100.8
=	0.0	46.7	15.0	100.8
=	0.0	47.4	15.0	100.8
=	0.0	48.0	15.0	100.8
=	0.0	48.7	15.0	100.8
=	0.0	49.3	15.0	100.9
=	0.0	49.9	15.0	100.9
=	0.0	50.4	15.0	100.9
=	0.0	51.1	15.0	100.9
=	0.0	51.8	15.0	100.9
=	0.0	52.4	15.0	100.9
=	0.0	53.1	15.0	100.9
=	0.0	53.8	15.0	100.9
=	0.0	54.3	15.0	100.9
=	0.0	55.0	15.0	100.9
=	0.0	55.6	15.0	100.9
=	0.0	56.0	15.0	100.8
=	0.0	56.5	15.0	100.8
=	0.0	57.1	15.0	100.9
=	0.0	57.7	15.0	100.9
=	0.0	58.3	15.0	100.9
=	0.0	58.9	15.0	100.9
=	0.0	59.4	15.0	100.8
=	0.0	60.0	15.0	100.8
=	0.0	60.5	15.0	100.8
=	0.0	61.1	15.0	100.8
=	0.0	61.6	15.0	100.8
=	0.0	62.4	15.0	100.8
=	0.0	63.0	15.0	100.8
=	0.0	63.6	15.0	100.8
=	0.0	64.3	15.0	100.7
=	0.0	65.0	15.0	100.7
=	0.0	65.8	15.0	100.7
=	0.0	66.4	15.0	100.7
=	0.0	66.9	15.0	100.7
=	0.0	67.6	15.0	100.7
=	0.0	68.2	15.0	100.6
=	0.0	68.7	15.0	100.6
=	0.0	69.2	15.0	100.6
=	0.0	69.9	15.0	100.6
=	0.0	70.5	15.0	100.6
=	0.0	71.0	15.0	100.6
=	0.0	71.6	15.0	100.6
=	0.0	72.2	15.0	100.6
=	0.0	72.8	15.0	100.6
=	0.0	73.3	15.0	100.6
=	0.0	73.9	15.0	100.5
=	0.0	74.5	15.0	100.5
=	0.0	75.0	15.0	100.5
=	0.0	75.6	15.0	100.5
=	0.0	76.1	15.0	100.4
=	0.0	76.7	15.0	100.4
=	0.0	77.4	15.0	100.4
=	0.0	78.0	15.0	100.4
=	0.0	78.6	15.0	100.4
=	0.0	79.4	15.0	100.4
=	0.0	79.9	15.0	100.4
=	0.0	80.7	15.0	100.4
=	0.0	81.3	15.0	100.3
=	0.0	81.9	15.0	100.3
=	0.0	82.5	15.0	100.3
=	0.0	83.1	15.0	100.3
=	0.0	83.6	15.0	100.3
=	0.0	84.2	15.0	100.3
=	0.0	84.9	15.0	100.2
=	0.0	85.6	15.0	100.2
=	0.0	86.3	15.0	100.2
=	0.0	86.8	15.0	100.2
=	0.0	87.4	15.0	100.1
=	0.0	88.0	15.0	100.1
=	0.0	88.6	15.0	100.1
=	0.0	89.2	15.0	100.0
=	0.0	89.8	15.0	100.0
=	0.0	90.5	15.0	100.0
=	0.0	91.1	15.0	100.0
=	0.0	91.8	15.0	100.0
=	0.0	92.4	15.0	100.0
=	0.0	93.1	15.0	99.9
=	0.0	93.7	15.0	99.9
=	0.0	94.3	15.0	99.9
=	0.0	95.0	15.0	99.8
=	0.0	95.6	15.0	99.8
=	0.0	96.1	15.0	99.8
=	0.0	96.8	15.0	99.8
=	0.0	97.4	15.0	99.8
=	0.0	97.9	15.0	99.8
=	0.0	98.4	15.0	99.8
=	0.0	98.9	15.0	99.8
=	0.0	99.5	15.0	99.7
=	0.0	100.1	15.0	99.7
=	0.0	100.8	15.0	99.6
=	0.0	101.3	15.0	99.6
=	0.0	102.0	15.0	99.6
=	0.0	102.5	15.0	99.6
=	0.0	103.0	15.0	99.6
=	0.0	103.6	15.0	99.5
=	0.0	104.2	15.0	99.5
=	0.0	104.7	15.0	99.5
=	0.0	105.3	15.0	99.5
=	0.0	106.1	15.0	99.4
=	0.0	106.8	15.0	99.4
=	0.0	107.4	15.0	99.4
=	0.0	108.1	15.0	99.4
=	0.0	108.7	15.0	99.4
=	0.0	109.4	15.0	99.3
=	0.0	110.0	15.0	99.3
=	0.0	110.5	15.0	99.2
=	0.0	111.0	15.0	99.2
=	0.0	111.6	15.0	99.2
=	0.0	112.1	15.0	99.1
=	0.0	112.6	15.0	99.1
=	0.0	113.3	15.0	99.1
=	0.0	114.0	15.0	99.0
=	0.0	114.8	15.0	99.0
=	0.0	115.6	15.0	99.0
=	0.0	116.4	15.0	99.0
=	0.0	116.9	15.0	99.0
=	0.0	117.5	15.0	98.9
=	0.0	118.1	15.0	98.9
=	0.0	118.6	15.0	98.9
=	0.0	119.3	15.0	98.9
=	0.0	119.9	15.0	98.8
=	0.0	120.6	15.0	98.8
=	0.0	121.3	15.0	98.8
=	0.0	121.9	15.0	98.7
=	0.0	122.5	15.0	98.7
=	0.0	123.1	15.0	98.6
=	0.0	123.7	15.0	98.6
=	0.0	124.2	15.0	98.6
=	0.0	124.9	15.0	98.6
=	0.0	125.4	15.0	98.5
=	0.0	126.0	15.0	98.5
=	0.0	126.8	15.0	98.4
=	0.0	127.4	15.0	98.4
=	0.0	128.1	15.0	98.4
=	0.0	128.7	15.0	98.3
=	0.0	129.3	15.0	98.3
=	0.0	130.0	15.0	98.3
=	0.0	130.7	15.0	98.3
=	0.0	131.3	15.0	98.2
=	0.0	131.9	15.0	98.2
=	0.0	132.5	15.0	98.2
=	0.0	133.1	15.0	98.1
=	0.0	133.8	15.0	98.1
=	0.0	134.5	15.0	98.1
=	0.0	135.1	15.0	98.0
=	0.0	135.8	15.0	98.0
=	0.0	136.5	15.0	98.0
=	0.0	137.2	15.0	97.9
=	0.0	137.7	15.0	97.9
=	0.0	138.3	15.0	97.9
=	0.0	138.8	15.0	97.8
=	0.0	139.4	15.0	97.7
=	0.0	139.9	15.0	97.7
=	0.0	140.5	15.0	97.7
=	0.0	141.2	15.0	97.6
=	0.0	141.7	15.0	97.6
=	0.0	142.3	15.0	97.6
=	0.0	143.0	15.0	97.5
=	0.0	143.6	15.0	97.5
=	0.0	144.2	15.0	97.5
=	0.0	144.9	15.0	97.5
=	0.0	145.5	15.0	97.4
=	0.0	146.0	15.0	97.4
=	0.0	146.5	15.0	97.4
=	0.0	147.1	15.0	97.4
=	0.0	147.6	15.0	97.4
=	0.0	148.2	15.0	97.3
=	0.0	148.7	15.0	97.3
=	0.0	149.3	15.0	97.2
=	0.0	150.1	15.0	97.2
=	0.0	150.6	15.0	97.1
=	0.0	151.1	15.0	97.1
=	0.0	151.7	15.0	97.1
=	0.0	152.3	15.0	97.0
=	0.0	153.0	15.0	97.0
=	0.0	153.7	15.0	96.9
=	0.0	154.3	15.0	96.9
=	0.0	154.8	15.0	96.8
=	0.0	155.4	15.0	96.7
=	0.0	156.0	15.0	96.7
=	0.0	156.6	15.0	96.7
=	0.0	157.4	15.0	96.6
=	0.0	158.2	15.0	96.6
=	0.0	159.0	15.0	96.6
=	0.0	159.6	15.0	96.5
=	0.0	160.2	15.0	96.5
=	0.0	160.9	15.0	96.4
=	0.0	161.7	15.0	96.4
=	0.0	162.3	15.0	96.3
=	0.0	162.9	15.0	96.2
=	0.0	163.7	15.0	96.2
=	0.0	164.4	15.0	96.1
=	0.0	164.9	15.0	96.1
=	0.0	165.6	15.0	96.0
=	0.0	166.1	15.0	96.0
=	0.0	166.7	15.0	95.9
=	0.0	167.3	15.0	95.9
=	0.0	167.9	15.0	95.8
=	0.0	168.5	15.0	95.8
=	0.0	169.0	15.0	95.7
=	0.0	169.6	15.0	95.7
=	0.0	170.1	15.0	95.6
=	0.0	170.6	15.0	95.6
=	0.0	171.3	15.0	95.5
=	0.0	172.0	15.0	95.4
=	0.0	172.6	15.0	95.4
=	0.0	173.1	15.0	95.3
=	0.0	173.7	15.0	95.3
=	0.0	174.2	15.0	95.2
=	0.0	174.8	15.0	95.1
=	0.0	175.5	15.0	95.1
=	0.0	176.2	15.0	95.0
=	0.0	176.8	15.0	94.9
=	0.0	177.5	15.0	94.9
=	0.0	178.3	15.0	94.8
=	0.0	178.8	15.0	94.7
=	0.0	179.3	15.0	94.7
=	0.0	179.8	15.0	94.6
=	0.0	180.4	15.0	94.5
=	0.0	180.9	15.0	94.4
=	0.0	181.5	15.0	94.3
=	0.0	182.0	15.0	94.3
=	0.0	182.5	15.0	94.2
=	0.0	183.1	15.0	94.2
=	0.0	183.8	15.0	94.1
=	0.0	184.5	15.0	94.1
=	0.0	185.1	15.0	94.0
=	0.0	185.7	15.0	93.8
=	0.0	186.3	15.0	93.8
=	0.0	186.9	15.0	93.7
=	0.0	187.4	15.0	93.6
=	0.0	188.0	15.0	93.5
=	0.0	188.6	15.0	93.5
=	0.0	189.1	15.0	93.4
=	0.0	189.7	15.0	93.3
=	0.0	190.4	15.0	93.1
=	0.0	191.0	15.0	92.9
=	0.0	191.6	15.0	92.7
=	0.0	192.3	15.0	92.6
=	0.0	193.0	15.0	92.4
=	0.0	193.6	15.0	92.1
=	0.0	194.1	15.0	91.8
=	0.0	194.7	15.0	91.4
=	0.0	195.3	15.0	90.9
=	0.0	196.0	15.0	90.2
=	0.0	196.7	15.0	89.2
=	0.0	197.3	15.0	88.0
=	0.0	197.9	15.0	86.5
=	0.0	198.6	15.0	84.1
=	0.0	199.2	15.0	81.2
=	0.0	199.8	15.0	77.8
=	0.0	200.5	15.0	72.6
=	0.0	201.3	15.0	66.3
=	0.0	202.0	15.0	60.2
=	0.0	202.6	15.0	55.3
=	0.0	203.2	15.0	50.4
=	0.0	203.8	15.0	45.4
=	0.0	204.4	15.0	40.2
=	0.0	205.0	15.0	35.7
=	0.0	205.7	15.0	31.5
=	0.0	206.4	15.0	27.5
=	0.0	207.2	15.0	24.0
=	0.0	207.8	15.0	21.7
=	0.0	208.5	15.0	19.9
=	0.0	209.1	15.0	18.8
=	0.0	209.7	15.0	18.0
=	0.0	210.3	15.0	17.3
=	0.0	211.0	15.0	16.8
=	0.0	211.5	15.0	16.5
=	0.0	212.1	15.0	16.1
=	0.0	212.7	15.0	15.9
=	0.0	213.2	15.0	15.7
=	0.0	213.8	15.0	15.5
=	0.0	214.5	15.0	15.3
=	0.0	215.3	15.0	15.1
=	0.0	216.1	15.0	14.9
=	0.0	216.8	15.0	14.7
=	0.0	217.3	15.0	14.7
=	0.0	217.9	15.0	14.6
=	0.0	218.5	15.0	14.4
=	0.0	219.1	15.0	14.3
=	0.0	219.7	15.0	14.3
=	0.0	220.2	15.0	14.2
=	0.0	220.7	15.0	14.1
=	0.0	221.2	15.0	14.0
=	0.0	221.8	15.0	13.9
=	0.0	222.5	15.0	13.8
=	0.0	223.2	15.0	13.7
=	0.0	223.7	15.0	13.6
=	0.0	224.3	15.0	13.5
=	0.0	224.9	15.0	13.4
=	0.0	225.4	15.0	13.4
=	0.0	226.1	15.0	13.3
=	0.0	226.8	15.0	13.2
=	0.0	227.5	15.0	13.1
=	0.0	228.0	15.0	13.0
=	0.0	228.5	15.0	12.9
=	0.0	229.2	15.0	12.9
=	0.0	229.8	15.0	12.8
=	0.0	230.3	15.0	12.8
=	0.0	230.9	15.0	12.7
=	0.0	231.5	15.0	12.6
=	0.0	232.1	15.0	12.5
=	0.0	232.8	15.0	12.5
=	0.0	233.3	15.0	12.4
=	0.0	234.0	15.0	12.3
=	0.0	234.8	15.0	12.2
=	0.0	235.5	15.0	12.2
=	0.0	236.1	15.0	12.1
=	0.0	236.7	15.0	12.1
=	0.0	237.4	15.0	12.0
=	0.0	238.0	15.0	12.0
=	0.0	238.8	15.0	11.9
=	0.0	239.3	15.0	11.9
=	0.0	239.9	15.0	11.8
=	0.0	240.5	15.0	11.8
=	0.0	241.3	15.0	11.7
=	0.0	241.9	15.0	11.6
=	0.0	242.5	15.0	11.6
=	0.0	243.0	15.0	11.5
=	0.0	243.7	15.0	11.5
=	0.0	244.2	15.0	11.5
=	0.0	244.8	15.0	11.4
=	0.0	245.4	15.0	11.3
=	0.0	246.0	15.0	11.3
=	0.0	246.7	15.0	11.3
=	0.0	247.3	15.0	11.2
=	0.0	247.8	15.0	11.1
=	0.0	248.3	15.0	11.1
=	0.0	248.9	15.0	11.1
=	0.0	249.5	15.0	11.0
=	0.0	250.0	15.0	11.0
=	0.0	250.6	15.0	10.9
=	0.0	251.2	15.0	10.9
=	0.0	251.9	15.0	10.8
=	0.0	252.5	15.0	10.8
:EOM # End of Measurement
#
# RFA300 ASCII Measurement Dump ( BDS format )
#
# Measurement number 	2
#
%VNR 1.0
%MOD 	RAT
%TYP 	SCN
%SCN 	PRO
%FLD 	ION
%DAT 	10-14-2011
%TIM 	12:00:00
%FSZ 	400	300
%BMT 	PHO	   6.0
%SSD 	1000
%BUP 	0
%BRD 	1000
%FSH 	1
%ASC 	0
%WEG 	30
%GPO 	0
%CPO 	0
%MEA 	6
%PRD 	50,0
%PTS 	829
%STS 	    0.0	  -259.6	   50.0 # Start Scan values in mm ( X , Y , Z )
%EDS 	    0.0	   259.6	   50.0 # End Scan values in mm ( X , Y , Z )
#
#	  X      Y      Z     Dose
#
=	0.0	-259.6	50.0	11.3
=	0.0	-258.9	50.0	11.3
=	0.0	-258.2	50.0	11.4
=	0.0	-257.4	50.0	11.5
=	0.0	-256.6	50.0	11.5
=	0.0	-255.8	50.0	11.6
=	0.0	-255.1	50.0	11.6
=	0.0	-254.5	50.0	11.7
=	0.0	-254.0	50.0	11.8
=	0.0	-253.3	50.0	11.8
=	0.0	-252.8	50.0	11.9
=	0.0	-252.3	50.0	11.9
=	0.0	-251.7	50.0	12.0
=	0.0	-251.1	50.0	12.0
=	0.0	-250.4	50.0	12.1
=	0.0	-249.7	50.0	12.2
=	0.0	-249.1	50.0	12.2
=	0.0	-248.5	50.0	12.3
=	0.0	-247.7	50.0	12.4
=	0.0	-247.1	50.0	12.5
=	0.0	-246.6	50.0	12.5
=	0.0	-245.9	50.0	12.6
=	0.0	-245.3	50.0	12.6
=	0.0	-244.7	50.0	12.7
=	0.0	-244.0	50.0	12.8
=	0.0	-243.3	50.0	12.9
=	0.0	-242.7	50.0	13.0
=	0.0	-242.1	50.0	13.0
=	0.0	-241.5	50.0	13.1
=	0.0	-240.9	50.0	13.1
=	0.0	-240.3	50.0	13.2
=	0.0	-239.6	50.0	13.4
=	0.0	-238.9	50.0	13.4
=	0.0	-238.4	50.0	13.5
=	0.0	-237.8	50.0	13.6
=	0.0	-237.2	50.0	13.7
=	0.0	-236.6	50.0	13.8
=	0.0	-235.9	50.0	13.9
=	0.0	-235.1	50.0	14.0
=	0.0	-234.5	50.0	14.1
=	0.0	-233.8	50.0	14.2
=	0.0	-233.1	50.0	14.4
=	0.0	-232.4	50.0	14.5
=	0.0	-231.7	50.0	14.6
=	0.0	-231.1	50.0	14.7
=	0.0	-230.5	50.0	14.9
=	0.0	-229.8	50.0	15.0
=	0.0	-229.0	50.0	15.1
=	0.0	-228.4	50.0	15.3
=	0.0	-227.8	50.0	15.4
=	0.0	-227.0	50.0	15.6
=	0.0	-226.4	50.0	15.7
=	0.0	-225.8	50.0	15.8
=	0.0	-225.3	50.0	15.9
=	0.0	-224.7	50.0	16.1
=	0.0	-224.2	50.0	16.2
=	0.0	-223.6	50.0	16.4
=	0.0	-222.9	50.0	16.6
=	0.0	-222.1	50.0	16.8
=	0.0	-221.5	50.0	17.0
=	0.0	-220.9	50.0	17.2
=	0.0	-220.2	50.0	17.5
=	0.0	-219.5	50.0	17.9
=	0.0	-218.7	50.0	18.3
=	0.0	-218.1	50.0	18.7
=	0.0	-217.6	50.0	19.1
=	0.0	-217.1	50.0	19.7
=	0.0	-216.5	50.0	20.5
=	0.0	-215.9	50.0	21.2
=	0.0	-215.2	50.0	23.0
=	0.0	-214.5	50.0	24.8
=	0.0	-213.8	50.0	27.3
=	0.0	-213.2	50.0	30.3
=	0.0	-212.6	50.0	33.3
=	0.0	-212.0	50.0	36.5
=	0.0	-211.5	50.0	40.2
=	0.0	-210.8	50.0	44.9
=	0.0	-210.1	50.0	49.8
=	0.0	-209.4	50.0	55.4
=	0.0	-208.8	50.0	60.2
=	0.0	-208.2	50.0	64.8
=	0.0	-207.6	50.0	69.4
=	0.0	-207.0	50.0	73.0
=	0.0	-206.5	50.0	76.4
=	0.0	-205.7	50.0	80.0
=	0.0	-205.1	50.0	82.3
=	0.0	-204.3	50.0	84.5
=	0.0	-203.4	50.0	86.2
=	0.0	-202.7	50.0	87.1
=	0.0	-202.0	50.0	87.9
=	0.0	-201.4	50.0	88.4
=	0.0	-200.6	50.0	89.0
=	0.0	-200.0	50.0	89.3
=	0.0	-199.2	50.0	89.7
=	0.0	-198.5	50.0	90.0
=	0.0	-198.0	50.0	90.2
=	0.0	-197.5	50.0	90.4
=	0.0	-196.9	50.0	90.5
=	0.0	-196.3	50.0	90.7
=	0.0	-195.6	50.0	90.9
=	0.0	-194.8	50.0	91.1
=	0.0	-194.2	50.0	91.3
=	0.0	-193.6	50.0	91.4
=	0.0	-192.9	50.0	91.6
=	0.0	-192.2	50.0	91.7
=	0.0	-191.6	50.0	91.9
=	0.0	-191.1	50.0	92.0
=	0.0	-190.4	50.0	92.1
=	0.0	-189.9	50.0	92.2
=	0.0	-189.3	50.0	92.3
=	0.0	-188.7	50.0	92.4
=	0.0	-188.1	50.0	92.5
=	0.0	-187.5	50.0	92.6
=	0.0	-186.8	50.0	92.7
=	0.0	-186.0	50.0	92.8
=	0.0	-185.3	50.0	92.9
=	0.0	-184.7	50.0	93.0
=	0.0	-184.0	50.0	93.1
=	0.0	-183.4	50.0	93.2
=	0.0	-182.8	50.0	93.2
=	0.0	-182.3	50.0	93.3
=	0.0	-181.8	50.0	93.4
=	0.0	-181.0	50.0	93.5
=	0.0	-180.3	50.0	93.7
=	0.0	-179.8	50.0	93.8
=	0.0	-179.1	50.0	93.9
=	0.0	-178.4	50.0	93.9
=	0.0	-177.7	50.0	94.0
=	0.0	-177.1	50.0	94.0
=	0.0	-176.6	50.0	94.1
=	0.0	-175.9	50.0	94.2
=	0.0	-175.3	50.0	94.2
=	0.0	-174.7	50.0	94.3
=	0.0	-173.9	50.0	94.4
=	0.0	-173.4	50.0	94.4
=	0.0	-172.8	50.0	94.5
=	0.0	-172.1	50.0	94.6
=	0.0	-171.4	50.0	94.7
=	0.0	-170.8	50.0	94.8
=	0.0	-170.0	50.0	94.9
=	0.0	-169.4	50.0	94.9
=	0.0	-168.8	50.0	95.0
=	0.0	-168.2	50.0	95.0
=	0.0	-167.4	50.0	95.1
=	0.0	-166.7	50.0	95.1
=	0.0	-166.1	50.0	95.2
=	0.0	-165.6	50.0	95.3
=	0.0	-164.9	50.0	95.4
=	0.0	-164.4	50.0	95.4
=	0.0	-163.8	50.0	95.5
=	0.0	-163.2	50.0	95.6
=	0.0	-162.6	50.0	95.6
=	0.0	-162.0	50.0	95.6
=	0.0	-161.4	50.0	95.7
=	0.0	-160.9	50.0	95.7
=	0.0	-160.2	50.0	95.8
=	0.0	-159.4	50.0	95.8
=	0.0	-158.8	50.0	95.9
=	0.0	-158.1	50.0	96.0
=	0.0	-157.6	50.0	96.0
=	0.0	-157.1	50.0	96.1
=	0.0	-156.5	50.0	96.1
=	0.0	-155.8	50.0	96.1
=	0.0	-155.1	50.0	96.2
=	0.0	-154.3	50.0	96.2
=	0.0	-153.7	50.0	96.3
=	0.0	-153.1	50.0	96.3
=	0.0	-152.6	50.0	96.3
=	0.0	-152.1	50.0	96.4
=	0.0	-151.5	50.0	96.5
=	0.0	-150.9	50.0	96.5
=	0.0	-150.4	50.0	96.5
=	0.0	-149.9	50.0	96.6
=	0.0	-149.1	50.0	96.6
=	0.0	-148.5	50.0	96.7
=	0.0	-147.9	50.0	96.8
=	0.0	-147.4	50.0	96.8
=	0.0	-146.6	50.0	96.8
=	0.0	-145.9	50.0	96.9
=	0.0	-145.3	50.0	96.9
=	0.0	-144.6	50.0	97.0
=	0.0	-143.9	50.0	97.0
=	0.0	-143.3	50.0	97.0
=	0.0	-142.6	50.0	97.1
=	0.0	-141.9	50.0	97.1
=	0.0	-141.3	50.0	97.1
=	0.0	-140.8	50.0	97.2
=	0.0	-140.2	50.0	97.2
=	0.0	-139.5	50.0	97.2
=	0.0	-138.9	50.0	97.3
=	0.0	-138.3	50.0	97.3
=	0.0	-137.7	50.0	97.4
=	0.0	-136.9	50.0	97.5
=	0.0	-136.2	50.0	97.5
=	0.0	-135.6	50.0	97.5
=	0.0	-135.1	50.0	97.6
=	0.0	-134.5	50.0	97.6
=	0.0	-133.9	50.0	97.6
=	0.0	-133.2	50.0	97.7
=	0.0	-132.7	50.0	97.7
=	0.0	-132.1	50.0	97.7
=	0.0	-131.5	50.0	97.8
=	0.0	-130.9	50.0	97.8
=	0.0	-130.3	50.0	97.8
=	0.0	-129.7	50.0	97.8
=	0.0	-129.0	50.0	97.9
=	0.0	-128.3	50.0	97.9
=	0.0	-127.6	50.0	98.0
=	0.0	-126.8	50.0	98.0
=	0.0	-126.1	50.0	98.1
=	0.0	-125.6	50.0	98.1
=	0.0	-124.9	50.0	98.2
=	0.0	-124.1	50.0	98.2
=	0.0	-123.3	50.0	98.3
=	0.0	-122.6	50.0	98.3
=	0.0	-122.0	50.0	98.3
=	0.0	-121.4	50.0	98.4
=	0.0	-120.8	50.0	98.4
=	0.0	-120.2	50.0	98.4
=	0.0	-119.6	50.0	98.4
=	0.0	-118.9	50.0	98.5
=	0.0	-118.3	50.0	98.5
=	0.0	-117.6	50.0	98.5
=	0.0	-117.1	50.0	98.6
=	0.0	-116.6	50.0	98.6
=	0.0	-116.1	50.0	98.7
=	0.0	-115.4	50.0	98.7
=	0.0	-114.9	50.0	98.8
=	0.0	-114.3	50.0	98.8
=	0.0	-113.8	50.0	98.8
=	0.0	-113.2	50.0	98.8
=	0.0	-112.6	50.0	98.8
=	0.0	-111.9	50.0	98.8
=	0.0	-111.2	50.0	98.9
=	0.0	-110.6	50.0	98.9
=	0.0	-110.0	50.0	98.9
=	0.0	-109.3	50.0	98.9
=	0.0	-108.8	50.0	98.9
=	0.0	-108.3	50.0	99.0
=	0.0	-107.7	50.0	99.0
=	0.0	-107.1	50.0	99.0
=	0.0	-106.4	50.0	99.0
=	0.0	-105.8	50.0	99.1
=	0.0	-105.3	50.0	99.1
=	0.0	-104.7	50.0	99.1
=	0.0	-104.2	50.0	99.2
=	0.0	-103.7	50.0	99.2
=	0.0	-103.2	50.0	99.2
=	0.0	-102.6	50.0	99.3
=	0.0	-102.0	50.0	99.3
=	0.0	-101.5	50.0	99.3
=	0.0	-100.9	50.0	99.3
=	0.0	-100.2	50.0	99.4
=	0.0	-99.3	50.0	99.4
=	0.0	-98.6	50.0	99.5
=	0.0	-98.0	50.0	99.5
=	0.0	-97.5	50.0	99.5
=	0.0	-96.9	50.0	99.5
=	0.0	-96.1	50.0	99.6
=	0.0	-95.4	50.0	99.6
=	0.0	-94.9	50.0	99.6
=	0.0	-94.3	50.0	99.7
=	0.0	-93.7	50.0	99.7
=	0.0	-93.1	50.0	99.7
=	0.0	-92.4	50.0	99.7
=	0.0	-91.7	50.0	99.7
=	0.0	-91.1	50.0	99.8
=	0.0	-90.5	50.0	99.8
=	0.0	-89.9	50.0	99.8
=	0.0	-89.2	50.0	99.8
=	0.0	-88.6	50.0	99.8
=	0.0	-88.0	50.0	99.8
=	0.0	-87.4	50.0	99.8
=	0.0	-86.8	50.0	99.9
=	0.0	-86.2	50.0	99.9
=	0.0	-85.7	50.0	100.0
=	0.0	-85.0	50.0	100.0
=	0.0	-84.4	50.0	100.0
=	0.0	-83.8	50.0	100.0
=	0.0	-83.0	50.0	100.1
=	0.0	-82.3	50.0	100.1
=	0.0	-81.7	50.0	100.1
=	0.0	-81.1	50.0	100.1
=	0.0	-80.4	50.0	100.1
=	0.0	-79.7	50.0	100.2
=	0.0	-79.2	50.0	100.2
=	0.0	-78.6	50.0	100.2
=	0.0	-77.9	50.0	100.2
=	0.0	-77.2	50.0	100.2
=	0.0	-76.6	50.0	100.2
=	0.0	-75.9	50.0	100.3
=	0.0	-75.2	50.0	100.3
=	0.0	-74.5	50.0	100.4
=	0.0	-74.0	50.0	100.4
=	0.0	-73.4	50.0	100.4
=	0.0	-72.8	50.0	100.5
=	0.0	-72.1	50.0	100.5
=	0.0	-71.3	50.0	100.5
=	0.0	-70.6	50.0	100.5
=	0.0	-69.9	50.0	100.5
=	0.0	-69.1	50.0	100.5
=	0.0	-68.5	50.0	100.5
=	0.0	-68.0	50.0	100.5
=	0.0	-67.3	50.0	100.5
=	0.0	-66.7	50.0	100.5
=	0.0	-65.9	50.0	100.6
=	0.0	-65.3	50.0	100.6
=	0.0	-64.6	50.0	100.6
=	0.0	-64.1	50.0	100.6
=	0.0	-63.5	50.0	100.6
=	0.0	-62.8	50.0	100.6
=	0.0	-62.3	50.0	100.6
=	0.0	-61.6	50.0	100.6
=	0.0	-60.8	50.0	100.6
=	0.0	-60.2	50.0	100.6
=	0.0	-59.6	50.0	100.6
=	0.0	-59.0	50.0	100.7
=	0.0	-58.4	50.0	100.7
=	0.0	-57.8	50.0	100.7
=	0.0	-57.3	50.0	100.7
=	0.0	-56.7	50.0	100.7
=	0.0	-56.2	50.0	100.7
=	0.0	-55.6	50.0	100.7
=	0.0	-55.0	50.0	100.7
=	0.0	-54.4	50.0	100.7
=	0.0	-53.8	50.0	100.8
=	0.0	-53.3	50.0	100.8
=	0.0	-52.8	50.0	100.8
=	0.0	-52.3	50.0	100.8
=	0.0	-51.8	50.0	100.8
=	0.0	-51.2	50.0	100.8
=	0.0	-50.7	50.0	100.8
=	0.0	-50.1	50.0	100.7
=	0.0	-49.5	50.0	100.7
=	0.0	-48.9	50.0	100.7
=	0.0	-48.2	50.0	100.7
=	0.0	-47.6	50.0	100.7
=	0.0	-46.9	50.0	100.6
=	0.0	-46.3	50.0	100.6
=	0.0	-45.7	50.0	100.6
=	0.0	-45.1	50.0	100.6
=	0.0	-44.5	50.0	100.6
=	0.0	-44.0	50.0	100.6
=	0.0	-43.3	50.0	100.6
=	0.0	-42.8	50.0	100.6
=	0.0	-42.2	50.0	100.6
=	0.0	-41.5	50.0	100.6
=	0.0	-41.0	50.0	100.5
=	0.0	-40.5	50.0	100.5
=	0.0	-40.0	50.0	100.5
=	0.0	-39.4	50.0	100.5
=	0.0	-38.8	50.0	100.4
=	0.0	-38.3	50.0	100.4
=	0.0	-37.5	50.0	100.4
=	0.0	-36.9	50.0	100.4
=	0.0	-36.3	50.0	100.4
=	0.0	-35.6	50.0	100.4
=	0.0	-34.8	50.0	100.5
=	0.0	-34.2	50.0	100.4
=	0.0	-33.6	50.0	100.4
=	0.0	-33.0	50.0	100.4
=	0.0	-32.3	50.0	100.4
=	0.0	-31.6	50.0	100.3
=	0.0	-31.0	50.0	100.3
=	0.0	-30.4	50.0	100.3
=	0.0	-29.8	50.0	100.3
=	0.0	-29.2	50.0	100.4
=	0.0	-28.6	50.0	100.4
=	0.0	-28.0	50.0	100.4
=	0.0	-27.4	50.0	100.4
=	0.0	-26.8	50.0	100.4
=	0.0	-26.1	50.0	100.4
=	0.0	-25.4	50.0	100.4
=	0.0	-24.8	50.0	100.4
=	0.0	-24.2	50.0	100.4
=	0.0	-23.6	50.0	100.4
=	0.0	-23.1	50.0	100.4
=	0.0	-22.6	50.0	100.4
=	0.0	-22.1	50.0	100.4
=	0.0	-21.5	50.0	100.4
=	0.0	-21.0	50.0	100.4
=	0.0	-20.3	50.0	100.4
=	0.0	-19.6	50.0	100.4
=	0.0	-19.0	50.0	100.4
=	0.0	-18.5	50.0	100.4
=	0.0	-17.9	50.0	100.4
=	0.0	-17.2	50.0	100.4
=	0.0	-16.6	50.0	100.4
=	0.0	-15.9	50.0	100.4
=	0.0	-15.4	50.0	100.4
=	0.0	-14.7	50.0	100.3
=	0.0	-14.0	50.0	100.3
=	0.0	-13.3	50.0	100.3
=	0.0	-12.7	50.0	100.3
=	0.0	-12.2	50.0	100.3
=	0.0	-11.7	50.0	100.3
=	0.0	-11.1	50.0	100.2
=	0.0	-10.3	50.0	100.2
=	0.0	-9.7	50.0	100.2
=	0.0	-9.1	50.0	100.2
=	0.0	-8.3	50.0	100.1
=	0.0	-7.6	50.0	100.1
=	0.0	-7.0	50.0	100.1
=	0.0	-6.4	50.0	100.1
=	0.0	-5.9	50.0	100.1
=	0.0	-5.2	50.0	100.1
=	0.0	-4.6	50.0	100.1
=	0.0	-4.1	50.0	100.0
=	0.0	-3.5	50.0	100.0
=	0.0	-2.9	50.0	100.0
=	0.0	-2.4	50.0	100.0
=	0.0	-1.6	50.0	100.0
=	0.0	-1.0	50.0	100.0
=	0.0	-0.5	50.0	100.0
=	0.0	0.0	50.0	100.0
=	0.0	0.5	50.0	100.0
=	0.0	1.0	50.0	100.0
=	0.0	1.6	50.0	100.0
=	0.0	2.4	50.0	100.0
=	0.0	2.9	50.0	100.0
=	0.0	3.5	50.0	100.0
=	0.0	4.1	50.0	100.0
=	0.0	4.6	50.0	100.1
=	0.0	5.2	50.0	100.1
=	0.0	5.9	50.0	100.1
=	0.0	6.4	50.0	100.1
=	0.0	7.0	50.0	100.1
=	0.0	7.6	50.0	100.1
=	0.0	8.3	50.0	100.1
=	0.0	9.1	50.0	100.2
=	0.0	9.7	50.0	100.2
=	0.0	10.3	50.0	100.2
=	0.0	11.1	50.0	100.2
=	0.0	11.7	50.0	100.3
=	0.0	12.2	50.0	100.3
=	0.0	12.7	50.0	100.3
=	0.0	13.3	50.0	100.3
=	0.0	14.0	50.0	100.3
=	0.0	14.7	50.0	100.3
=	0.0	15.4	50.0	100.4
=	0.0	15.9	50.0	100.4
=	0.0	16.6	50.0	100.4
=	0.0	17.2	50.0	100.4
=	0.0	17.9	50.0	100.4
=	0.0	18.5	50.0	100.4
=	0.0	19.0	50.0	100.4
=	0.0	19.6	50.0	100.4
=	0.0	20.3	50.0	100.4
=	0.0	21.0	50.0	100.4
=	0.0	21.5	50.0	100.4
=	0.0	22.1	50.0	100.4
=	0.0	22.6	50.0	100.4
=	0.0	23.1	50.0	100.4
