:MSR 	5	 # No. of measurement in file
:SYS BDS 0   # Beam Data Scanner System
#
# RFA300 ASCII Measurement Dump ( BDS format )
#
# Measurement number 	1
#
%VNR 1.0
%MOD 	RAT
%TYP 	SCN
%SCN 	PRO
%FLD 	ION
%DAT 	10-14-2011
%TIM 	12:00:00
%FSZ 	400	300
%BMT 	PHO	   6.0
%SSD 	1000
%BUP 	0
%BRD 	1000
%FSH 	1
%ASC 	0
%WEG 	30
%GPO 	0
%CPO 	0
%MEA 	6
%PRD 	15,0
%PTS 	831
%STS 	    -252.8	  0.0	   15.0 # Start Scan values in mm ( X , Y , Z )
%EDS 	    252.5	   0.0	   15.0 # End Scan values in mm ( X , Y , Z )
#
#	  X      Y      Z     Dose
#
=	-252.8	0.0	15.0	10.7
=	-252.2	0.0	15.0	10.8
=	-251.5	0.0	15.0	10.9
=	-250.9	0.0	15.0	10.9
=	-250.3	0.0	15.0	10.9
=	-249.7	0.0	15.0	11.0
=	-249.2	0.0	15.0	11.0
=	-248.6	0.0	15.0	11.1
=	-248.1	0.0	15.0	11.1
=	-247.5	0.0	15.0	11.2
=	-247.0	0.0	15.0	11.2
=	-246.4	0.0	15.0	11.3
=	-245.7	0.0	15.0	11.3
=	-245.1	0.0	15.0	11.4
=	-244.5	0.0	15.0	11.4
=	-243.9	0.0	15.0	11.5
=	-243.4	0.0	15.0	11.5
=	-242.8	0.0	15.0	11.6
=	-242.2	0.0	15.0	11.6
=	-241.6	0.0	15.0	11.7
=	-240.9	0.0	15.0	11.7
=	-240.2	0.0	15.0	11.8
=	-239.6	0.0	15.0	11.8
=	-239.0	0.0	15.0	11.9
=	-238.4	0.0	15.0	11.9
=	-237.7	0.0	15.0	12.0
=	-237.0	0.0	15.0	12.0
=	-236.4	0.0	15.0	12.1
=	-235.7	0.0	15.0	12.2
=	-235.2	0.0	15.0	12.2
=	-234.4	0.0	15.0	12.3
=	-233.6	0.0	15.0	12.4
=	-233.0	0.0	15.0	12.4
=	-232.5	0.0	15.0	12.5
=	-231.8	0.0	15.0	12.6
=	-231.3	0.0	15.0	12.6
=	-230.6	0.0	15.0	12.7
=	-230.0	0.0	15.0	12.8
=	-229.5	0.0	15.0	12.8
=	-228.9	0.0	15.0	12.9
=	-228.2	0.0	15.0	13.0
=	-227.8	0.0	15.0	13.0
=	-227.2	0.0	15.0	13.1
=	-226.5	0.0	15.0	13.2
=	-225.7	0.0	15.0	13.3
=	-225.2	0.0	15.0	13.4
=	-224.6	0.0	15.0	13.5
=	-224.0	0.0	15.0	13.6
=	-223.5	0.0	15.0	13.6
=	-222.8	0.0	15.0	13.7
=	-222.2	0.0	15.0	13.8
=	-221.5	0.0	15.0	13.9
=	-221.0	0.0	15.0	14.0
=	-220.4	0.0	15.0	14.1
=	-219.9	0.0	15.0	14.2
=	-219.4	0.0	15.0	14.3
=	-218.9	0.0	15.0	14.4
=	-218.2	0.0	15.0	14.5
=	-217.6	0.0	15.0	14.6
=	-217.1	0.0	15.0	14.7
=	-216.5	0.0	15.0	14.8
=	-215.7	0.0	15.0	15.0
=	-214.9	0.0	15.0	15.2
=	-214.2	0.0	15.0	15.5
=	-213.5	0.0	15.0	15.6
=	-212.9	0.0	15.0	15.8
=	-212.4	0.0	15.0	16.0
=	-211.9	0.0	15.0	16.3
=	-211.2	0.0	15.0	16.6
=	-210.7	0.0	15.0	17.0
=	-209.9	0.0	15.0	17.7
=	-209.4	0.0	15.0	18.3
=	-208.8	0.0	15.0	19.4
=	-208.2	0.0	15.0	20.7
=	-207.5	0.0	15.0	22.8
=	-206.8	0.0	15.0	25.5
=	-206.0	0.0	15.0	29.6
=	-205.4	0.0	15.0	33.6
=	-204.8	0.0	15.0	37.7
=	-204.1	0.0	15.0	42.8
=	-203.4	0.0	15.0	47.9
=	-202.9	0.0	15.0	52.9
=	-202.3	0.0	15.0	57.6
=	-201.7	0.0	15.0	63.1
=	-200.9	0.0	15.0	69.5
=	-200.1	0.0	15.0	75.4
=	-199.5	0.0	15.0	79.7
=	-198.9	0.0	15.0	82.8
=	-198.2	0.0	15.0	85.3
=	-197.6	0.0	15.0	87.3
=	-197.0	0.0	15.0	88.6
=	-196.3	0.0	15.0	89.7
=	-195.6	0.0	15.0	90.6
=	-195.0	0.0	15.0	91.2
=	-194.4	0.0	15.0	91.6
=	-193.9	0.0	15.0	92.0
=	-193.4	0.0	15.0	92.3
=	-192.6	0.0	15.0	92.5
=	-192.0	0.0	15.0	92.7
=	-191.3	0.0	15.0	92.8
=	-190.8	0.0	15.0	93.0
=	-190.0	0.0	15.0	93.2
=	-189.4	0.0	15.0	93.3
=	-188.9	0.0	15.0	93.4
=	-188.3	0.0	15.0	93.5
=	-187.7	0.0	15.0	93.6
=	-187.2	0.0	15.0	93.6
=	-186.5	0.0	15.0	93.7
=	-186.0	0.0	15.0	93.8
=	-185.5	0.0	15.0	93.9
=	-184.8	0.0	15.0	94.0
=	-184.1	0.0	15.0	94.1
=	-183.5	0.0	15.0	94.1
=	-182.8	0.0	15.0	94.2
=	-182.3	0.0	15.0	94.2
=	-181.8	0.0	15.0	94.3
=	-181.2	0.0	15.0	94.4
=	-180.6	0.0	15.0	94.5
=	-180.1	0.0	15.0	94.6
=	-179.5	0.0	15.0	94.6
=	-179.0	0.0	15.0	94.7
=	-178.6	0.0	15.0	94.7
=	-177.9	0.0	15.0	94.8
=	-177.2	0.0	15.0	94.9
=	-176.5	0.0	15.0	95.0
=	-175.9	0.0	15.0	95.0
=	-175.1	0.0	15.0	95.1
=	-174.5	0.0	15.0	95.2
=	-173.9	0.0	15.0	95.2
=	-173.4	0.0	15.0	95.3
=	-172.8	0.0	15.0	95.3
=	-172.3	0.0	15.0	95.4
=	-171.6	0.0	15.0	95.5
=	-170.9	0.0	15.0	95.6
=	-170.4	0.0	15.0	95.6
=	-169.9	0.0	15.0	95.6
=	-169.3	0.0	15.0	95.7
=	-168.8	0.0	15.0	95.8
=	-168.2	0.0	15.0	95.8
=	-167.6	0.0	15.0	95.9
=	-167.0	0.0	15.0	95.9
=	-166.4	0.0	15.0	96.0
=	-165.8	0.0	15.0	96.0
=	-165.2	0.0	15.0	96.0
=	-164.7	0.0	15.0	96.1
=	-164.1	0.0	15.0	96.1
=	-163.3	0.0	15.0	96.2
=	-162.6	0.0	15.0	96.3
=	-162.0	0.0	15.0	96.3
=	-161.3	0.0	15.0	96.4
=	-160.5	0.0	15.0	96.4
=	-159.9	0.0	15.0	96.5
=	-159.3	0.0	15.0	96.5
=	-158.6	0.0	15.0	96.6
=	-157.8	0.0	15.0	96.6
=	-157.0	0.0	15.0	96.7
=	-156.3	0.0	15.0	96.7
=	-155.7	0.0	15.0	96.7
=	-155.1	0.0	15.0	96.7
=	-154.6	0.0	15.0	96.8
=	-154.0	0.0	15.0	96.9
=	-153.4	0.0	15.0	97.0
=	-152.6	0.0	15.0	97.0
=	-152.0	0.0	15.0	97.1
=	-151.4	0.0	15.0	97.1
=	-150.8	0.0	15.0	97.1
=	-150.3	0.0	15.0	97.2
=	-149.7	0.0	15.0	97.2
=	-149.0	0.0	15.0	97.3
=	-148.5	0.0	15.0	97.3
=	-147.9	0.0	15.0	97.3
=	-147.4	0.0	15.0	97.4
=	-146.8	0.0	15.0	97.4
=	-146.3	0.0	15.0	97.4
=	-145.8	0.0	15.0	97.4
=	-145.2	0.0	15.0	97.4
=	-144.5	0.0	15.0	97.5
=	-143.9	0.0	15.0	97.5
=	-143.3	0.0	15.0	97.5
=	-142.7	0.0	15.0	97.5
=	-142.0	0.0	15.0	97.6
=	-141.5	0.0	15.0	97.6
=	-140.9	0.0	15.0	97.6
=	-140.2	0.0	15.0	97.7
=	-139.7	0.0	15.0	97.7
=	-139.1	0.0	15.0	97.8
=	-138.6	0.0	15.0	97.8
=	-138.0	0.0	15.0	97.9
=	-137.4	0.0	15.0	97.9
=	-136.9	0.0	15.0	97.9
=	-136.2	0.0	15.0	98.0
=	-135.4	0.0	15.0	98.0
=	-134.8	0.0	15.0	98.0
=	-134.2	0.0	15.0	98.1
=	-133.5	0.0	15.0	98.1
=	-132.8	0.0	15.0	98.1
=	-132.2	0.0	15.0	98.2
=	-131.6	0.0	15.0	98.2
=	-131.0	0.0	15.0	98.3
=	-130.3	0.0	15.0	98.3
=	-129.6	0.0	15.0	98.3
=	-129.0	0.0	15.0	98.3
=	-128.4	0.0	15.0	98.4
=	-127.8	0.0	15.0	98.4
=	-127.1	0.0	15.0	98.4
=	-126.4	0.0	15.0	98.5
=	-125.7	0.0	15.0	98.5
=	-125.1	0.0	15.0	98.6
=	-124.5	0.0	15.0	98.6
=	-123.9	0.0	15.0	98.6
=	-123.4	0.0	15.0	98.6
=	-122.8	0.0	15.0	98.6
=	-122.2	0.0	15.0	98.7
=	-121.6	0.0	15.0	98.7
=	-121.0	0.0	15.0	98.8
=	-120.3	0.0	15.0	98.8
=	-119.6	0.0	15.0	98.9
=	-118.9	0.0	15.0	98.9
=	-118.3	0.0	15.0	98.9
=	-117.8	0.0	15.0	98.9
=	-117.2	0.0	15.0	98.9
=	-116.6	0.0	15.0	99.0
=	-116.0	0.0	15.0	99.0
=	-115.2	0.0	15.0	99.0
=	-114.4	0.0	15.0	99.0
=	-113.7	0.0	15.0	99.1
=	-112.9	0.0	15.0	99.1
=	-112.4	0.0	15.0	99.1
=	-111.9	0.0	15.0	99.2
=	-111.3	0.0	15.0	99.2
=	-110.8	0.0	15.0	99.2
=	-110.3	0.0	15.0	99.3
=	-109.8	0.0	15.0	99.3
=	-109.0	0.0	15.0	99.4
=	-108.4	0.0	15.0	99.4
=	-107.8	0.0	15.0	99.4
=	-107.1	0.0	15.0	99.4
=	-106.4	0.0	15.0	99.4
=	-105.7	0.0	15.0	99.5
=	-105.0	0.0	15.0	99.5
=	-104.4	0.0	15.0	99.5
=	-103.9	0.0	15.0	99.5
=	-103.3	0.0	15.0	99.5
=	-102.8	0.0	15.0	99.6
=	-102.3	0.0	15.0	99.6
=	-101.6	0.0	15.0	99.6
=	-101.0	0.0	15.0	99.6
=	-100.5	0.0	15.0	99.7
=	-99.8	0.0	15.0	99.7
=	-99.2	0.0	15.0	99.7
=	-98.6	0.0	15.0	99.8
=	-98.1	0.0	15.0	99.8
=	-97.6	0.0	15.0	99.8
=	-97.1	0.0	15.0	99.8
=	-96.4	0.0	15.0	99.8
=	-95.9	0.0	15.0	99.8
=	-95.3	0.0	15.0	99.8
=	-94.6	0.0	15.0	99.9
=	-94.0	0.0	15.0	99.9
=	-93.4	0.0	15.0	99.9
=	-92.8	0.0	15.0	99.9
=	-92.1	0.0	15.0	100.0
=	-91.4	0.0	15.0	100.0
=	-90.8	0.0	15.0	100.0
=	-90.2	0.0	15.0	100.0
=	-89.5	0.0	15.0	100.0
=	-88.9	0.0	15.0	100.0
=	-88.3	0.0	15.0	100.1
=	-87.7	0.0	15.0	100.1
=	-87.1	0.0	15.0	100.1
=	-86.5	0.0	15.0	100.2
=	-85.9	0.0	15.0	100.2
=	-85.3	0.0	15.0	100.2
=	-84.5	0.0	15.0	100.2
=	-83.9	0.0	15.0	100.3
=	-83.3	0.0	15.0	100.3
=	-82.8	0.0	15.0	100.3
=	-82.2	0.0	15.0	100.3
=	-81.6	0.0	15.0	100.3
=	-81.0	0.0	15.0	100.3
=	-80.3	0.0	15.0	100.4
=	-79.6	0.0	15.0	100.4
=	-79.0	0.0	15.0	100.4
=	-78.3	0.0	15.0	100.4
=	-77.7	0.0	15.0	100.4
=	-77.1	0.0	15.0	100.4
=	-76.4	0.0	15.0	100.4
=	-75.9	0.0	15.0	100.4
=	-75.3	0.0	15.0	100.5
=	-74.7	0.0	15.0	100.5
=	-74.2	0.0	15.0	100.5
=	-73.6	0.0	15.0	100.5
=	-73.1	0.0	15.0	100.6
=	-72.5	0.0	15.0	100.6
=	-71.9	0.0	15.0	100.6
=	-71.3	0.0	15.0	100.6
=	-70.7	0.0	15.0	100.6
=	-70.2	0.0	15.0	100.6
=	-69.5	0.0	15.0	100.6
=	-69.0	0.0	15.0	100.6
=	-68.5	0.0	15.0	100.6
=	-68.0	0.0	15.0	100.7
=	-67.2	0.0	15.0	100.7
=	-66.7	0.0	15.0	100.7
=	-66.1	0.0	15.0	100.7
=	-65.4	0.0	15.0	100.7
=	-64.6	0.0	15.0	100.7
=	-64.0	0.0	15.0	100.8
=	-63.3	0.0	15.0	100.8
=	-62.7	0.0	15.0	100.8
=	-62.0	0.0	15.0	100.8
=	-61.4	0.0	15.0	100.8
=	-60.8	0.0	15.0	100.8
=	-60.3	0.0	15.0	100.8
=	-59.7	0.0	15.0	100.8
=	-59.2	0.0	15.0	100.9
=	-58.6	0.0	15.0	100.9
=	-58.0	0.0	15.0	100.9
=	-57.4	0.0	15.0	100.9
=	-56.8	0.0	15.0	100.8
=	-56.3	0.0	15.0	100.8
=	-55.8	0.0	15.0	100.9
=	-55.3	0.0	15.0	100.9
=	-54.7	0.0	15.0	100.9
=	-54.1	0.0	15.0	100.9
=	-53.5	0.0	15.0	100.9
=	-52.8	0.0	15.0	100.9
=	-52.0	0.0	15.0	100.9
=	-51.4	0.0	15.0	100.9
=	-50.8	0.0	15.0	100.9
=	-50.1	0.0	15.0	100.9
=	-49.6	0.0	15.0	100.9
=	-49.0	0.0	15.0	100.9
=	-48.3	0.0	15.0	100.8
=	-47.7	0.0	15.0	100.8
=	-47.1	0.0	15.0	100.8
=	-46.4	0.0	15.0	100.8
=	-45.9	0.0	15.0	100.7
=	-45.1	0.0	15.0	100.7
=	-44.5	0.0	15.0	100.7
=	-43.8	0.0	15.0	100.7
=	-43.2	0.0	15.0	100.7
=	-42.6	0.0	15.0	100.7
=	-42.0	0.0	15.0	100.6
=	-41.4	0.0	15.0	100.6
=	-40.8	0.0	15.0	100.6
=	-40.1	0.0	15.0	100.6
=	-39.6	0.0	15.0	100.6
=	-39.0	0.0	15.0	100.5
=	-38.5	0.0	15.0	100.5
=	-37.9	0.0	15.0	100.5
=	-37.4	0.0	15.0	100.5
=	-36.8	0.0	15.0	100.5
=	-36.2	0.0	15.0	100.4
=	-35.6	0.0	15.0	100.4
=	-35.0	0.0	15.0	100.4
=	-34.5	0.0	15.0	100.4
=	-33.9	0.0	15.0	100.4
=	-33.3	0.0	15.0	100.4
=	-32.7	0.0	15.0	100.4
=	-32.1	0.0	15.0	100.4
=	-31.3	0.0	15.0	100.4
=	-30.7	0.0	15.0	100.4
=	-30.1	0.0	15.0	100.4
=	-29.6	0.0	15.0	100.4
=	-29.0	0.0	15.0	100.4
=	-28.4	0.0	15.0	100.4
=	-27.8	0.0	15.0	100.4
=	-27.3	0.0	15.0	100.4
=	-26.7	0.0	15.0	100.4
=	-26.1	0.0	15.0	100.4
=	-25.5	0.0	15.0	100.4
=	-24.9	0.0	15.0	100.4
=	-24.4	0.0	15.0	100.4
=	-23.8	0.0	15.0	100.4
=	-23.3	0.0	15.0	100.4
=	-22.7	0.0	15.0	100.4
=	-22.0	0.0	15.0	100.4
=	-21.5	0.0	15.0	100.4
=	-20.8	0.0	15.0	100.4
=	-20.1	0.0	15.0	100.4
=	-19.5	0.0	15.0	100.4
=	-19.0	0.0	15.0	100.4
=	-18.5	0.0	15.0	100.4
=	-17.9	0.0	15.0	100.3
=	-17.3	0.0	15.0	100.3
=	-16.6	0.0	15.0	100.3
=	-16.0	0.0	15.0	100.3
=	-15.3	0.0	15.0	100.3
=	-14.8	0.0	15.0	100.3
=	-14.3	0.0	15.0	100.3
=	-13.7	0.0	15.0	100.3
=	-13.1	0.0	15.0	100.3
=	-12.5	0.0	15.0	100.3
=	-11.9	0.0	15.0	100.2
=	-11.3	0.0	15.0	100.2
=	-10.6	0.0	15.0	100.2
=	-10.0	0.0	15.0	100.2
=	-9.4	0.0	15.0	100.2
=	-8.9	0.0	15.0	100.2
=	-8.3	0.0	15.0	100.1
=	-7.8	0.0	15.0	100.1
=	-7.3	0.0	15.0	100.1
=	-6.7	0.0	15.0	100.0
=	-6.0	0.0	15.0	100.1
=	-5.5	0.0	15.0	100.0
=	-5.0	0.0	15.0	100.0
=	-4.5	0.0	15.0	100.0
=	-3.9	0.0	15.0	100.0
=	-3.4	0.0	15.0	100.0
=	-2.9	0.0	15.0	100.0
=	-2.4	0.0	15.0	100.0
=	-1.8	0.0	15.0	100.0
=	-1.1	0.0	15.0	100.0
=	-0.6	0.0	15.0	100.0
=	0.0	0.0	15.0	100.0
=	0.2	0.0	15.0	100.0
=	0.8	0.0	15.0	100.0
=	1.5	0.0	15.0	100.0
=	2.1	0.0	15.0	100.0
=	2.7	0.0	15.0	100.0
=	3.2	0.0	15.0	100.0
=	3.6	0.0	15.0	100.0
=	4.2	0.0	15.0	100.0
=	4.8	0.0	15.0	100.0
=	5.2	0.0	15.0	100.0
=	5.8	0.0	15.0	100.1
=	6.3	0.0	15.0	100.1
=	7.0	0.0	15.0	100.1
=	7.5	0.0	15.0	100.1
=	8.1	0.0	15.0	100.1
=	8.6	0.0	15.0	100.1
=	9.1	0.0	15.0	100.2
=	9.7	0.0	15.0	100.2
=	10.3	0.0	15.0	100.2
=	11.0	0.0	15.0	100.2
=	11.6	0.0	15.0	100.2
=	12.2	0.0	15.0	100.2
=	12.8	0.0	15.0	100.3
=	13.4	0.0	15.0	100.3
=	14.0	0.0	15.0	100.3
=	14.5	0.0	15.0	100.3
=	15.0	0.0	15.0	100.3
=	15.7	0.0	15.0	100.3
=	16.3	0.0	15.0	100.3
=	16.9	0.0	15.0	100.3
=	17.6	0.0	15.0	100.3
=	18.2	0.0	15.0	100.3
=	18.8	0.0	15.0	100.4
=	19.3	0.0	15.0	100.4
=	19.8	0.0	15.0	100.4
=	20.4	0.0	15.0	100.4
=	21.1	0.0	15.0	100.4
=	21.8	0.0	15.0	100.4
=	22.4	0.0	15.0	100.4
=	23.0	0.0	15.0	100.4
=	23.5	0.0	15.0	100.4
=	24.1	0.0	15.0	100.4
=	24.7	0.0	15.0	100.4
=	25.2	0.0	15.0	100.4
=	25.8	0.0	15.0	100.4
=	26.4	0.0	15.0	100.4
=	27.0	0.0	15.0	100.4
=	27.5	0.0	15.0	100.4
=	28.1	0.0	15.0	100.4
=	28.7	0.0	15.0	100.4
=	29.3	0.0	15.0	100.4
=	29.9	0.0	15.0	100.4
=	30.4	0.0	15.0	100.4
=	31.0	0.0	15.0	100.4
=	31.7	0.0	15.0	100.4
=	32.4	0.0	15.0	100.4
=	33.0	0.0	15.0	100.4
=	33.6	0.0	15.0	100.4
=	34.2	0.0	15.0	100.4
=	34.8	0.0	15.0	100.4
=	35.3	0.0	15.0	100.4
=	35.9	0.0	15.0	100.4
=	36.5	0.0	15.0	100.4
=	37.1	0.0	15.0	100.5
=	37.6	0.0	15.0	100.5
=	38.2	0.0	15.0	100.5
=	38.7	0.0	15.0	100.5
=	39.3	0.0	15.0	100.5
=	39.9	0.0	15.0	100.6
=	40.4	0.0	15.0	100.6
=	41.1	0.0	15.0	100.6
=	41.7	0.0	15.0	100.6
=	42.3	0.0	15.0	100.6
=	42.9	0.0	15.0	100.7
=	43.5	0.0	15.0	100.7
=	44.2	0.0	15.0	100.7
=	44.8	0.0	15.0	100.7
=	45.5	0.0	15.0	100.7
=	46.1	0.0	15.0	100.8
=	46.7	0.0	15.0	100.8
=	47.4	0.0	15.0	100.8
=	48.0	0.0	15.0	100.8
=	48.7	0.0	15.0	100.8
=	49.3	0.0	15.0	100.9
=	49.9	0.0	15.0	100.9
=	50.4	0.0	15.0	100.9
=	51.1	0.0	15.0	100.9
=	51.8	0.0	15.0	100.9
=	52.4	0.0	15.0	100.9
=	53.1	0.0	15.0	100.9
=	53.8	0.0	15.0	100.9
=	54.3	0.0	15.0	100.9
=	55.0	0.0	15.0	100.9
=	55.6	0.0	15.0	100.9
=	56.0	0.0	15.0	100.8
=	56.5	0.0	15.0	100.8
=	57.1	0.0	15.0	100.9
=	57.7	0.0	15.0	100.9
=	58.3	0.0	15.0	100.9
=	58.9	0.0	15.0	100.9
=	59.4	0.0	15.0	100.8
=	60.0	0.0	15.0	100.8
=	60.5	0.0	15.0	100.8
=	61.1	0.0	15.0	100.8
=	61.6	0.0	15.0	100.8
=	62.4	0.0	15.0	100.8
=	63.0	0.0	15.0	100.8
=	63.6	0.0	15.0	100.8
=	64.3	0.0	15.0	100.7
=	65.0	0.0	15.0	100.7
=	65.8	0.0	15.0	100.7
=	66.4	0.0	15.0	100.7
=	66.9	0.0	15.0	100.7
=	67.6	0.0	15.0	100.7
=	68.2	0.0	15.0	100.6
=	68.7	0.0	15.0	100.6
=	69.2	0.0	15.0	100.6
=	69.9	0.0	15.0	100.6
=	70.5	0.0	15.0	100.6
=	71.0	0.0	15.0	100.6
=	71.6	0.0	15.0	100.6
=	72.2	0.0	15.0	100.6
=	72.8	0.0	15.0	100.6
=	73.3	0.0	15.0	100.6
=	73.9	0.0	15.0	100.5
=	74.5	0.0	15.0	100.5
=	75.0	0.0	15.0	100.5
=	75.6	0.0	15.0	100.5
=	76.1	0.0	15.0	100.4
=	76.7	0.0	15.0	100.4
=	77.4	0.0	15.0	100.4
=	78.0	0.0	15.0	100.4
=	78.6	0.0	15.0	100.4
=	79.4	0.0	15.0	100.4
=	79.9	0.0	15.0	100.4
=	80.7	0.0	15.0	100.4
=	81.3	0.0	15.0	100.3
=	81.9	0.0	15.0	100.3
=	82.5	0.0	15.0	100.3
=	83.1	0.0	15.0	100.3
=	83.6	0.0	15.0	100.3
=	84.2	0.0	15.0	100.3
=	84.9	0.0	15.0	100.2
=	85.6	0.0	15.0	100.2
=	86.3	0.0	15.0	100.2
=	86.8	0.0	15.0	100.2
=	87.4	0.0	15.0	100.1
=	88.0	0.0	15.0	100.1
=	88.6	0.0	15.0	100.1
=	89.2	0.0	15.0	100.0
=	89.8	0.0	15.0	100.0
=	90.5	0.0	15.0	100.0
=	91.1	0.0	15.0	100.0
=	91.8	0.0	15.0	100.0
=	92.4	0.0	15.0	100.0
=	93.1	0.0	15.0	99.9
=	93.7	0.0	15.0	99.9
=	94.3	0.0	15.0	99.9
=	95.0	0.0	15.0	99.8
=	95.6	0.0	15.0	99.8
=	96.1	0.0	15.0	99.8
=	96.8	0.0	15.0	99.8
=	97.4	0.0	15.0	99.8
=	97.9	0.0	15.0	99.8
=	98.4	0.0	15.0	99.8
=	98.9	0.0	15.0	99.8
=	99.5	0.0	15.0	99.7
=	100.1	0.0	15.0	99.7
=	100.8	0.0	15.0	99.6
=	101.3	0.0	15.0	99.6
=	102.0	0.0	15.0	99.6
=	102.5	0.0	15.0	99.6
=	103.0	0.0	15.0	99.6
=	103.6	0.0	15.0	99.5
=	104.2	0.0	15.0	99.5
=	104.7	0.0	15.0	99.5
=	105.3	0.0	15.0	99.5
=	106.1	0.0	15.0	99.4
=	106.8	0.0	15.0	99.4
=	107.4	0.0	15.0	99.4
=	108.1	0.0	15.0	99.4
=	108.7	0.0	15.0	99.4
=	109.4	0.0	15.0	99.3
=	110.0	0.0	15.0	99.3
=	110.5	0.0	15.0	99.2
=	111.0	0.0	15.0	99.2
=	111.6	0.0	15.0	99.2
=	112.1	0.0	15.0	99.1
=	112.6	0.0	15.0	99.1
=	113.3	0.0	15.0	99.1
=	114.0	0.0	15.0	99.0
=	114.8	0.0	15.0	99.0
=	115.6	0.0	15.0	99.0
=	116.4	0.0	15.0	99.0
=	116.9	0.0	15.0	99.0
=	117.5	0.0	15.0	98.9
=	118.1	0.0	15.0	98.9
=	118.6	0.0	15.0	98.9
=	119.3	0.0	15.0	98.9
=	119.9	0.0	15.0	98.8
=	120.6	0.0	15.0	98.8
=	121.3	0.0	15.0	98.8
=	121.9	0.0	15.0	98.7
=	122.5	0.0	15.0	98.7
=	123.1	0.0	15.0	98.6
=	123.7	0.0	15.0	98.6
=	124.2	0.0	15.0	98.6
=	124.9	0.0	15.0	98.6
=	125.4	0.0	15.0	98.5
=	126.0	0.0	15.0	98.5
=	126.8	0.0	15.0	98.4
=	127.4	0.0	15.0	98.4
=	128.1	0.0	15.0	98.4
=	128.7	0.0	15.0	98.3
=	129.3	0.0	15.0	98.3
=	130.0	0.0	15.0	98.3
=	130.7	0.0	15.0	98.3
=	131.3	0.0	15.0	98.2
=	131.9	0.0	15.0	98.2
=	132.5	0.0	15.0	98.2
=	133.1	0.0	15.0	98.1
=	133.8	0.0	15.0	98.1
=	134.5	0.0	15.0	98.1
=	135.1	0.0	15.0	98.0
=	135.8	0.0	15.0	98.0
=	136.5	0.0	15.0	98.0
=	137.2	0.0	15.0	97.9
=	137.7	0.0	15.0	97.9
=	138.3	0.0	15.0	97.9
=	138.8	0.0	15.0	97.8
=	139.4	0.0	15.0	97.7
=	139.9	0.0	15.0	97.7
=	140.5	0.0	15.0	97.7
=	141.2	0.0	15.0	97.6
=	141.7	0.0	15.0	97.6
=	142.3	0.0	15.0	97.6
=	143.0	0.0	15.0	97.5
=	143.6	0.0	15.0	97.5
=	144.2	0.0	15.0	97.5
=	144.9	0.0	15.0	97.5
=	145.5	0.0	15.0	97.4
=	146.0	0.0	15.0	97.4
=	146.5	0.0	15.0	97.4
=	147.1	0.0	15.0	97.4
=	147.6	0.0	15.0	97.4
=	148.2	0.0	15.0	97.3
=	148.7	0.0	15.0	97.3
=	149.3	0.0	15.0	97.2
=	150.1	0.0	15.0	97.2
=	150.6	0.0	15.0	97.1
=	151.1	0.0	15.0	97.1
=	151.7	0.0	15.0	97.1
=	152.3	0.0	15.0	97.0
=	153.0	0.0	15.0	97.0
=	153.7	0.0	15.0	96.9
=	154.3	0.0	15.0	96.9
=	154.8	0.0	15.0	96.8
=	155.4	0.0	15.0	96.7
=	156.0	0.0	15.0	96.7
=	156.6	0.0	15.0	96.7
=	157.4	0.0	15.0	96.6
=	158.2	0.0	15.0	96.6
=	159.0	0.0	15.0	96.6
=	159.6	0.0	15.0	96.5
=	160.2	0.0	15.0	96.5
=	160.9	0.0	15.0	96.4
=	161.7	0.0	15.0	96.4
=	162.3	0.0	15.0	96.3
=	162.9	0.0	15.0	96.2
=	163.7	0.0	15.0	96.2
=	164.4	0.0	15.0	96.1
=	164.9	0.0	15.0	96.1
=	165.6	0.0	15.0	96.0
=	166.1	0.0	15.0	96.0
=	166.7	0.0	15.0	95.9
=	167.3	0.0	15.0	95.9
=	167.9	0.0	15.0	95.8
=	168.5	0.0	15.0	95.8
=	169.0	0.0	15.0	95.7
=	169.6	0.0	15.0	95.7
=	170.1	0.0	15.0	95.6
=	170.6	0.0	15.0	95.6
=	171.3	0.0	15.0	95.5
=	172.0	0.0	15.0	95.4
=	172.6	0.0	15.0	95.4
=	173.1	0.0	15.0	95.3
=	173.7	0.0	15.0	95.3
=	174.2	0.0	15.0	95.2
=	174.8	0.0	15.0	95.1
=	175.5	0.0	15.0	95.1
=	176.2	0.0	15.0	95.0
=	176.8	0.0	15.0	94.9
=	177.5	0.0	15.0	94.9
=	178.3	0.0	15.0	94.8
=	178.8	0.0	15.0	94.7
=	179.3	0.0	15.0	94.7
=	179.8	0.0	15.0	94.6
=	180.4	0.0	15.0	94.5
=	180.9	0.0	15.0	94.4
=	181.5	0.0	15.0	94.3
=	182.0	0.0	15.0	94.3
=	182.5	0.0	15.0	94.2
=	183.1	0.0	15.0	94.2
=	183.8	0.0	15.0	94.1
=	184.5	0.0	15.0	94.1
=	185.1	0.0	15.0	94.0
=	185.7	0.0	15.0	93.8
=	186.3	0.0	15.0	93.8
=	186.9	0.0	15.0	93.7
=	187.4	0.0	15.0	93.6
=	188.0	0.0	15.0	93.5
=	188.6	0.0	15.0	93.5
=	189.1	0.0	15.0	93.4
=	189.7	0.0	15.0	93.3
=	190.4	0.0	15.0	93.1
=	191.0	0.0	15.0	92.9
=	191.6	0.0	15.0	92.7
=	192.3	0.0	15.0	92.6
=	193.0	0.0	15.0	92.4
=	193.6	0.0	15.0	92.1
=	194.1	0.0	15.0	91.8
=	194.7	0.0	15.0	91.4
=	195.3	0.0	15.0	90.9
=	196.0	0.0	15.0	90.2
=	196.7	0.0	15.0	89.2
=	197.3	0.0	15.0	88.0
=	197.9	0.0	15.0	86.5
=	198.6	0.0	15.0	84.1
=	199.2	0.0	15.0	81.2
=	199.8	0.0	15.0	77.8
=	200.5	0.0	15.0	72.6
=	201.3	0.0	15.0	66.3
=	202.0	0.0	15.0	60.2
=	202.6	0.0	15.0	55.3
=	203.2	0.0	15.0	50.4
=	203.8	0.0	15.0	45.4
=	204.4	0.0	15.0	40.2
=	205.0	0.0	15.0	35.7
=	205.7	0.0	15.0	31.5
=	206.4	0.0	15.0	27.5
=	207.2	0.0	15.0	24.0
=	207.8	0.0	15.0	21.7
=	208.5	0.0	15.0	19.9
=	209.1	0.0	15.0	18.8
=	209.7	0.0	15.0	18.0
=	210.3	0.0	15.0	17.3
=	211.0	0.0	15.0	16.8
=	211.5	0.0	15.0	16.5
=	212.1	0.0	15.0	16.1
=	212.7	0.0	15.0	15.9
=	213.2	0.0	15.0	15.7
=	213.8	0.0	15.0	15.5
=	214.5	0.0	15.0	15.3
=	215.3	0.0	15.0	15.1
=	216.1	0.0	15.0	14.9
=	216.8	0.0	15.0	14.7
=	217.3	0.0	15.0	14.7
=	217.9	0.0	15.0	14.6
=	218.5	0.0	15.0	14.4
=	219.1	0.0	15.0	14.3
=	219.7	0.0	15.0	14.3
=	220.2	0.0	15.0	14.2
=	220.7	0.0	15.0	14.1
=	221.2	0.0	15.0	14.0
=	221.8	0.0	15.0	13.9
=	222.5	0.0	15.0	13.8
=	223.2	0.0	15.0	13.7
=	223.7	0.0	15.0	13.6
=	224.3	0.0	15.0	13.5
=	224.9	0.0	15.0	13.4
=	225.4	0.0	15.0	13.4
=	226.1	0.0	15.0	13.3
=	226.8	0.0	15.0	13.2
=	227.5	0.0	15.0	13.1
=	228.0	0.0	15.0	13.0
=	228.5	0.0	15.0	12.9
=	229.2	0.0	15.0	12.9
=	229.8	0.0	15.0	12.8
=	230.3	0.0	15.0	12.8
=	230.9	0.0	15.0	12.7
=	231.5	0.0	15.0	12.6
=	232.1	0.0	15.0	12.5
=	232.8	0.0	15.0	12.5
=	233.3	0.0	15.0	12.4
=	234.0	0.0	15.0	12.3
=	234.8	0.0	15.0	12.2
=	235.5	0.0	15.0	12.2
=	236.1	0.0	15.0	12.1
=	236.7	0.0	15.0	12.1
=	237.4	0.0	15.0	12.0
=	238.0	0.0	15.0	12.0
=	238.8	0.0	15.0	11.9
=	239.3	0.0	15.0	11.9
=	239.9	0.0	15.0	11.8
=	240.5	0.0	15.0	11.8
=	241.3	0.0	15.0	11.7
=	241.9	0.0	15.0	11.6
=	242.5	0.0	15.0	11.6
=	243.0	0.0	15.0	11.5
=	243.7	0.0	15.0	11.5
=	244.2	0.0	15.0	11.5
=	244.8	0.0	15.0	11.4
=	245.4	0.0	15.0	11.3
=	246.0	0.0	15.0	11.3
=	246.7	0.0	15.0	11.3
=	247.3	0.0	15.0	11.2
=	247.8	0.0	15.0	11.1
=	248.3	0.0	15.0	11.1
=	248.9	0.0	15.0	11.1
=	249.5	0.0	15.0	11.0
=	250.0	0.0	15.0	11.0
=	250.6	0.0	15.0	10.9
=	251.2	0.0	15.0	10.9
=	251.9	0.0	15.0	10.8
=	252.5	0.0	15.0	10.8
:EOM # End of Measurement
#
# RFA300 ASCII Measurement Dump ( BDS format )
#
# Measurement number 	2
#
%VNR 1.0
%MOD 	RAT
%TYP 	SCN
%SCN 	PRO
%FLD 	ION
%DAT 	10-14-2011
%TIM 	12:00:00
%FSZ 	400	300
%BMT 	PHO	   6.0
%SSD 	1000
%BUP 	0
%BRD 	1000
%FSH 	1
%ASC 	0
%WEG 	30
%GPO 	0
%CPO 	0
%MEA 	6
%PRD 	50,0
%PTS 	829
%STS 	    -259.6	  0.0	   50.0 # Start Scan values in mm ( X , Y , Z )
%EDS 	    259.6	   0.0	   50.0 # End Scan values in mm ( X , Y , Z )
#
#	  X      Y      Z     Dose
#
=	-259.6	0.0	50.0	11.3
=	-258.9	0.0	50.0	11.3
=	-258.2	0.0	50.0	11.4
=	-257.4	0.0	50.0	11.5
=	-256.6	0.0	50.0	11.5
=	-255.8	0.0	50.0	11.6
=	-255.1	0.0	50.0	11.6
=	-254.5	0.0	50.0	11.7
=	-254.0	0.0	50.0	11.8
=	-253.3	0.0	50.0	11.8
=	-252.8	0.0	50.0	11.9
=	-252.3	0.0	50.0	11.9
=	-251.7	0.0	50.0	12.0
=	-251.1	0.0	50.0	12.0
=	-250.4	0.0	50.0	12.1
=	-249.7	0.0	50.0	12.2
=	-249.1	0.0	50.0	12.2
=	-248.5	0.0	50.0	12.3
=	-247.7	0.0	50.0	12.4
=	-247.1	0.0	50.0	12.5
=	-246.6	0.0	50.0	12.5
=	-245.9	0.0	50.0	12.6
=	-245.3	0.0	50.0	12.6
=	-244.7	0.0	50.0	12.7
=	-244.0	0.0	50.0	12.8
=	-243.3	0.0	50.0	12.9
=	-242.7	0.0	50.0	13.0
=	-242.1	0.0	50.0	13.0
=	-241.5	0.0	50.0	13.1
=	-240.9	0.0	50.0	13.1
=	-240.3	0.0	50.0	13.2
=	-239.6	0.0	50.0	13.4
=	-238.9	0.0	50.0	13.4
=	-238.4	0.0	50.0	13.5
=	-237.8	0.0	50.0	13.6
=	-237.2	0.0	50.0	13.7
=	-236.6	0.0	50.0	13.8
=	-235.9	0.0	50.0	13.9
=	-235.1	0.0	50.0	14.0
=	-234.5	0.0	50.0	14.1
=	-233.8	0.0	50.0	14.2
=	-233.1	0.0	50.0	14.4
=	-232.4	0.0	50.0	14.5
=	-231.7	0.0	50.0	14.6
=	-231.1	0.0	50.0	14.7
=	-230.5	0.0	50.0	14.9
=	-229.8	0.0	50.0	15.0
=	-229.0	0.0	50.0	15.1
=	-228.4	0.0	50.0	15.3
=	-227.8	0.0	50.0	15.4
=	-227.0	0.0	50.0	15.6
=	-226.4	0.0	50.0	15.7
=	-225.8	0.0	50.0	15.8
=	-225.3	0.0	50.0	15.9
=	-224.7	0.0	50.0	16.1
=	-224.2	0.0	50.0	16.2
=	-223.6	0.0	50.0	16.4
=	-222.9	0.0	50.0	16.6
=	-222.1	0.0	50.0	16.8
=	-221.5	0.0	50.0	17.0
=	-220.9	0.0	50.0	17.2
=	-220.2	0.0	50.0	17.5
=	-219.5	0.0	50.0	17.9
=	-218.7	0.0	50.0	18.3
=	-218.1	0.0	50.0	18.7
=	-217.6	0.0	50.0	19.1
=	-217.1	0.0	50.0	19.7
=	-216.5	0.0	50.0	20.5
=	-215.9	0.0	50.0	21.2
=	-215.2	0.0	50.0	23.0
=	-214.5	0.0	50.0	24.8
=	-213.8	0.0	50.0	27.3
=	-213.2	0.0	50.0	30.3
=	-212.6	0.0	50.0	33.3
=	-212.0	0.0	50.0	36.5
=	-211.5	0.0	50.0	40.2
=	-210.8	0.0	50.0	44.9
=	-210.1	0.0	50.0	49.8
=	-209.4	0.0	50.0	55.4
=	-208.8	0.0	50.0	60.2
=	-208.2	0.0	50.0	64.8
=	-207.6	0.0	50.0	69.4
=	-207.0	0.0	50.0	73.0
=	-206.5	0.0	50.0	76.4
=	-205.7	0.0	50.0	80.0
=	-205.1	0.0	50.0	82.3
=	-204.3	0.0	50.0	84.5
=	-203.4	0.0	50.0	86.2
=	-202.7	0.0	50.0	87.1
=	-202.0	0.0	50.0	87.9
=	-201.4	0.0	50.0	88.4
=	-200.6	0.0	50.0	89.0
=	-200.0	0.0	50.0	89.3
=	-199.2	0.0	50.0	89.7
=	-198.5	0.0	50.0	90.0
=	-198.0	0.0	50.0	90.2
=	-197.5	0.0	50.0	90.4
=	-196.9	0.0	50.0	90.5
=	-196.3	0.0	50.0	90.7
=	-195.6	0.0	50.0	90.9
=	-194.8	0.0	50.0	91.1
=	-194.2	0.0	50.0	91.3
=	-193.6	0.0	50.0	91.4
=	-192.9	0.0	50.0	91.6
=	-192.2	0.0	50.0	91.7
=	-191.6	0.0	50.0	91.9
=	-191.1	0.0	50.0	92.0
=	-190.4	0.0	50.0	92.1
=	-189.9	0.0	50.0	92.2
=	-189.3	0.0	50.0	92.3
=	-188.7	0.0	50.0	92.4
=	-188.1	0.0	50.0	92.5
=	-187.5	0.0	50.0	92.6
=	-186.8	0.0	50.0	92.7
=	-186.0	0.0	50.0	92.8
=	-185.3	0.0	50.0	92.9
=	-184.7	0.0	50.0	93.0
=	-184.0	0.0	50.0	93.1
=	-183.4	0.0	50.0	93.2
=	-182.8	0.0	50.0	93.2
=	-182.3	0.0	50.0	93.3
=	-181.8	0.0	50.0	93.4
=	-181.0	0.0	50.0	93.5
=	-180.3	0.0	50.0	93.7
=	-179.8	0.0	50.0	93.8
=	-179.1	0.0	50.0	93.9
=	-178.4	0.0	50.0	93.9
=	-177.7	0.0	50.0	94.0
=	-177.1	0.0	50.0	94.0
=	-176.6	0.0	50.0	94.1
=	-175.9	0.0	50.0	94.2
=	-175.3	0.0	50.0	94.2
=	-174.7	0.0	50.0	94.3
=	-173.9	0.0	50.0	94.4
=	-173.4	0.0	50.0	94.4
=	-172.8	0.0	50.0	94.5
=	-172.1	0.0	50.0	94.6
=	-171.4	0.0	50.0	94.7
=	-170.8	0.0	50.0	94.8
=	-170.0	0.0	50.0	94.9
=	-169.4	0.0	50.0	94.9
=	-168.8	0.0	50.0	95.0
=	-168.2	0.0	50.0	95.0
=	-167.4	0.0	50.0	95.1
=	-166.7	0.0	50.0	95.1
=	-166.1	0.0	50.0	95.2
=	-165.6	0.0	50.0	95.3
=	-164.9	0.0	50.0	95.4
=	-164.4	0.0	50.0	95.4
=	-163.8	0.0	50.0	95.5
=	-163.2	0.0	50.0	95.6
=	-162.6	0.0	50.0	95.6
=	-162.0	0.0	50.0	95.6
=	-161.4	0.0	50.0	95.7
=	-160.9	0.0	50.0	95.7
=	-160.2	0.0	50.0	95.8
=	-159.4	0.0	50.0	95.8
=	-158.8	0.0	50.0	95.9
=	-158.1	0.0	50.0	96.0
=	-157.6	0.0	50.0	96.0
=	-157.1	0.0	50.0	96.1
=	-156.5	0.0	50.0	96.1
=	-155.8	0.0	50.0	96.1
=	-155.1	0.0	50.0	96.2
=	-154.3	0.0	50.0	96.2
=	-153.7	0.0	50.0	96.3
=	-153.1	0.0	50.0	96.3
=	-152.6	0.0	50.0	96.3
=	-152.1	0.0	50.0	96.4
=	-151.5	0.0	50.0	96.5
=	-150.9	0.0	50.0	96.5
=	-150.4	0.0	50.0	96.5
=	-149.9	0.0	50.0	96.6
=	-149.1	0.0	50.0	96.6
=	-148.5	0.0	50.0	96.7
=	-147.9	0.0	50.0	96.8
=	-147.4	0.0	50.0	96.8
=	-146.6	0.0	50.0	96.8
=	-145.9	0.0	50.0	96.9
=	-145.3	0.0	50.0	96.9
=	-144.6	0.0	50.0	97.0
=	-143.9	0.0	50.0	97.0
=	-143.3	0.0	50.0	97.0
=	-142.6	0.0	50.0	97.1
=	-141.9	0.0	50.0	97.1
=	-141.3	0.0	50.0	97.1
=	-140.8	0.0	50.0	97.2
=	-140.2	0.0	50.0	97.2
=	-139.5	0.0	50.0	97.2
=	-138.9	0.0	50.0	97.3
=	-138.3	0.0	50.0	97.3
=	-137.7	0.0	50.0	97.4
=	-136.9	0.0	50.0	97.5
=	-136.2	0.0	50.0	97.5
=	-135.6	0.0	50.0	97.5
=	-135.1	0.0	50.0	97.6
=	-134.5	0.0	50.0	97.6
=	-133.9	0.0	50.0	97.6
=	-133.2	0.0	50.0	97.7
=	-132.7	0.0	50.0	97.7
=	-132.1	0.0	50.0	97.7
=	-131.5	0.0	50.0	97.8
=	-130.9	0.0	50.0	97.8
=	-130.3	0.0	50.0	97.8
=	-129.7	0.0	50.0	97.8
=	-129.0	0.0	50.0	97.9
=	-128.3	0.0	50.0	97.9
=	-127.6	0.0	50.0	98.0
=	-126.8	0.0	50.0	98.0
=	-126.1	0.0	50.0	98.1
=	-125.6	0.0	50.0	98.1
=	-124.9	0.0	50.0	98.2
=	-124.1	0.0	50.0	98.2
=	-123.3	0.0	50.0	98.3
=	-122.6	0.0	50.0	98.3
=	-122.0	0.0	50.0	98.3
=	-121.4	0.0	50.0	98.4
=	-120.8	0.0	50.0	98.4
=	-120.2	0.0	50.0	98.4
=	-119.6	0.0	50.0	98.4
=	-118.9	0.0	50.0	98.5
=	-118.3	0.0	50.0	98.5
=	-117.6	0.0	50.0	98.5
=	-117.1	0.0	50.0	98.6
=	-116.6	0.0	50.0	98.6
=	-116.1	0.0	50.0	98.7
=	-115.4	0.0	50.0	98.7
=	-114.9	0.0	50.0	98.8
=	-114.3	0.0	50.0	98.8
=	-113.8	0.0	50.0	98.8
=	-113.2	0.0	50.0	98.8
=	-112.6	0.0	50.0	98.8
=	-111.9	0.0	50.0	98.8
=	-111.2	0.0	50.0	98.9
=	-110.6	0.0	50.0	98.9
=	-110.0	0.0	50.0	98.9
=	-109.3	0.0	50.0	98.9
=	-108.8	0.0	50.0	98.9
=	-108.3	0.0	50.0	99.0
=	-107.7	0.0	50.0	99.0
=	-107.1	0.0	50.0	99.0
=	-106.4	0.0	50.0	99.0
=	-105.8	0.0	50.0	99.1
=	-105.3	0.0	50.0	99.1
=	-104.7	0.0	50.0	99.1
=	-104.2	0.0	50.0	99.2
=	-103.7	0.0	50.0	99.2
=	-103.2	0.0	50.0	99.2
=	-102.6	0.0	50.0	99.3
=	-102.0	0.0	50.0	99.3
=	-101.5	0.0	50.0	99.3
=	-100.9	0.0	50.0	99.3
=	-100.2	0.0	50.0	99.4
=	-99.3	0.0	50.0	99.4
=	-98.6	0.0	50.0	99.5
=	-98.0	0.0	50.0	99.5
=	-97.5	0.0	50.0	99.5
=	-96.9	0.0	50.0	99.5
=	-96.1	0.0	50.0	99.6
=	-95.4	0.0	50.0	99.6
=	-94.9	0.0	50.0	99.6
=	-94.3	0.0	50.0	99.7
=	-93.7	0.0	50.0	99.7
=	-93.1	0.0	50.0	99.7
=	-92.4	0.0	50.0	99.7
=	-91.7	0.0	50.0	99.7
=	-91.1	0.0	50.0	99.8
=	-90.5	0.0	50.0	99.8
=	-89.9	0.0	50.0	99.8
=	-89.2	0.0	50.0	99.8
=	-88.6	0.0	50.0	99.8
=	-88.0	0.0	50.0	99.8
=	-87.4	0.0	50.0	99.8
=	-86.8	0.0	50.0	99.9
=	-86.2	0.0	50.0	99.9
=	-85.7	0.0	50.0	100.0
=	-85.0	0.0	50.0	100.0
=	-84.4	0.0	50.0	100.0
=	-83.8	0.0	50.0	100.0
=	-83.0	0.0	50.0	100.1
=	-82.3	0.0	50.0	100.1
=	-81.7	0.0	50.0	100.1
=	-81.1	0.0	50.0	100.1
=	-80.4	0.0	50.0	100.1
=	-79.7	0.0	50.0	100.2
=	-79.2	0.0	50.0	100.2
=	-78.6	0.0	50.0	100.2
=	-77.9	0.0	50.0	100.2
=	-77.2	0.0	50.0	100.2
=	-76.6	0.0	50.0	100.2
=	-75.9	0.0	50.0	100.3
=	-75.2	0.0	50.0	100.3
=	-74.5	0.0	50.0	100.4
=	-74.0	0.0	50.0	100.4
=	-73.4	0.0	50.0	100.4
=	-72.8	0.0	50.0	100.5
=	-72.1	0.0	50.0	100.5
=	-71.3	0.0	50.0	100.5
=	-70.6	0.0	50.0	100.5
=	-69.9	0.0	50.0	100.5
=	-69.1	0.0	50.0	100.5
=	-68.5	0.0	50.0	100.5
=	-68.0	0.0	50.0	100.5
=	-67.3	0.0	50.0	100.5
=	-66.7	0.0	50.0	100.5
=	-65.9	0.0	50.0	100.6
=	-65.3	0.0	50.0	100.6
=	-64.6	0.0	50.0	100.6
=	-64.1	0.0	50.0	100.6
=	-63.5	0.0	50.0	100.6
=	-62.8	0.0	50.0	100.6
=	-62.3	0.0	50.0	100.6
=	-61.6	0.0	50.0	100.6
=	-60.8	0.0	50.0	100.6
=	-60.2	0.0	50.0	100.6
=	-59.6	0.0	50.0	100.6
=	-59.0	0.0	50.0	100.7
=	-58.4	0.0	50.0	100.7
=	-57.8	0.0	50.0	100.7
=	-57.3	0.0	50.0	100.7
=	-56.7	0.0	50.0	100.7
=	-56.2	0.0	50.0	100.7
=	-55.6	0.0	50.0	100.7
=	-55.0	0.0	50.0	100.7
=	-54.4	0.0	50.0	100.7
=	-53.8	0.0	50.0	100.8
=	-53.3	0.0	50.0	100.8
=	-52.8	0.0	50.0	100.8
=	-52.3	0.0	50.0	100.8
=	-51.8	0.0	50.0	100.8
=	-51.2	0.0	50.0	100.8
=	-50.7	0.0	50.0	100.8
=	-50.1	0.0	50.0	100.7
=	-49.5	0.0	50.0	100.7
=	-48.9	0.0	50.0	100.7
=	-48.2	0.0	50.0	100.7
=	-47.6	0.0	50.0	100.7
=	-46.9	0.0	50.0	100.6
=	-46.3	0.0	50.0	100.6
=	-45.7	0.0	50.0	100.6
=	-45.1	0.0	50.0	100.6
=	-44.5	0.0	50.0	100.6
=	-44.0	0.0	50.0	100.6
=	-43.3	0.0	50.0	100.6
=	-42.8	0.0	50.0	100.6
=	-42.2	0.0	50.0	100.6
=	-41.5	0.0	50.0	100.6
=	-41.0	0.0	50.0	100.5
=	-40.5	0.0	50.0	100.5
=	-40.0	0.0	50.0	100.5
=	-39.4	0.0	50.0	100.5
=	-38.8	0.0	50.0	100.4
=	-38.3	0.0	50.0	100.4
=	-37.5	0.0	50.0	100.4
=	-36.9	0.0	50.0	100.4
=	-36.3	0.0	50.0	100.4
=	-35.6	0.0	50.0	100.4
=	-34.8	0.0	50.0	100.5
=	-34.2	0.0	50.0	100.4
=	-33.6	0.0	50.0	100.4
=	-33.0	0.0	50.0	100.4
=	-32.3	0.0	50.0	100.4
=	-31.6	0.0	50.0	100.3
=	-31.0	0.0	50.0	100.3
=	-30.4	0.0	50.0	100.3
=	-29.8	0.0	50.0	100.3
=	-29.2	0.0	50.0	100.4
=	-28.6	0.0	50.0	100.4
=	-28.0	0.0	50.0	100.4
=	-27.4	0.0	50.0	100.4
=	-26.8	0.0	50.0	100.4
=	-26.1	0.0	50.0	100.4
=	-25.4	0.0	50.0	100.4
=	-24.8	0.0	50.0	100.4
=	-24.2	0.0	50.0	100.4
=	-23.6	0.0	50.0	100.4
=	-23.1	0.0	50.0	100.4
=	-22.6	0.0	50.0	100.4
=	-22.1	0.0	50.0	100.4
=	-21.5	0.0	50.0	100.4
=	-21.0	0.0	50.0	100.4
=	-20.3	0.0	50.0	100.4
=	-19.6	0.0	50.0	100.4
=	-19.0	0.0	50.0	100.4
=	-18.5	0.0	50.0	100.4
=	-17.9	0.0	50.0	100.4
=	-17.2	0.0	50.0	100.4
=	-16.6	0.0	50.0	100.4
=	-15.9	0.0	50.0	100.4
=	-15.4	0.0	50.0	100.4
=	-14.7	0.0	50.0	100.3
=	-14.0	0.0	50.0	100.3
=	-13.3	0.0	50.0	100.3
=	-12.7	0.0	50.0	100.3
=	-12.2	0.0	50.0	100.3
=	-11.7	0.0	50.0	100.3
=	-11.1	0.0	50.0	100.2
=	-10.3	0.0	50.0	100.2
=	-9.7	0.0	50.0	100.2
=	-9.1	0.0	50.0	100.2
=	-8.3	0.0	50.0	100.1
=	-7.6	0.0	50.0	100.1
=	-7.0	0.0	50.0	100.1
=	-6.4	0.0	50.0	100.1
=	-5.9	0.0	50.0	100.1
=	-5.2	0.0	50.0	100.1
=	-4.6	0.0	50.0	100.1
=	-4.1	0.0	50.0	100.0
=	-3.5	0.0	50.0	100.0
=	-2.9	0.0	50.0	100.0
=	-2.4	0.0	50.0	100.0
=	-1.6	0.0	50.0	100.0
=	-1.0	0.0	50.0	100.0
=	-0.5	0.0	50.0	100.0
=	0.0	0.0	50.0	100.0
=	0.5	0.0	50.0	100.0
=	1.0	0.0	50.0	100.0
=	1.6	0.0	50.0	100.0
=	2.4	0.0	50.0	100.0
=	2.9	0.0	50.0	100.0
=	3.5	0.0	50.0	100.0
=	4.1	0.0	50.0	100.0
=	4.6	0.0	50.0	100.1
=	5.2	0.0	50.0	100.1
=	5.9	0.0	50.0	100.1
=	6.4	0.0	50.0	100.1
=	7.0	0.0	50.0	100.1
=	7.6	0.0	50.0	100.1
=	8.3	0.0	50.0	100.1
=	9.1	0.0	50.0	100.2
=	9.7	0.0	50.0	100.2
=	10.3	0.0	50.0	100.2
=	11.1	0.0	50.0	100.2
=	11.7	0.0	50.0	100.3
=	12.2	0.0	50.0	100.3
=	12.7	0.0	50.0	100.3
=	13.3	0.0	50.0	100.3
=	14.0	0.0	50.0	100.3
=	14.7	0.0	50.0	100.3
=	15.4	0.0	50.0	100.4
=	15.9	0.0	50.0	100.4
=	16.6	0.0	50.0	100.4
=	17.2	0.0	50.0	100.4
=	17.9	0.0	50.0	100.4
=	18.5	0.0	50.0	100.4
=	19.0	0.0	50.0	100.4
=	19.6	0.0	50.0	100.4
=	20.3	0.0	50.0	100.4
=	21.0	0.0	50.0	100.4
=	21.5	0.0	50.0	100.4
=	22.1	0.0	50.0	100.4
=	22.6	0.0	50.0	100.4
=	23.1	0.0	50.0	100.4
