:MSR 	25	 # No. of measurement in file
:SYS BDS 0   # Beam Data Scanner System
#
# RFA300 ASCII Measurement Dump ( BDS format )
#
# Measurement number 	1
#
%VNR 1.0
%MOD 	RAT
%TYP 	SCN
%SCN 	PRO
%FLD 	ION
%DAT 	09-22-2011
%TIM 	12:00:00
%FSZ 	040	040
%BMT 	PHO	   6.0
%SSD 	1000
%BUP 	0
%BRD 	1000
%FSH 	1
%ASC 	0
%WEG 	30
%GPO 	0
%CPO 	0
%MEA 	6
%PRD 	15,0
%PTS 	993
%STS 	    -70.3	  0.0	   15.0 # Start Scan values in mm ( X , Y , Z )
%EDS 	    70.3	   0.0	   15.0 # End Scan values in mm ( X , Y , Z )
#
#	  X      Y      Z     Dose
#
=	-70.3	0.0	15.0	0.9
=	-70.0	0.0	15.0	1.0
=	-69.9	0.0	15.0	1.0
=	-69.8	0.0	15.0	1.0
=	-69.7	0.0	15.0	1.0
=	-69.5	0.0	15.0	1.0
=	-69.4	0.0	15.0	1.0
=	-69.3	0.0	15.0	1.0
=	-69.2	0.0	15.0	1.0
=	-69.1	0.0	15.0	1.0
=	-68.9	0.0	15.0	1.0
=	-68.8	0.0	15.0	1.0
=	-68.6	0.0	15.0	1.0
=	-68.5	0.0	15.0	1.0
=	-68.4	0.0	15.0	1.0
=	-68.2	0.0	15.0	1.0
=	-68.1	0.0	15.0	1.0
=	-67.9	0.0	15.0	1.0
=	-67.8	0.0	15.0	1.0
=	-67.6	0.0	15.0	1.0
=	-67.5	0.0	15.0	1.0
=	-67.3	0.0	15.0	1.0
=	-67.2	0.0	15.0	1.0
=	-67.1	0.0	15.0	1.0
=	-66.9	0.0	15.0	1.0
=	-66.7	0.0	15.0	1.0
=	-66.5	0.0	15.0	1.0
=	-66.3	0.0	15.0	1.0
=	-66.2	0.0	15.0	1.0
=	-66.0	0.0	15.0	1.0
=	-65.9	0.0	15.0	1.0
=	-65.8	0.0	15.0	1.0
=	-65.7	0.0	15.0	1.0
=	-65.5	0.0	15.0	1.0
=	-65.4	0.0	15.0	1.0
=	-65.2	0.0	15.0	1.0
=	-65.1	0.0	15.0	1.0
=	-64.9	0.0	15.0	1.0
=	-64.8	0.0	15.0	1.0
=	-64.6	0.0	15.0	1.0
=	-64.5	0.0	15.0	1.0
=	-64.3	0.0	15.0	1.0
=	-64.2	0.0	15.0	1.0
=	-64.0	0.0	15.0	1.0
=	-63.9	0.0	15.0	1.0
=	-63.7	0.0	15.0	1.0
=	-63.6	0.0	15.0	1.0
=	-63.5	0.0	15.0	1.0
=	-63.3	0.0	15.0	1.0
=	-63.2	0.0	15.0	1.0
=	-63.1	0.0	15.0	1.0
=	-63.0	0.0	15.0	1.0
=	-62.8	0.0	15.0	1.0
=	-62.6	0.0	15.0	1.0
=	-62.4	0.0	15.0	1.0
=	-62.2	0.0	15.0	1.0
=	-62.1	0.0	15.0	1.0
=	-62.0	0.0	15.0	1.0
=	-61.8	0.0	15.0	1.0
=	-61.7	0.0	15.0	1.0
=	-61.6	0.0	15.0	1.0
=	-61.5	0.0	15.0	1.0
=	-61.4	0.0	15.0	1.0
=	-61.3	0.0	15.0	1.0
=	-61.2	0.0	15.0	1.0
=	-61.1	0.0	15.0	1.0
=	-60.9	0.0	15.0	1.0
=	-60.8	0.0	15.0	1.0
=	-60.7	0.0	15.0	1.0
=	-60.5	0.0	15.0	1.0
=	-60.4	0.0	15.0	1.0
=	-60.3	0.0	15.0	1.0
=	-60.1	0.0	15.0	1.0
=	-60.0	0.0	15.0	1.0
=	-59.9	0.0	15.0	1.0
=	-59.8	0.0	15.0	1.0
=	-59.6	0.0	15.0	1.0
=	-59.5	0.0	15.0	1.0
=	-59.4	0.0	15.0	1.0
=	-59.2	0.0	15.0	1.0
=	-59.1	0.0	15.0	1.0
=	-58.9	0.0	15.0	1.1
=	-58.7	0.0	15.0	1.1
=	-58.6	0.0	15.0	1.1
=	-58.5	0.0	15.0	1.1
=	-58.4	0.0	15.0	1.1
=	-58.2	0.0	15.0	1.1
=	-58.1	0.0	15.0	1.1
=	-58.0	0.0	15.0	1.1
=	-57.9	0.0	15.0	1.1
=	-57.8	0.0	15.0	1.1
=	-57.7	0.0	15.0	1.1
=	-57.6	0.0	15.0	1.1
=	-57.4	0.0	15.0	1.1
=	-57.3	0.0	15.0	1.1
=	-57.1	0.0	15.0	1.1
=	-57.0	0.0	15.0	1.1
=	-56.9	0.0	15.0	1.1
=	-56.8	0.0	15.0	1.1
=	-56.7	0.0	15.0	1.1
=	-56.5	0.0	15.0	1.1
=	-56.3	0.0	15.0	1.1
=	-56.2	0.0	15.0	1.1
=	-56.1	0.0	15.0	1.1
=	-55.9	0.0	15.0	1.1
=	-55.8	0.0	15.0	1.1
=	-55.7	0.0	15.0	1.2
=	-55.5	0.0	15.0	1.2
=	-55.4	0.0	15.0	1.2
=	-55.3	0.0	15.0	1.2
=	-55.1	0.0	15.0	1.2
=	-55.0	0.0	15.0	1.2
=	-54.9	0.0	15.0	1.2
=	-54.8	0.0	15.0	1.2
=	-54.6	0.0	15.0	1.2
=	-54.4	0.0	15.0	1.2
=	-54.3	0.0	15.0	1.2
=	-54.1	0.0	15.0	1.2
=	-54.0	0.0	15.0	1.2
=	-53.8	0.0	15.0	1.2
=	-53.6	0.0	15.0	1.2
=	-53.4	0.0	15.0	1.2
=	-53.3	0.0	15.0	1.2
=	-53.1	0.0	15.0	1.2
=	-52.9	0.0	15.0	1.2
=	-52.8	0.0	15.0	1.3
=	-52.7	0.0	15.0	1.3
=	-52.5	0.0	15.0	1.3
=	-52.4	0.0	15.0	1.3
=	-52.2	0.0	15.0	1.3
=	-52.1	0.0	15.0	1.3
=	-52.0	0.0	15.0	1.3
=	-51.8	0.0	15.0	1.3
=	-51.7	0.0	15.0	1.3
=	-51.6	0.0	15.0	1.3
=	-51.5	0.0	15.0	1.3
=	-51.3	0.0	15.0	1.3
=	-51.2	0.0	15.0	1.3
=	-51.1	0.0	15.0	1.3
=	-50.9	0.0	15.0	1.3
=	-50.8	0.0	15.0	1.3
=	-50.7	0.0	15.0	1.3
=	-50.6	0.0	15.0	1.3
=	-50.4	0.0	15.0	1.3
=	-50.1	0.0	15.0	1.3
=	-50.0	0.0	15.0	1.3
=	-49.9	0.0	15.0	1.3
=	-49.7	0.0	15.0	1.3
=	-49.5	0.0	15.0	1.3
=	-49.4	0.0	15.0	1.3
=	-49.3	0.0	15.0	1.3
=	-49.2	0.0	15.0	1.3
=	-49.0	0.0	15.0	1.3
=	-48.9	0.0	15.0	1.3
=	-48.7	0.0	15.0	1.3
=	-48.6	0.0	15.0	1.3
=	-48.5	0.0	15.0	1.3
=	-48.4	0.0	15.0	1.4
=	-48.2	0.0	15.0	1.4
=	-48.1	0.0	15.0	1.4
=	-48.0	0.0	15.0	1.4
=	-47.9	0.0	15.0	1.4
=	-47.8	0.0	15.0	1.4
=	-47.6	0.0	15.0	1.4
=	-47.4	0.0	15.0	1.4
=	-47.2	0.0	15.0	1.4
=	-47.1	0.0	15.0	1.4
=	-47.0	0.0	15.0	1.4
=	-46.9	0.0	15.0	1.4
=	-46.7	0.0	15.0	1.4
=	-46.6	0.0	15.0	1.4
=	-46.4	0.0	15.0	1.4
=	-46.2	0.0	15.0	1.5
=	-46.0	0.0	15.0	1.5
=	-45.8	0.0	15.0	1.5
=	-45.7	0.0	15.0	1.5
=	-45.6	0.0	15.0	1.5
=	-45.4	0.0	15.0	1.5
=	-45.2	0.0	15.0	1.5
=	-45.1	0.0	15.0	1.5
=	-44.9	0.0	15.0	1.5
=	-44.8	0.0	15.0	1.5
=	-44.7	0.0	15.0	1.5
=	-44.5	0.0	15.0	1.5
=	-44.3	0.0	15.0	1.5
=	-44.2	0.0	15.0	1.5
=	-44.0	0.0	15.0	1.5
=	-43.8	0.0	15.0	1.5
=	-43.7	0.0	15.0	1.5
=	-43.6	0.0	15.0	1.5
=	-43.3	0.0	15.0	1.6
=	-43.2	0.0	15.0	1.6
=	-43.1	0.0	15.0	1.6
=	-43.0	0.0	15.0	1.6
=	-42.8	0.0	15.0	1.6
=	-42.7	0.0	15.0	1.6
=	-42.5	0.0	15.0	1.6
=	-42.3	0.0	15.0	1.6
=	-42.2	0.0	15.0	1.6
=	-42.1	0.0	15.0	1.6
=	-41.9	0.0	15.0	1.6
=	-41.7	0.0	15.0	1.6
=	-41.6	0.0	15.0	1.6
=	-41.5	0.0	15.0	1.6
=	-41.3	0.0	15.0	1.6
=	-41.2	0.0	15.0	1.6
=	-41.1	0.0	15.0	1.7
=	-40.9	0.0	15.0	1.7
=	-40.8	0.0	15.0	1.7
=	-40.7	0.0	15.0	1.7
=	-40.5	0.0	15.0	1.7
=	-40.3	0.0	15.0	1.7
=	-40.2	0.0	15.0	1.7
=	-40.1	0.0	15.0	1.7
=	-39.9	0.0	15.0	1.7
=	-39.8	0.0	15.0	1.7
=	-39.6	0.0	15.0	1.8
=	-39.5	0.0	15.0	1.8
=	-39.4	0.0	15.0	1.8
=	-39.2	0.0	15.0	1.8
=	-39.1	0.0	15.0	1.8
=	-39.0	0.0	15.0	1.8
=	-38.8	0.0	15.0	1.8
=	-38.6	0.0	15.0	1.8
=	-38.4	0.0	15.0	1.8
=	-38.3	0.0	15.0	1.8
=	-38.2	0.0	15.0	1.8
=	-38.1	0.0	15.0	1.8
=	-37.8	0.0	15.0	1.9
=	-37.7	0.0	15.0	1.9
=	-37.5	0.0	15.0	1.9
=	-37.4	0.0	15.0	1.9
=	-37.2	0.0	15.0	1.9
=	-37.1	0.0	15.0	1.9
=	-37.0	0.0	15.0	1.9
=	-36.7	0.0	15.0	2.0
=	-36.6	0.0	15.0	2.0
=	-36.5	0.0	15.0	2.0
=	-36.4	0.0	15.0	2.0
=	-36.3	0.0	15.0	2.0
=	-36.1	0.0	15.0	2.0
=	-36.0	0.0	15.0	2.0
=	-35.9	0.0	15.0	2.0
=	-35.8	0.0	15.0	2.0
=	-35.6	0.0	15.0	2.1
=	-35.5	0.0	15.0	2.1
=	-35.4	0.0	15.0	2.1
=	-35.2	0.0	15.0	2.1
=	-35.0	0.0	15.0	2.1
=	-34.8	0.0	15.0	2.1
=	-34.7	0.0	15.0	2.1
=	-34.6	0.0	15.0	2.1
=	-34.5	0.0	15.0	2.2
=	-34.4	0.0	15.0	2.2
=	-34.2	0.0	15.0	2.2
=	-34.0	0.0	15.0	2.2
=	-33.9	0.0	15.0	2.2
=	-33.8	0.0	15.0	2.2
=	-33.6	0.0	15.0	2.2
=	-33.5	0.0	15.0	2.2
=	-33.4	0.0	15.0	2.3
=	-33.3	0.0	15.0	2.3
=	-33.1	0.0	15.0	2.3
=	-33.0	0.0	15.0	2.3
=	-32.8	0.0	15.0	2.3
=	-32.6	0.0	15.0	2.3
=	-32.4	0.0	15.0	2.3
=	-32.2	0.0	15.0	2.4
=	-32.1	0.0	15.0	2.4
=	-32.0	0.0	15.0	2.4
=	-31.8	0.0	15.0	2.5
=	-31.7	0.0	15.0	2.5
=	-31.5	0.0	15.0	2.6
=	-31.3	0.0	15.0	2.6
=	-31.2	0.0	15.0	2.6
=	-31.0	0.0	15.0	2.6
=	-30.9	0.0	15.0	2.7
=	-30.7	0.0	15.0	2.7
=	-30.6	0.0	15.0	2.7
=	-30.5	0.0	15.0	2.8
=	-30.3	0.0	15.0	2.8
=	-30.2	0.0	15.0	2.8
=	-30.1	0.0	15.0	2.8
=	-29.9	0.0	15.0	2.9
=	-29.8	0.0	15.0	2.9
=	-29.6	0.0	15.0	3.0
=	-29.5	0.0	15.0	3.0
=	-29.2	0.0	15.0	3.1
=	-29.1	0.0	15.0	3.2
=	-29.0	0.0	15.0	3.2
=	-28.8	0.0	15.0	3.3
=	-28.7	0.0	15.0	3.4
=	-28.4	0.0	15.0	3.5
=	-28.2	0.0	15.0	3.6
=	-28.1	0.0	15.0	3.7
=	-27.9	0.0	15.0	3.8
=	-27.8	0.0	15.0	3.9
=	-27.7	0.0	15.0	3.9
=	-27.5	0.0	15.0	4.1
=	-27.3	0.0	15.0	4.2
=	-27.2	0.0	15.0	4.3
=	-27.1	0.0	15.0	4.4
=	-26.9	0.0	15.0	4.5
=	-26.7	0.0	15.0	4.7
=	-26.6	0.0	15.0	4.8
=	-26.4	0.0	15.0	5.1
=	-26.3	0.0	15.0	5.3
=	-26.1	0.0	15.0	5.5
=	-25.9	0.0	15.0	5.8
=	-25.7	0.0	15.0	6.1
=	-25.6	0.0	15.0	6.4
=	-25.4	0.0	15.0	6.8
=	-25.2	0.0	15.0	7.2
=	-25.0	0.0	15.0	7.6
=	-24.9	0.0	15.0	8.1
=	-24.8	0.0	15.0	8.4
=	-24.6	0.0	15.0	8.8
=	-24.5	0.0	15.0	9.2
=	-24.4	0.0	15.0	9.6
=	-24.2	0.0	15.0	10.3
=	-24.0	0.0	15.0	11.1
=	-23.9	0.0	15.0	11.8
=	-23.8	0.0	15.0	12.3
=	-23.6	0.0	15.0	13.5
=	-23.4	0.0	15.0	14.6
=	-23.2	0.0	15.0	15.8
=	-23.0	0.0	15.0	17.7
=	-22.9	0.0	15.0	18.8
=	-22.8	0.0	15.0	19.8
=	-22.7	0.0	15.0	20.8
=	-22.5	0.0	15.0	21.8
=	-22.4	0.0	15.0	23.1
=	-22.3	0.0	15.0	24.6
=	-22.1	0.0	15.0	26.1
=	-22.0	0.0	15.0	28.1
=	-21.8	0.0	15.0	29.9
=	-21.7	0.0	15.0	31.6
=	-21.5	0.0	15.0	32.9
=	-21.4	0.0	15.0	34.3
=	-21.3	0.0	15.0	36.3
=	-21.1	0.0	15.0	37.7
=	-20.9	0.0	15.0	40.2
=	-20.8	0.0	15.0	42.2
=	-20.6	0.0	15.0	44.3
=	-20.5	0.0	15.0	45.5
=	-20.4	0.0	15.0	47.4
=	-20.3	0.0	15.0	49.2
=	-20.1	0.0	15.0	50.8
=	-20.0	0.0	15.0	53.3
=	-19.8	0.0	15.0	54.8
=	-19.7	0.0	15.0	56.4
=	-19.5	0.0	15.0	58.6
=	-19.4	0.0	15.0	61.1
=	-19.3	0.0	15.0	62.6
=	-19.1	0.0	15.0	64.1
=	-19.0	0.0	15.0	65.9
=	-18.8	0.0	15.0	67.7
=	-18.7	0.0	15.0	69.6
=	-18.5	0.0	15.0	71.4
=	-18.4	0.0	15.0	73.6
=	-18.3	0.0	15.0	75.0
=	-18.1	0.0	15.0	76.5
=	-18.0	0.0	15.0	77.8
=	-17.9	0.0	15.0	79.0
=	-17.7	0.0	15.0	80.8
=	-17.6	0.0	15.0	82.9
=	-17.4	0.0	15.0	84.3
=	-17.2	0.0	15.0	85.9
=	-17.1	0.0	15.0	87.2
=	-17.0	0.0	15.0	88.1
=	-16.9	0.0	15.0	89.1
=	-16.7	0.0	15.0	90.7
=	-16.5	0.0	15.0	92.3
=	-16.4	0.0	15.0	93.4
=	-16.3	0.0	15.0	94.2
=	-16.1	0.0	15.0	94.8
=	-16.0	0.0	15.0	95.4
=	-15.9	0.0	15.0	95.8
=	-15.8	0.0	15.0	96.3
=	-15.6	0.0	15.0	97.1
=	-15.5	0.0	15.0	97.7
=	-15.2	0.0	15.0	98.4
=	-15.1	0.0	15.0	98.9
=	-14.9	0.0	15.0	99.4
=	-14.8	0.0	15.0	99.8
=	-14.6	0.0	15.0	100.2
=	-14.5	0.0	15.0	100.3
=	-14.3	0.0	15.0	100.5
=	-14.1	0.0	15.0	100.7
=	-14.0	0.0	15.0	100.8
=	-13.9	0.0	15.0	101.1
=	-13.7	0.0	15.0	101.4
=	-13.6	0.0	15.0	101.5
=	-13.4	0.0	15.0	101.6
=	-13.3	0.0	15.0	101.7
=	-13.1	0.0	15.0	101.8
=	-13.0	0.0	15.0	101.9
=	-12.8	0.0	15.0	102.0
=	-12.7	0.0	15.0	102.1
=	-12.6	0.0	15.0	102.1
=	-12.5	0.0	15.0	102.2
=	-12.3	0.0	15.0	102.2
=	-12.2	0.0	15.0	102.2
=	-12.0	0.0	15.0	102.3
=	-11.9	0.0	15.0	102.3
=	-11.7	0.0	15.0	102.3
=	-11.6	0.0	15.0	102.3
=	-11.5	0.0	15.0	102.4
=	-11.3	0.0	15.0	102.4
=	-11.2	0.0	15.0	102.4
=	-11.0	0.0	15.0	102.4
=	-10.9	0.0	15.0	102.4
=	-10.7	0.0	15.0	102.4
=	-10.6	0.0	15.0	102.4
=	-10.4	0.0	15.0	102.4
=	-10.3	0.0	15.0	102.4
=	-10.1	0.0	15.0	102.4
=	-10.0	0.0	15.0	102.4
=	-9.9	0.0	15.0	102.4
=	-9.8	0.0	15.0	102.4
=	-9.7	0.0	15.0	102.4
=	-9.6	0.0	15.0	102.3
=	-9.4	0.0	15.0	102.3
=	-9.3	0.0	15.0	102.3
=	-9.1	0.0	15.0	102.3
=	-9.0	0.0	15.0	102.3
=	-8.9	0.0	15.0	102.3
=	-8.8	0.0	15.0	102.3
=	-8.7	0.0	15.0	102.2
=	-8.5	0.0	15.0	102.2
=	-8.3	0.0	15.0	102.2
=	-8.2	0.0	15.0	102.1
=	-8.0	0.0	15.0	102.1
=	-7.9	0.0	15.0	102.1
=	-7.8	0.0	15.0	102.1
=	-7.7	0.0	15.0	102.0
=	-7.6	0.0	15.0	102.0
=	-7.5	0.0	15.0	102.0
=	-7.3	0.0	15.0	101.9
=	-7.2	0.0	15.0	101.9
=	-7.1	0.0	15.0	101.9
=	-6.9	0.0	15.0	101.8
=	-6.8	0.0	15.0	101.8
=	-6.7	0.0	15.0	101.7
=	-6.6	0.0	15.0	101.7
=	-6.5	0.0	15.0	101.7
=	-6.4	0.0	15.0	101.7
=	-6.2	0.0	15.0	101.7
=	-6.1	0.0	15.0	101.7
=	-5.9	0.0	15.0	101.7
=	-5.8	0.0	15.0	101.6
=	-5.7	0.0	15.0	101.6
=	-5.6	0.0	15.0	101.6
=	-5.5	0.0	15.0	101.5
=	-5.3	0.0	15.0	101.5
=	-5.2	0.0	15.0	101.4
=	-5.0	0.0	15.0	101.3
=	-4.8	0.0	15.0	101.2
=	-4.6	0.0	15.0	101.2
=	-4.5	0.0	15.0	101.1
=	-4.3	0.0	15.0	101.1
=	-4.2	0.0	15.0	101.1
=	-4.1	0.0	15.0	101.0
=	-3.9	0.0	15.0	101.0
=	-3.8	0.0	15.0	101.0
=	-3.7	0.0	15.0	100.9
=	-3.6	0.0	15.0	100.9
=	-3.4	0.0	15.0	100.9
=	-3.3	0.0	15.0	100.9
=	-3.1	0.0	15.0	100.8
=	-2.9	0.0	15.0	100.8
=	-2.8	0.0	15.0	100.7
=	-2.6	0.0	15.0	100.7
=	-2.5	0.0	15.0	100.7
=	-2.4	0.0	15.0	100.7
=	-2.3	0.0	15.0	100.7
=	-2.1	0.0	15.0	100.6
=	-2.0	0.0	15.0	100.6
=	-1.9	0.0	15.0	100.6
=	-1.8	0.0	15.0	100.5
=	-1.7	0.0	15.0	100.5
=	-1.6	0.0	15.0	100.5
=	-1.4	0.0	15.0	100.4
=	-1.3	0.0	15.0	100.4
=	-1.2	0.0	15.0	100.4
=	-1.1	0.0	15.0	100.3
=	-0.9	0.0	15.0	100.2
=	-0.8	0.0	15.0	100.2
=	-0.7	0.0	15.0	100.2
=	-0.6	0.0	15.0	100.2
=	-0.5	0.0	15.0	100.2
=	-0.3	0.0	15.0	100.1
=	-0.2	0.0	15.0	100.1
=	-0.1	0.0	15.0	100.0
=	0.1	0.0	15.0	100.0
=	0.2	0.0	15.0	99.9
=	0.4	0.0	15.0	99.9
=	0.6	0.0	15.0	99.8
=	0.7	0.0	15.0	99.8
=	0.9	0.0	15.0	99.7
=	1.0	0.0	15.0	99.7
=	1.2	0.0	15.0	99.6
=	1.4	0.0	15.0	99.6
=	1.6	0.0	15.0	99.6
=	1.8	0.0	15.0	99.5
=	1.9	0.0	15.0	99.5
=	2.0	0.0	15.0	99.4
=	2.1	0.0	15.0	99.4
=	2.2	0.0	15.0	99.4
=	2.3	0.0	15.0	99.3
=	2.4	0.0	15.0	99.3
=	2.5	0.0	15.0	99.2
=	2.7	0.0	15.0	99.2
=	2.8	0.0	15.0	99.1
=	3.0	0.0	15.0	99.1
=	3.1	0.0	15.0	99.0
=	3.2	0.0	15.0	99.0
=	3.3	0.0	15.0	99.0
=	3.5	0.0	15.0	99.0
=	3.7	0.0	15.0	98.9
=	3.8	0.0	15.0	98.9
=	3.9	0.0	15.0	98.8
=	4.1	0.0	15.0	98.8
=	4.2	0.0	15.0	98.7
=	4.4	0.0	15.0	98.7
=	4.5	0.0	15.0	98.6
=	4.6	0.0	15.0	98.6
=	4.7	0.0	15.0	98.6
=	4.9	0.0	15.0	98.5
=	5.1	0.0	15.0	98.5
=	5.2	0.0	15.0	98.5
=	5.3	0.0	15.0	98.4
=	5.5	0.0	15.0	98.4
=	5.6	0.0	15.0	98.3
=	5.7	0.0	15.0	98.3
=	5.8	0.0	15.0	98.3
=	5.9	0.0	15.0	98.2
=	6.1	0.0	15.0	98.2
=	6.2	0.0	15.0	98.2
=	6.3	0.0	15.0	98.1
=	6.4	0.0	15.0	98.1
=	6.6	0.0	15.0	98.1
=	6.7	0.0	15.0	98.0
=	6.8	0.0	15.0	98.0
=	6.9	0.0	15.0	98.0
=	7.0	0.0	15.0	98.0
=	7.1	0.0	15.0	98.0
=	7.2	0.0	15.0	98.0
=	7.4	0.0	15.0	97.9
=	7.5	0.0	15.0	97.9
=	7.6	0.0	15.0	97.9
=	7.7	0.0	15.0	97.8
=	7.8	0.0	15.0	97.8
=	7.9	0.0	15.0	97.7
=	8.0	0.0	15.0	97.7
=	8.1	0.0	15.0	97.6
=	8.2	0.0	15.0	97.6
=	8.4	0.0	15.0	97.5
=	8.5	0.0	15.0	97.4
=	8.6	0.0	15.0	97.3
=	8.8	0.0	15.0	97.3
=	8.9	0.0	15.0	97.2
=	9.0	0.0	15.0	97.2
=	9.2	0.0	15.0	97.2
=	9.4	0.0	15.0	97.1
=	9.6	0.0	15.0	97.1
=	9.7	0.0	15.0	97.1
=	9.9	0.0	15.0	97.0
=	10.0	0.0	15.0	96.9
=	10.2	0.0	15.0	96.9
=	10.3	0.0	15.0	96.9
=	10.4	0.0	15.0	96.8
=	10.6	0.0	15.0	96.6
=	10.7	0.0	15.0	96.5
=	10.9	0.0	15.0	96.3
=	11.0	0.0	15.0	96.2
=	11.3	0.0	15.0	96.1
=	11.4	0.0	15.0	96.0
=	11.6	0.0	15.0	95.9
=	11.8	0.0	15.0	95.8
=	11.9	0.0	15.0	95.7
=	12.0	0.0	15.0	95.7
=	12.1	0.0	15.0	95.6
=	12.3	0.0	15.0	95.6
=	12.4	0.0	15.0	95.4
=	12.5	0.0	15.0	95.2
=	12.6	0.0	15.0	95.1
=	12.7	0.0	15.0	95.0
=	12.8	0.0	15.0	95.0
=	12.9	0.0	15.0	94.9
=	13.0	0.0	15.0	94.9
=	13.1	0.0	15.0	94.8
=	13.3	0.0	15.0	94.7
=	13.5	0.0	15.0	94.5
=	13.6	0.0	15.0	94.3
=	13.8	0.0	15.0	94.0
=	13.9	0.0	15.0	93.7
=	14.1	0.0	15.0	93.5
=	14.4	0.0	15.0	93.1
=	14.5	0.0	15.0	92.9
=	14.6	0.0	15.0	92.5
=	14.8	0.0	15.0	92.2
=	14.9	0.0	15.0	91.9
=	15.1	0.0	15.0	91.6
=	15.2	0.0	15.0	91.2
=	15.4	0.0	15.0	90.9
=	15.5	0.0	15.0	90.3
=	15.7	0.0	15.0	89.8
=	15.8	0.0	15.0	89.2
=	15.9	0.0	15.0	88.7
=	16.1	0.0	15.0	88.0
=	16.2	0.0	15.0	87.3
=	16.3	0.0	15.0	86.9
=	16.4	0.0	15.0	86.5
=	16.5	0.0	15.0	85.8
=	16.7	0.0	15.0	85.1
=	16.8	0.0	15.0	84.3
=	16.9	0.0	15.0	83.3
=	17.1	0.0	15.0	82.2
=	17.2	0.0	15.0	81.2
=	17.4	0.0	15.0	79.9
=	17.5	0.0	15.0	78.4
=	17.6	0.0	15.0	77.4
=	17.8	0.0	15.0	76.4
=	17.9	0.0	15.0	75.0
=	18.1	0.0	15.0	73.6
=	18.2	0.0	15.0	71.6
=	18.4	0.0	15.0	69.8
=	18.6	0.0	15.0	68.4
=	18.7	0.0	15.0	67.3
=	18.8	0.0	15.0	66.2
=	18.9	0.0	15.0	64.9
=	19.1	0.0	15.0	62.6
=	19.3	0.0	15.0	60.2
=	19.4	0.0	15.0	58.6
=	19.5	0.0	15.0	57.2
=	19.7	0.0	15.0	55.5
=	19.8	0.0	15.0	54.2
=	19.9	0.0	15.0	53.0
=	20.0	0.0	15.0	51.3
=	20.2	0.0	15.0	49.5
=	20.3	0.0	15.0	47.9
=	20.5	0.0	15.0	45.4
=	20.7	0.0	15.0	43.0
=	20.8	0.0	15.0	41.3
=	20.9	0.0	15.0	40.1
=	21.1	0.0	15.0	38.6
=	21.2	0.0	15.0	37.2
=	21.3	0.0	15.0	35.5
=	21.5	0.0	15.0	33.4
=	21.7	0.0	15.0	31.6
=	21.8	0.0	15.0	29.8
=	21.9	0.0	15.0	28.6
=	22.1	0.0	15.0	27.3
=	22.2	0.0	15.0	26.0
=	22.3	0.0	15.0	24.9
=	22.5	0.0	15.0	23.4
=	22.6	0.0	15.0	22.1
=	22.7	0.0	15.0	20.9
=	22.9	0.0	15.0	19.4
=	23.0	0.0	15.0	18.5
=	23.1	0.0	15.0	17.4
=	23.2	0.0	15.0	16.4
=	23.4	0.0	15.0	15.5
=	23.5	0.0	15.0	14.7
=	23.6	0.0	15.0	14.0
=	23.7	0.0	15.0	13.3
=	23.8	0.0	15.0	12.5
=	24.0	0.0	15.0	11.8
=	24.1	0.0	15.0	11.2
=	24.2	0.0	15.0	10.7
=	24.3	0.0	15.0	10.3
=	24.5	0.0	15.0	9.7
=	24.6	0.0	15.0	9.2
=	24.7	0.0	15.0	8.8
=	24.8	0.0	15.0	8.4
=	25.0	0.0	15.0	7.9
=	25.1	0.0	15.0	7.5
=	25.3	0.0	15.0	7.1
=	25.4	0.0	15.0	6.8
=	25.5	0.0	15.0	6.5
=	25.7	0.0	15.0	6.3
=	25.8	0.0	15.0	6.1
=	25.9	0.0	15.0	5.8
=	26.0	0.0	15.0	5.6
=	26.1	0.0	15.0	5.4
=	26.2	0.0	15.0	5.2
=	26.4	0.0	15.0	4.9
=	26.6	0.0	15.0	4.8
=	26.7	0.0	15.0	4.6
=	26.8	0.0	15.0	4.5
=	27.0	0.0	15.0	4.4
=	27.1	0.0	15.0	4.3
=	27.2	0.0	15.0	4.2
=	27.3	0.0	15.0	4.1
=	27.4	0.0	15.0	4.0
=	27.5	0.0	15.0	3.9
=	27.7	0.0	15.0	3.8
=	27.8	0.0	15.0	3.7
=	28.0	0.0	15.0	3.7
=	28.1	0.0	15.0	3.6
=	28.3	0.0	15.0	3.5
=	28.4	0.0	15.0	3.4
=	28.6	0.0	15.0	3.3
=	28.7	0.0	15.0	3.2
=	28.8	0.0	15.0	3.2
=	28.9	0.0	15.0	3.1
=	29.0	0.0	15.0	3.1
=	29.1	0.0	15.0	3.1
=	29.3	0.0	15.0	3.0
=	29.4	0.0	15.0	2.9
=	29.6	0.0	15.0	2.9
=	29.7	0.0	15.0	2.8
=	29.9	0.0	15.0	2.8
=	30.0	0.0	15.0	2.7
=	30.2	0.0	15.0	2.7
=	30.3	0.0	15.0	2.6
=	30.5	0.0	15.0	2.5
=	30.7	0.0	15.0	2.5
=	30.8	0.0	15.0	2.5
=	31.0	0.0	15.0	2.5
=	31.1	0.0	15.0	2.4
=	31.2	0.0	15.0	2.4
=	31.4	0.0	15.0	2.3
=	31.6	0.0	15.0	2.3
=	31.8	0.0	15.0	2.3
=	32.0	0.0	15.0	2.2
=	32.1	0.0	15.0	2.2
=	32.3	0.0	15.0	2.2
=	32.4	0.0	15.0	2.2
=	32.6	0.0	15.0	2.2
=	32.7	0.0	15.0	2.2
=	32.9	0.0	15.0	2.2
=	33.0	0.0	15.0	2.1
=	33.1	0.0	15.0	2.1
=	33.3	0.0	15.0	2.1
=	33.4	0.0	15.0	2.1
=	33.6	0.0	15.0	2.1
=	33.7	0.0	15.0	2.1
=	33.8	0.0	15.0	2.0
=	33.9	0.0	15.0	2.0
=	34.1	0.0	15.0	2.0
=	34.2	0.0	15.0	2.0
=	34.3	0.0	15.0	2.0
=	34.5	0.0	15.0	2.0
=	34.6	0.0	15.0	2.0
=	34.8	0.0	15.0	2.0
=	34.9	0.0	15.0	2.0
=	35.1	0.0	15.0	1.9
=	35.2	0.0	15.0	1.9
=	35.4	0.0	15.0	1.9
=	35.6	0.0	15.0	1.9
=	35.8	0.0	15.0	1.9
=	35.9	0.0	15.0	1.9
=	36.0	0.0	15.0	1.9
=	36.2	0.0	15.0	1.9
=	36.3	0.0	15.0	1.9
=	36.4	0.0	15.0	1.8
=	36.5	0.0	15.0	1.8
=	36.6	0.0	15.0	1.8
=	36.9	0.0	15.0	1.8
=	37.0	0.0	15.0	1.8
=	37.1	0.0	15.0	1.8
=	37.3	0.0	15.0	1.8
=	37.5	0.0	15.0	1.8
=	37.7	0.0	15.0	1.8
=	37.9	0.0	15.0	1.7
=	38.1	0.0	15.0	1.7
=	38.2	0.0	15.0	1.7
=	38.4	0.0	15.0	1.7
=	38.5	0.0	15.0	1.7
=	38.7	0.0	15.0	1.7
=	38.8	0.0	15.0	1.7
=	39.0	0.0	15.0	1.7
=	39.1	0.0	15.0	1.6
=	39.2	0.0	15.0	1.6
=	39.3	0.0	15.0	1.6
=	39.4	0.0	15.0	1.6
=	39.6	0.0	15.0	1.6
=	39.8	0.0	15.0	1.6
=	39.9	0.0	15.0	1.6
=	40.0	0.0	15.0	1.6
=	40.2	0.0	15.0	1.6
=	40.3	0.0	15.0	1.6
=	40.4	0.0	15.0	1.6
=	40.6	0.0	15.0	1.5
=	40.8	0.0	15.0	1.5
=	40.9	0.0	15.0	1.5
=	41.0	0.0	15.0	1.5
=	41.2	0.0	15.0	1.5
=	41.4	0.0	15.0	1.5
=	41.5	0.0	15.0	1.5
=	41.6	0.0	15.0	1.5
=	41.8	0.0	15.0	1.5
=	42.0	0.0	15.0	1.5
=	42.1	0.0	15.0	1.5
=	42.2	0.0	15.0	1.5
=	42.3	0.0	15.0	1.4
=	42.5	0.0	15.0	1.4
=	42.6	0.0	15.0	1.4
=	42.7	0.0	15.0	1.4
=	42.9	0.0	15.0	1.4
=	43.0	0.0	15.0	1.4
=	43.2	0.0	15.0	1.4
=	43.3	0.0	15.0	1.4
=	43.4	0.0	15.0	1.4
=	43.6	0.0	15.0	1.4
=	43.7	0.0	15.0	1.4
=	43.8	0.0	15.0	1.4
=	43.9	0.0	15.0	1.4
=	44.1	0.0	15.0	1.4
=	44.2	0.0	15.0	1.4
=	44.3	0.0	15.0	1.3
=	44.4	0.0	15.0	1.3
=	44.6	0.0	15.0	1.3
=	44.8	0.0	15.0	1.3
=	45.0	0.0	15.0	1.3
=	45.2	0.0	15.0	1.3
=	45.4	0.0	15.0	1.3
=	45.5	0.0	15.0	1.3
=	45.6	0.0	15.0	1.3
=	45.7	0.0	15.0	1.3
=	45.8	0.0	15.0	1.3
=	46.0	0.0	15.0	1.3
=	46.1	0.0	15.0	1.3
=	46.3	0.0	15.0	1.3
=	46.4	0.0	15.0	1.3
=	46.5	0.0	15.0	1.3
=	46.7	0.0	15.0	1.3
=	46.8	0.0	15.0	1.2
=	47.0	0.0	15.0	1.2
=	47.1	0.0	15.0	1.2
=	47.2	0.0	15.0	1.2
=	47.3	0.0	15.0	1.2
=	47.5	0.0	15.0	1.2
=	47.6	0.0	15.0	1.2
=	47.8	0.0	15.0	1.2
=	47.9	0.0	15.0	1.2
=	48.0	0.0	15.0	1.2
=	48.1	0.0	15.0	1.2
=	48.3	0.0	15.0	1.2
=	48.4	0.0	15.0	1.2
=	48.5	0.0	15.0	1.2
=	48.7	0.0	15.0	1.2
=	48.8	0.0	15.0	1.2
=	49.0	0.0	15.0	1.2
=	49.1	0.0	15.0	1.2
=	49.3	0.0	15.0	1.2
=	49.5	0.0	15.0	1.1
=	49.7	0.0	15.0	1.1
=	49.8	0.0	15.0	1.1
=	50.0	0.0	15.0	1.1
=	50.1	0.0	15.0	1.1
=	50.2	0.0	15.0	1.1
=	50.4	0.0	15.0	1.1
=	50.6	0.0	15.0	1.1
=	50.8	0.0	15.0	1.1
=	50.9	0.0	15.0	1.1
=	51.0	0.0	15.0	1.1
=	51.1	0.0	15.0	1.1
=	51.2	0.0	15.0	1.1
=	51.3	0.0	15.0	1.1
=	51.4	0.0	15.0	1.1
=	51.6	0.0	15.0	1.1
=	51.7	0.0	15.0	1.1
=	51.8	0.0	15.0	1.1
=	52.0	0.0	15.0	1.1
=	52.1	0.0	15.0	1.1
=	52.3	0.0	15.0	1.1
=	52.4	0.0	15.0	1.1
=	52.5	0.0	15.0	1.1
=	52.6	0.0	15.0	1.1
=	52.8	0.0	15.0	1.1
=	52.9	0.0	15.0	1.1
=	53.0	0.0	15.0	1.1
=	53.2	0.0	15.0	1.1
=	53.3	0.0	15.0	1.1
=	53.5	0.0	15.0	1.1
=	53.7	0.0	15.0	1.1
=	53.8	0.0	15.0	1.1
=	53.9	0.0	15.0	1.1
=	54.1	0.0	15.0	1.1
=	54.2	0.0	15.0	1.1
=	54.4	0.0	15.0	1.1
=	54.5	0.0	15.0	1.1
=	54.6	0.0	15.0	1.0
=	54.8	0.0	15.0	1.0
=	54.9	0.0	15.0	1.0
=	55.1	0.0	15.0	1.0
=	55.3	0.0	15.0	1.0
=	55.5	0.0	15.0	1.0
=	55.7	0.0	15.0	1.0
=	55.8	0.0	15.0	1.0
=	55.9	0.0	15.0	1.0
=	56.0	0.0	15.0	1.0
=	56.2	0.0	15.0	1.0
=	56.3	0.0	15.0	1.0
=	56.4	0.0	15.0	1.0
=	56.6	0.0	15.0	1.0
=	56.8	0.0	15.0	1.0
=	56.9	0.0	15.0	1.0
=	57.0	0.0	15.0	1.0
=	57.2	0.0	15.0	1.0
=	57.3	0.0	15.0	1.0
=	57.4	0.0	15.0	0.9
=	57.6	0.0	15.0	0.9
=	57.7	0.0	15.0	0.9
=	57.8	0.0	15.0	0.9
=	58.0	0.0	15.0	1.0
=	58.2	0.0	15.0	0.9
=	58.3	0.0	15.0	0.9
=	58.4	0.0	15.0	0.9
=	58.6	0.0	15.0	0.9
=	58.7	0.0	15.0	0.9
=	58.9	0.0	15.0	0.9
=	59.1	0.0	15.0	0.9
=	59.2	0.0	15.0	0.9
=	59.3	0.0	15.0	0.9
=	59.4	0.0	15.0	0.9
=	59.5	0.0	15.0	0.9
=	59.7	0.0	15.0	0.9
=	59.8	0.0	15.0	0.9
=	60.0	0.0	15.0	0.9
=	60.1	0.0	15.0	0.9
=	60.3	0.0	15.0	0.9
=	60.5	0.0	15.0	0.9
=	60.6	0.0	15.0	0.9
=	60.9	0.0	15.0	0.9
=	61.0	0.0	15.0	0.9
=	61.1	0.0	15.0	0.9
=	61.3	0.0	15.0	0.9
=	61.4	0.0	15.0	0.9
=	61.5	0.0	15.0	0.9
=	61.7	0.0	15.0	0.9
=	61.8	0.0	15.0	0.9
=	61.9	0.0	15.0	0.9
=	62.0	0.0	15.0	0.9
=	62.2	0.0	15.0	0.9
=	62.3	0.0	15.0	0.9
=	62.5	0.0	15.0	0.9
=	62.6	0.0	15.0	0.9
=	62.7	0.0	15.0	0.9
=	62.9	0.0	15.0	0.9
=	63.0	0.0	15.0	0.9
=	63.2	0.0	15.0	0.9
=	63.4	0.0	15.0	0.9
=	63.5	0.0	15.0	0.9
=	63.7	0.0	15.0	0.9
=	63.8	0.0	15.0	0.9
=	64.0	0.0	15.0	0.9
=	64.1	0.0	15.0	0.9
=	64.2	0.0	15.0	0.9
=	64.3	0.0	15.0	0.9
=	64.5	0.0	15.0	0.9
=	64.6	0.0	15.0	0.9
=	64.7	0.0	15.0	0.9
=	64.8	0.0	15.0	0.9
=	65.0	0.0	15.0	0.9
=	65.1	0.0	15.0	0.9
=	65.3	0.0	15.0	0.9
=	65.4	0.0	15.0	0.9
=	65.5	0.0	15.0	0.9
=	65.8	0.0	15.0	0.9
=	66.0	0.0	15.0	0.8
=	66.1	0.0	15.0	0.8
=	66.3	0.0	15.0	0.8
=	66.4	0.0	15.0	0.8
=	66.6	0.0	15.0	0.8
=	66.8	0.0	15.0	0.8
=	67.1	0.0	15.0	0.8
=	67.3	0.0	15.0	0.8
=	67.4	0.0	15.0	0.8
=	67.5	0.0	15.0	0.8
=	67.6	0.0	15.0	0.8
=	67.9	0.0	15.0	0.8
=	68.0	0.0	15.0	0.8
=	68.2	0.0	15.0	0.8
=	68.3	0.0	15.0	0.8
=	68.5	0.0	15.0	0.8
=	68.6	0.0	15.0	0.8
=	68.7	0.0	15.0	0.8
=	68.8	0.0	15.0	0.8
=	69.0	0.0	15.0	0.8
=	69.1	0.0	15.0	0.8
=	69.2	0.0	15.0	0.8
=	69.3	0.0	15.0	0.8
=	69.5	0.0	15.0	0.8
=	69.6	0.0	15.0	0.8
=	69.8	0.0	15.0	0.8
=	69.9	0.0	15.0	0.8
=	70.1	0.0	15.0	0.8
=	70.2	0.0	15.0	0.8
=	70.3	0.0	15.0	0.8
:EOM # End of Measurement
#
# RFA300 ASCII Measurement Dump ( BDS format )
#
# Measurement number 	2
#
%VNR 1.0
%MOD 	RAT
%TYP 	SCN
%SCN 	PRO
%FLD 	ION
%DAT 	09-22-2011
%TIM 	12:00:00
%FSZ 	040	040
%BMT 	PHO	   6.0
%SSD 	1000
%BUP 	0
%BRD 	1000
%FSH 	1
%ASC 	0
%WEG 	30
%GPO 	0
%CPO 	0
%MEA 	6
%PRD 	50,0
%PTS 	979
%STS 	    -71.0	  0.0	   50.0 # Start Scan values in mm ( X , Y , Z )
%EDS 	    71.0	   0.0	   50.0 # End Scan values in mm ( X , Y , Z )
#
#	  X      Y      Z     Dose
#
=	-71.0	0.0	50.0	1.1
=	-70.9	0.0	50.0	1.1
=	-70.7	0.0	50.0	1.1
=	-70.6	0.0	50.0	1.1
=	-70.5	0.0	50.0	1.1
=	-70.3	0.0	50.0	1.1
=	-70.2	0.0	50.0	1.1
=	-70.1	0.0	50.0	1.1
=	-69.9	0.0	50.0	1.1
=	-69.7	0.0	50.0	1.1
=	-69.6	0.0	50.0	1.1
=	-69.3	0.0	50.0	1.1
=	-69.2	0.0	50.0	1.1
=	-69.0	0.0	50.0	1.1
=	-68.9	0.0	50.0	1.1
=	-68.7	0.0	50.0	1.1
=	-68.6	0.0	50.0	1.1
=	-68.5	0.0	50.0	1.1
=	-68.4	0.0	50.0	1.1
=	-68.2	0.0	50.0	1.1
=	-68.1	0.0	50.0	1.1
=	-67.9	0.0	50.0	1.1
=	-67.8	0.0	50.0	1.1
=	-67.7	0.0	50.0	1.1
=	-67.4	0.0	50.0	1.1
=	-67.2	0.0	50.0	1.2
=	-67.0	0.0	50.0	1.2
=	-66.9	0.0	50.0	1.2
=	-66.7	0.0	50.0	1.2
=	-66.6	0.0	50.0	1.2
=	-66.4	0.0	50.0	1.2
=	-66.2	0.0	50.0	1.2
=	-66.0	0.0	50.0	1.2
=	-65.8	0.0	50.0	1.2
=	-65.7	0.0	50.0	1.2
=	-65.5	0.0	50.0	1.2
=	-65.4	0.0	50.0	1.2
=	-65.2	0.0	50.0	1.2
=	-65.0	0.0	50.0	1.2
=	-64.9	0.0	50.0	1.2
=	-64.7	0.0	50.0	1.2
=	-64.6	0.0	50.0	1.2
=	-64.5	0.0	50.0	1.2
=	-64.3	0.0	50.0	1.2
=	-64.0	0.0	50.0	1.2
=	-63.9	0.0	50.0	1.2
=	-63.7	0.0	50.0	1.2
=	-63.5	0.0	50.0	1.2
=	-63.4	0.0	50.0	1.2
=	-63.3	0.0	50.0	1.2
=	-63.1	0.0	50.0	1.2
=	-63.0	0.0	50.0	1.2
=	-62.8	0.0	50.0	1.3
=	-62.6	0.0	50.0	1.3
=	-62.4	0.0	50.0	1.3
=	-62.2	0.0	50.0	1.3
=	-62.0	0.0	50.0	1.3
=	-61.9	0.0	50.0	1.3
=	-61.7	0.0	50.0	1.3
=	-61.5	0.0	50.0	1.3
=	-61.4	0.0	50.0	1.3
=	-61.2	0.0	50.0	1.3
=	-61.1	0.0	50.0	1.3
=	-60.9	0.0	50.0	1.3
=	-60.7	0.0	50.0	1.3
=	-60.5	0.0	50.0	1.3
=	-60.3	0.0	50.0	1.3
=	-60.2	0.0	50.0	1.3
=	-60.1	0.0	50.0	1.3
=	-59.9	0.0	50.0	1.3
=	-59.8	0.0	50.0	1.3
=	-59.6	0.0	50.0	1.3
=	-59.4	0.0	50.0	1.3
=	-59.3	0.0	50.0	1.3
=	-59.1	0.0	50.0	1.3
=	-59.0	0.0	50.0	1.3
=	-58.9	0.0	50.0	1.3
=	-58.7	0.0	50.0	1.3
=	-58.6	0.0	50.0	1.3
=	-58.4	0.0	50.0	1.3
=	-58.3	0.0	50.0	1.3
=	-58.2	0.0	50.0	1.3
=	-58.1	0.0	50.0	1.3
=	-57.9	0.0	50.0	1.4
=	-57.7	0.0	50.0	1.4
=	-57.5	0.0	50.0	1.4
=	-57.4	0.0	50.0	1.4
=	-57.3	0.0	50.0	1.4
=	-57.1	0.0	50.0	1.4
=	-57.0	0.0	50.0	1.4
=	-56.9	0.0	50.0	1.4
=	-56.7	0.0	50.0	1.4
=	-56.6	0.0	50.0	1.4
=	-56.5	0.0	50.0	1.4
=	-56.3	0.0	50.0	1.4
=	-56.2	0.0	50.0	1.4
=	-56.0	0.0	50.0	1.4
=	-55.9	0.0	50.0	1.4
=	-55.8	0.0	50.0	1.4
=	-55.6	0.0	50.0	1.4
=	-55.5	0.0	50.0	1.4
=	-55.4	0.0	50.0	1.4
=	-55.2	0.0	50.0	1.4
=	-55.1	0.0	50.0	1.4
=	-55.0	0.0	50.0	1.4
=	-54.8	0.0	50.0	1.4
=	-54.7	0.0	50.0	1.5
=	-54.5	0.0	50.0	1.5
=	-54.4	0.0	50.0	1.5
=	-54.3	0.0	50.0	1.5
=	-54.1	0.0	50.0	1.5
=	-53.9	0.0	50.0	1.5
=	-53.7	0.0	50.0	1.5
=	-53.6	0.0	50.0	1.5
=	-53.5	0.0	50.0	1.5
=	-53.4	0.0	50.0	1.5
=	-53.3	0.0	50.0	1.5
=	-53.1	0.0	50.0	1.5
=	-53.0	0.0	50.0	1.5
=	-52.9	0.0	50.0	1.5
=	-52.7	0.0	50.0	1.5
=	-52.6	0.0	50.0	1.5
=	-52.4	0.0	50.0	1.5
=	-52.3	0.0	50.0	1.5
=	-52.2	0.0	50.0	1.5
=	-52.1	0.0	50.0	1.5
=	-51.9	0.0	50.0	1.6
=	-51.8	0.0	50.0	1.6
=	-51.7	0.0	50.0	1.6
=	-51.6	0.0	50.0	1.6
=	-51.4	0.0	50.0	1.6
=	-51.3	0.0	50.0	1.6
=	-51.2	0.0	50.0	1.6
=	-51.1	0.0	50.0	1.6
=	-50.9	0.0	50.0	1.6
=	-50.8	0.0	50.0	1.6
=	-50.7	0.0	50.0	1.6
=	-50.6	0.0	50.0	1.6
=	-50.5	0.0	50.0	1.6
=	-50.4	0.0	50.0	1.6
=	-50.2	0.0	50.0	1.7
=	-50.0	0.0	50.0	1.7
=	-49.9	0.0	50.0	1.7
=	-49.8	0.0	50.0	1.7
=	-49.6	0.0	50.0	1.7
=	-49.5	0.0	50.0	1.7
=	-49.4	0.0	50.0	1.7
=	-49.2	0.0	50.0	1.7
=	-49.1	0.0	50.0	1.7
=	-48.9	0.0	50.0	1.7
=	-48.8	0.0	50.0	1.7
=	-48.7	0.0	50.0	1.7
=	-48.5	0.0	50.0	1.7
=	-48.4	0.0	50.0	1.7
=	-48.3	0.0	50.0	1.7
=	-48.2	0.0	50.0	1.8
=	-48.0	0.0	50.0	1.8
=	-47.9	0.0	50.0	1.8
=	-47.7	0.0	50.0	1.8
=	-47.5	0.0	50.0	1.8
=	-47.4	0.0	50.0	1.8
=	-47.3	0.0	50.0	1.8
=	-47.1	0.0	50.0	1.8
=	-47.0	0.0	50.0	1.9
=	-46.7	0.0	50.0	1.9
=	-46.6	0.0	50.0	1.9
=	-46.4	0.0	50.0	1.9
=	-46.3	0.0	50.0	1.9
=	-46.2	0.0	50.0	1.9
=	-46.0	0.0	50.0	1.9
=	-45.9	0.0	50.0	1.9
=	-45.8	0.0	50.0	1.9
=	-45.6	0.0	50.0	1.9
=	-45.5	0.0	50.0	1.9
=	-45.3	0.0	50.0	1.9
=	-45.2	0.0	50.0	1.9
=	-45.1	0.0	50.0	2.0
=	-44.9	0.0	50.0	2.0
=	-44.7	0.0	50.0	2.0
=	-44.5	0.0	50.0	2.0
=	-44.3	0.0	50.0	2.0
=	-44.2	0.0	50.0	2.0
=	-44.1	0.0	50.0	2.0
=	-43.9	0.0	50.0	2.1
=	-43.8	0.0	50.0	2.1
=	-43.7	0.0	50.0	2.1
=	-43.5	0.0	50.0	2.1
=	-43.4	0.0	50.0	2.1
=	-43.3	0.0	50.0	2.1
=	-43.2	0.0	50.0	2.1
=	-43.0	0.0	50.0	2.1
=	-42.9	0.0	50.0	2.1
=	-42.8	0.0	50.0	2.1
=	-42.6	0.0	50.0	2.2
=	-42.5	0.0	50.0	2.2
=	-42.3	0.0	50.0	2.2
=	-42.2	0.0	50.0	2.2
=	-42.0	0.0	50.0	2.2
=	-41.9	0.0	50.0	2.2
=	-41.7	0.0	50.0	2.2
=	-41.6	0.0	50.0	2.3
=	-41.5	0.0	50.0	2.3
=	-41.4	0.0	50.0	2.3
=	-41.2	0.0	50.0	2.3
=	-41.1	0.0	50.0	2.3
=	-41.0	0.0	50.0	2.3
=	-40.9	0.0	50.0	2.3
=	-40.7	0.0	50.0	2.3
=	-40.5	0.0	50.0	2.3
=	-40.4	0.0	50.0	2.4
=	-40.3	0.0	50.0	2.4
=	-40.0	0.0	50.0	2.4
=	-39.9	0.0	50.0	2.4
=	-39.8	0.0	50.0	2.5
=	-39.7	0.0	50.0	2.5
=	-39.5	0.0	50.0	2.5
=	-39.4	0.0	50.0	2.5
=	-39.2	0.0	50.0	2.5
=	-39.1	0.0	50.0	2.5
=	-38.9	0.0	50.0	2.5
=	-38.7	0.0	50.0	2.6
=	-38.6	0.0	50.0	2.6
=	-38.4	0.0	50.0	2.6
=	-38.3	0.0	50.0	2.6
=	-38.1	0.0	50.0	2.6
=	-38.0	0.0	50.0	2.6
=	-37.9	0.0	50.0	2.6
=	-37.7	0.0	50.0	2.6
=	-37.5	0.0	50.0	2.7
=	-37.4	0.0	50.0	2.7
=	-37.2	0.0	50.0	2.7
=	-37.0	0.0	50.0	2.7
=	-36.8	0.0	50.0	2.8
=	-36.7	0.0	50.0	2.8
=	-36.6	0.0	50.0	2.8
=	-36.4	0.0	50.0	2.8
=	-36.2	0.0	50.0	2.9
=	-36.1	0.0	50.0	2.9
=	-36.0	0.0	50.0	2.9
=	-35.8	0.0	50.0	2.9
=	-35.7	0.0	50.0	3.0
=	-35.6	0.0	50.0	3.0
=	-35.5	0.0	50.0	3.0
=	-35.3	0.0	50.0	3.0
=	-35.2	0.0	50.0	3.1
=	-35.1	0.0	50.0	3.1
=	-34.9	0.0	50.0	3.1
=	-34.8	0.0	50.0	3.2
=	-34.6	0.0	50.0	3.2
=	-34.4	0.0	50.0	3.2
=	-34.3	0.0	50.0	3.2
=	-34.2	0.0	50.0	3.2
=	-34.0	0.0	50.0	3.2
=	-33.9	0.0	50.0	3.3
=	-33.8	0.0	50.0	3.3
=	-33.6	0.0	50.0	3.3
=	-33.4	0.0	50.0	3.4
=	-33.3	0.0	50.0	3.4
=	-33.2	0.0	50.0	3.5
=	-33.1	0.0	50.0	3.5
=	-32.9	0.0	50.0	3.5
=	-32.8	0.0	50.0	3.5
=	-32.6	0.0	50.0	3.5
=	-32.4	0.0	50.0	3.6
=	-32.3	0.0	50.0	3.6
=	-32.2	0.0	50.0	3.6
=	-32.1	0.0	50.0	3.7
=	-31.9	0.0	50.0	3.7
=	-31.8	0.0	50.0	3.7
=	-31.7	0.0	50.0	3.8
=	-31.5	0.0	50.0	3.9
=	-31.3	0.0	50.0	3.9
=	-31.2	0.0	50.0	4.0
=	-31.1	0.0	50.0	4.0
=	-31.0	0.0	50.0	4.1
=	-30.8	0.0	50.0	4.1
=	-30.7	0.0	50.0	4.2
=	-30.6	0.0	50.0	4.2
=	-30.4	0.0	50.0	4.3
=	-30.2	0.0	50.0	4.4
=	-30.0	0.0	50.0	4.5
=	-29.9	0.0	50.0	4.5
=	-29.8	0.0	50.0	4.6
=	-29.7	0.0	50.0	4.6
=	-29.6	0.0	50.0	4.7
=	-29.5	0.0	50.0	4.8
=	-29.3	0.0	50.0	4.9
=	-29.1	0.0	50.0	5.0
=	-29.0	0.0	50.0	5.0
=	-28.9	0.0	50.0	5.2
=	-28.7	0.0	50.0	5.4
=	-28.6	0.0	50.0	5.5
=	-28.4	0.0	50.0	5.6
=	-28.3	0.0	50.0	5.7
=	-28.1	0.0	50.0	5.8
=	-28.0	0.0	50.0	5.8
=	-27.9	0.0	50.0	6.0
=	-27.7	0.0	50.0	6.2
=	-27.6	0.0	50.0	6.3
=	-27.5	0.0	50.0	6.5
=	-27.4	0.0	50.0	6.7
=	-27.2	0.0	50.0	7.0
=	-27.1	0.0	50.0	7.1
=	-27.0	0.0	50.0	7.2
=	-26.8	0.0	50.0	7.4
=	-26.7	0.0	50.0	7.6
=	-26.5	0.0	50.0	7.9
=	-26.4	0.0	50.0	8.2
=	-26.2	0.0	50.0	8.5
=	-26.1	0.0	50.0	8.7
=	-26.0	0.0	50.0	9.0
=	-25.9	0.0	50.0	9.3
=	-25.8	0.0	50.0	9.7
=	-25.7	0.0	50.0	10.0
=	-25.5	0.0	50.0	10.5
=	-25.4	0.0	50.0	10.9
=	-25.3	0.0	50.0	11.3
=	-25.1	0.0	50.0	11.6
=	-25.0	0.0	50.0	12.0
=	-24.9	0.0	50.0	12.5
=	-24.7	0.0	50.0	13.3
=	-24.6	0.0	50.0	14.1
=	-24.4	0.0	50.0	15.0
=	-24.3	0.0	50.0	15.6
=	-24.2	0.0	50.0	16.3
=	-24.1	0.0	50.0	17.0
=	-23.9	0.0	50.0	18.1
=	-23.8	0.0	50.0	18.9
=	-23.7	0.0	50.0	19.7
=	-23.5	0.0	50.0	21.4
=	-23.4	0.0	50.0	22.5
=	-23.2	0.0	50.0	23.7
=	-23.1	0.0	50.0	25.2
=	-22.9	0.0	50.0	26.3
=	-22.8	0.0	50.0	27.5
=	-22.7	0.0	50.0	28.8
=	-22.6	0.0	50.0	30.1
=	-22.5	0.0	50.0	31.6
=	-22.3	0.0	50.0	33.6
=	-22.2	0.0	50.0	34.9
=	-22.1	0.0	50.0	36.2
=	-21.9	0.0	50.0	37.7
=	-21.8	0.0	50.0	39.5
=	-21.6	0.0	50.0	41.0
=	-21.5	0.0	50.0	43.0
=	-21.4	0.0	50.0	44.5
=	-21.2	0.0	50.0	46.1
=	-21.1	0.0	50.0	47.6
=	-21.0	0.0	50.0	49.3
=	-20.9	0.0	50.0	50.8
=	-20.8	0.0	50.0	52.1
=	-20.6	0.0	50.0	54.3
=	-20.4	0.0	50.0	56.4
=	-20.3	0.0	50.0	58.0
=	-20.2	0.0	50.0	59.5
=	-20.0	0.0	50.0	61.2
=	-19.8	0.0	50.0	63.5
=	-19.7	0.0	50.0	65.1
=	-19.6	0.0	50.0	66.5
=	-19.5	0.0	50.0	68.0
=	-19.4	0.0	50.0	69.2
=	-19.2	0.0	50.0	70.9
=	-19.1	0.0	50.0	72.0
=	-19.0	0.0	50.0	73.1
=	-18.9	0.0	50.0	74.6
=	-18.7	0.0	50.0	76.5
=	-18.6	0.0	50.0	77.9
=	-18.4	0.0	50.0	79.6
=	-18.3	0.0	50.0	81.2
=	-18.1	0.0	50.0	82.6
=	-18.0	0.0	50.0	84.1
=	-17.8	0.0	50.0	85.9
=	-17.6	0.0	50.0	87.6
=	-17.4	0.0	50.0	89.1
=	-17.2	0.0	50.0	90.4
=	-17.1	0.0	50.0	91.1
=	-17.0	0.0	50.0	92.1
=	-16.8	0.0	50.0	93.1
=	-16.6	0.0	50.0	94.2
=	-16.5	0.0	50.0	94.9
=	-16.3	0.0	50.0	95.4
=	-16.2	0.0	50.0	96.0
=	-16.1	0.0	50.0	96.3
=	-15.9	0.0	50.0	97.0
=	-15.7	0.0	50.0	97.3
=	-15.6	0.0	50.0	97.5
=	-15.4	0.0	50.0	98.0
=	-15.3	0.0	50.0	98.3
=	-15.1	0.0	50.0	98.6
=	-15.0	0.0	50.0	98.9
=	-14.9	0.0	50.0	99.2
