:MSR 	5	 # No. of measurement in file
:SYS BDS 0   # Beam Data Scanner System
#
# RFA300 ASCII Measurement Dump ( BDS format )
#
# Measurement number 	1
#
%VNR 1.0
%MOD 	RAT
%TYP 	SCN
%SCN 	PRO
%FLD 	ION
%DAT 	10-14-2011
%TIM 	12:00:00
%FSZ 	400	300
%BMT 	PHO	   6.0
%SSD 	1000
%BUP 	0
%BRD 	1000
%FSH 	1
%ASC 	0
%WEG 	15
%GPO 	0
%CPO 	0
%MEA 	6
%PRD 	15,0
%PTS 	901
%STS 	    0.0	  -273.8	   15.0 # Start Scan values in mm ( X , Y , Z )
%EDS 	    0.0	   273.8	   15.0 # End Scan values in mm ( X , Y , Z )
#
#	  X      Y      Z     Dose
#
=	0.0	-273.8	15.0	7.3
=	0.0	-273.2	15.0	7.3
=	0.0	-272.5	15.0	7.4
=	0.0	-271.9	15.0	7.4
=	0.0	-271.1	15.0	7.5
=	0.0	-270.6	15.0	7.5
=	0.0	-270.1	15.0	7.5
=	0.0	-269.4	15.0	7.5
=	0.0	-268.7	15.0	7.6
=	0.0	-268.0	15.0	7.6
=	0.0	-267.5	15.0	7.6
=	0.0	-266.9	15.0	7.7
=	0.0	-266.3	15.0	7.7
=	0.0	-265.8	15.0	7.7
=	0.0	-265.2	15.0	7.8
=	0.0	-264.5	15.0	7.8
=	0.0	-264.0	15.0	7.8
=	0.0	-263.3	15.0	7.9
=	0.0	-262.6	15.0	7.9
=	0.0	-261.8	15.0	7.9
=	0.0	-261.1	15.0	8.0
=	0.0	-260.4	15.0	8.1
=	0.0	-259.9	15.0	8.1
=	0.0	-259.3	15.0	8.1
=	0.0	-258.7	15.0	8.2
=	0.0	-258.1	15.0	8.2
=	0.0	-257.5	15.0	8.2
=	0.0	-256.7	15.0	8.3
=	0.0	-256.0	15.0	8.3
=	0.0	-255.3	15.0	8.4
=	0.0	-254.6	15.0	8.4
=	0.0	-254.0	15.0	8.5
=	0.0	-253.2	15.0	8.5
=	0.0	-252.5	15.0	8.6
=	0.0	-251.7	15.0	8.7
=	0.0	-251.0	15.0	8.7
=	0.0	-250.5	15.0	8.7
=	0.0	-250.0	15.0	8.8
=	0.0	-249.5	15.0	8.8
=	0.0	-249.0	15.0	8.9
=	0.0	-248.4	15.0	8.9
=	0.0	-247.9	15.0	9.0
=	0.0	-247.3	15.0	9.0
=	0.0	-246.6	15.0	9.1
=	0.0	-246.1	15.0	9.1
=	0.0	-245.4	15.0	9.2
=	0.0	-244.9	15.0	9.2
=	0.0	-244.4	15.0	9.3
=	0.0	-243.7	15.0	9.4
=	0.0	-243.2	15.0	9.4
=	0.0	-242.5	15.0	9.5
=	0.0	-241.8	15.0	9.5
=	0.0	-241.2	15.0	9.6
=	0.0	-240.6	15.0	9.6
=	0.0	-240.0	15.0	9.7
=	0.0	-239.4	15.0	9.7
=	0.0	-238.8	15.0	9.8
=	0.0	-238.0	15.0	9.9
=	0.0	-237.4	15.0	10.0
=	0.0	-236.7	15.0	10.0
=	0.0	-236.1	15.0	10.1
=	0.0	-235.6	15.0	10.1
=	0.0	-235.1	15.0	10.2
=	0.0	-234.4	15.0	10.2
=	0.0	-233.9	15.0	10.3
=	0.0	-233.3	15.0	10.4
=	0.0	-232.7	15.0	10.5
=	0.0	-232.0	15.0	10.5
=	0.0	-231.3	15.0	10.6
=	0.0	-230.6	15.0	10.7
=	0.0	-230.0	15.0	10.8
=	0.0	-229.5	15.0	10.9
=	0.0	-228.9	15.0	11.0
=	0.0	-228.2	15.0	11.1
=	0.0	-227.6	15.0	11.1
=	0.0	-226.9	15.0	11.2
=	0.0	-226.2	15.0	11.3
=	0.0	-225.5	15.0	11.4
=	0.0	-224.9	15.0	11.5
=	0.0	-224.2	15.0	11.6
=	0.0	-223.5	15.0	11.7
=	0.0	-223.0	15.0	11.8
=	0.0	-222.4	15.0	11.9
=	0.0	-221.9	15.0	12.0
=	0.0	-221.2	15.0	12.1
=	0.0	-220.7	15.0	12.2
=	0.0	-220.1	15.0	12.3
=	0.0	-219.5	15.0	12.4
=	0.0	-218.8	15.0	12.5
=	0.0	-218.2	15.0	12.6
=	0.0	-217.6	15.0	12.7
=	0.0	-217.1	15.0	12.9
=	0.0	-216.4	15.0	13.0
=	0.0	-215.8	15.0	13.1
=	0.0	-215.1	15.0	13.3
=	0.0	-214.5	15.0	13.4
=	0.0	-214.0	15.0	13.6
=	0.0	-213.3	15.0	13.8
=	0.0	-212.8	15.0	14.0
=	0.0	-212.2	15.0	14.3
=	0.0	-211.5	15.0	14.7
=	0.0	-210.7	15.0	15.3
=	0.0	-210.0	15.0	15.9
=	0.0	-209.3	15.0	16.8
=	0.0	-208.7	15.0	17.8
=	0.0	-208.1	15.0	19.4
=	0.0	-207.4	15.0	21.8
=	0.0	-206.6	15.0	25.6
=	0.0	-205.9	15.0	29.9
=	0.0	-205.2	15.0	34.7
=	0.0	-204.5	15.0	40.2
=	0.0	-203.8	15.0	45.7
=	0.0	-203.3	15.0	51.1
=	0.0	-202.7	15.0	56.2
=	0.0	-202.2	15.0	61.4
=	0.0	-201.6	15.0	67.1
=	0.0	-201.0	15.0	72.1
=	0.0	-200.5	15.0	76.2
=	0.0	-200.0	15.0	80.4
=	0.0	-199.4	15.0	84.1
=	0.0	-198.8	15.0	87.2
=	0.0	-198.2	15.0	89.5
=	0.0	-197.6	15.0	91.3
=	0.0	-197.0	15.0	92.9
=	0.0	-196.4	15.0	93.9
=	0.0	-195.9	15.0	94.6
=	0.0	-195.3	15.0	95.2
=	0.0	-194.7	15.0	95.6
=	0.0	-194.1	15.0	96.0
=	0.0	-193.5	15.0	96.3
=	0.0	-192.9	15.0	96.5
=	0.0	-192.3	15.0	96.7
=	0.0	-191.8	15.0	96.9
=	0.0	-191.2	15.0	97.0
=	0.0	-190.5	15.0	97.2
=	0.0	-189.9	15.0	97.3
=	0.0	-189.3	15.0	97.4
=	0.0	-188.6	15.0	97.5
=	0.0	-187.9	15.0	97.6
=	0.0	-187.2	15.0	97.7
=	0.0	-186.7	15.0	97.8
=	0.0	-186.1	15.0	97.9
=	0.0	-185.5	15.0	97.9
=	0.0	-184.8	15.0	98.0
=	0.0	-184.1	15.0	98.1
=	0.0	-183.5	15.0	98.1
=	0.0	-182.8	15.0	98.2
=	0.0	-182.2	15.0	98.2
=	0.0	-181.6	15.0	98.3
=	0.0	-181.0	15.0	98.3
=	0.0	-180.5	15.0	98.3
=	0.0	-179.9	15.0	98.4
=	0.0	-179.3	15.0	98.5
=	0.0	-178.7	15.0	98.6
=	0.0	-178.2	15.0	98.6
=	0.0	-177.5	15.0	98.6
=	0.0	-176.9	15.0	98.7
=	0.0	-176.3	15.0	98.7
=	0.0	-175.8	15.0	98.8
=	0.0	-175.1	15.0	98.8
=	0.0	-174.4	15.0	98.9
=	0.0	-173.7	15.0	98.9
=	0.0	-173.2	15.0	99.0
=	0.0	-172.6	15.0	99.0
=	0.0	-172.1	15.0	99.0
=	0.0	-171.6	15.0	99.0
=	0.0	-171.0	15.0	99.1
=	0.0	-170.3	15.0	99.1
=	0.0	-169.7	15.0	99.2
=	0.0	-169.1	15.0	99.2
=	0.0	-168.6	15.0	99.2
=	0.0	-168.1	15.0	99.3
=	0.0	-167.5	15.0	99.3
=	0.0	-166.9	15.0	99.4
=	0.0	-166.2	15.0	99.4
=	0.0	-165.6	15.0	99.4
=	0.0	-164.8	15.0	99.5
=	0.0	-164.1	15.0	99.5
=	0.0	-163.5	15.0	99.6
=	0.0	-163.0	15.0	99.6
=	0.0	-162.2	15.0	99.6
=	0.0	-161.7	15.0	99.6
=	0.0	-161.0	15.0	99.7
=	0.0	-160.5	15.0	99.7
=	0.0	-159.9	15.0	99.7
=	0.0	-159.4	15.0	99.8
=	0.0	-158.9	15.0	99.8
=	0.0	-158.3	15.0	99.8
=	0.0	-157.7	15.0	99.8
=	0.0	-157.0	15.0	99.8
=	0.0	-156.4	15.0	99.9
=	0.0	-155.7	15.0	99.9
=	0.0	-155.2	15.0	99.9
=	0.0	-154.6	15.0	100.0
=	0.0	-154.0	15.0	100.0
=	0.0	-153.4	15.0	100.0
=	0.0	-152.8	15.0	100.0
=	0.0	-152.2	15.0	100.0
=	0.0	-151.6	15.0	100.1
=	0.0	-150.9	15.0	100.1
=	0.0	-150.3	15.0	100.1
=	0.0	-149.6	15.0	100.1
=	0.0	-149.0	15.0	100.1
=	0.0	-148.2	15.0	100.2
=	0.0	-147.5	15.0	100.2
=	0.0	-146.9	15.0	100.2
=	0.0	-146.4	15.0	100.2
=	0.0	-145.6	15.0	100.3
=	0.0	-144.9	15.0	100.3
=	0.0	-144.3	15.0	100.3
=	0.0	-143.7	15.0	100.3
=	0.0	-143.1	15.0	100.3
=	0.0	-142.4	15.0	100.4
=	0.0	-141.8	15.0	100.4
=	0.0	-141.2	15.0	100.4
=	0.0	-140.5	15.0	100.4
=	0.0	-139.7	15.0	100.4
=	0.0	-139.1	15.0	100.4
=	0.0	-138.6	15.0	100.4
=	0.0	-137.9	15.0	100.4
=	0.0	-137.2	15.0	100.4
=	0.0	-136.7	15.0	100.5
=	0.0	-136.0	15.0	100.5
=	0.0	-135.4	15.0	100.5
=	0.0	-134.8	15.0	100.5
=	0.0	-134.2	15.0	100.5
=	0.0	-133.6	15.0	100.6
=	0.0	-132.9	15.0	100.6
=	0.0	-132.3	15.0	100.6
=	0.0	-131.7	15.0	100.6
=	0.0	-131.2	15.0	100.6
=	0.0	-130.6	15.0	100.6
=	0.0	-130.0	15.0	100.6
=	0.0	-129.4	15.0	100.6
=	0.0	-128.8	15.0	100.6
=	0.0	-128.1	15.0	100.6
=	0.0	-127.5	15.0	100.6
=	0.0	-126.9	15.0	100.7
=	0.0	-126.2	15.0	100.7
=	0.0	-125.6	15.0	100.8
=	0.0	-125.0	15.0	100.8
=	0.0	-124.5	15.0	100.8
=	0.0	-124.0	15.0	100.8
=	0.0	-123.5	15.0	100.8
=	0.0	-122.9	15.0	100.8
=	0.0	-122.1	15.0	100.8
=	0.0	-121.5	15.0	100.8
=	0.0	-120.9	15.0	100.9
=	0.0	-120.3	15.0	100.9
=	0.0	-119.8	15.0	100.9
=	0.0	-119.1	15.0	100.9
=	0.0	-118.4	15.0	100.9
=	0.0	-117.7	15.0	100.9
=	0.0	-117.1	15.0	100.9
=	0.0	-116.5	15.0	100.9
=	0.0	-116.0	15.0	101.0
=	0.0	-115.4	15.0	101.0
=	0.0	-114.9	15.0	101.0
=	0.0	-114.4	15.0	101.0
=	0.0	-113.8	15.0	101.1
=	0.0	-113.2	15.0	101.1
=	0.0	-112.6	15.0	101.1
=	0.0	-112.1	15.0	101.1
=	0.0	-111.6	15.0	101.1
=	0.0	-111.0	15.0	101.1
=	0.0	-110.4	15.0	101.1
=	0.0	-109.7	15.0	101.1
=	0.0	-109.1	15.0	101.1
=	0.0	-108.6	15.0	101.1
=	0.0	-108.0	15.0	101.1
=	0.0	-107.4	15.0	101.1
=	0.0	-106.8	15.0	101.2
=	0.0	-106.2	15.0	101.1
=	0.0	-105.6	15.0	101.1
=	0.0	-105.0	15.0	101.1
=	0.0	-104.5	15.0	101.1
=	0.0	-103.9	15.0	101.1
=	0.0	-103.2	15.0	101.2
=	0.0	-102.7	15.0	101.2
=	0.0	-102.2	15.0	101.2
=	0.0	-101.6	15.0	101.2
=	0.0	-101.0	15.0	101.2
=	0.0	-100.4	15.0	101.2
=	0.0	-99.6	15.0	101.2
=	0.0	-98.9	15.0	101.2
=	0.0	-98.2	15.0	101.2
=	0.0	-97.5	15.0	101.2
=	0.0	-96.9	15.0	101.2
=	0.0	-96.3	15.0	101.2
=	0.0	-95.8	15.0	101.2
=	0.0	-95.2	15.0	101.2
=	0.0	-94.4	15.0	101.3
=	0.0	-93.8	15.0	101.3
=	0.0	-93.1	15.0	101.3
=	0.0	-92.5	15.0	101.3
=	0.0	-92.0	15.0	101.3
=	0.0	-91.3	15.0	101.3
=	0.0	-90.7	15.0	101.3
=	0.0	-90.2	15.0	101.3
=	0.0	-89.7	15.0	101.3
=	0.0	-89.1	15.0	101.3
=	0.0	-88.6	15.0	101.3
=	0.0	-88.0	15.0	101.3
=	0.0	-87.3	15.0	101.4
=	0.0	-86.7	15.0	101.4
=	0.0	-86.0	15.0	101.4
=	0.0	-85.4	15.0	101.4
=	0.0	-84.8	15.0	101.4
=	0.0	-84.1	15.0	101.4
=	0.0	-83.5	15.0	101.4
=	0.0	-82.9	15.0	101.4
=	0.0	-82.2	15.0	101.4
=	0.0	-81.7	15.0	101.4
=	0.0	-81.1	15.0	101.5
=	0.0	-80.4	15.0	101.5
=	0.0	-79.6	15.0	101.4
=	0.0	-79.2	15.0	101.4
=	0.0	-78.6	15.0	101.4
=	0.0	-77.9	15.0	101.5
=	0.0	-77.2	15.0	101.5
=	0.0	-76.6	15.0	101.4
=	0.0	-76.0	15.0	101.4
=	0.0	-75.4	15.0	101.5
=	0.0	-74.9	15.0	101.5
=	0.0	-74.4	15.0	101.5
=	0.0	-73.7	15.0	101.5
=	0.0	-73.1	15.0	101.5
=	0.0	-72.6	15.0	101.5
=	0.0	-71.9	15.0	101.5
=	0.0	-71.2	15.0	101.5
=	0.0	-70.5	15.0	101.5
=	0.0	-70.0	15.0	101.5
=	0.0	-69.4	15.0	101.5
=	0.0	-68.9	15.0	101.5
=	0.0	-68.4	15.0	101.5
=	0.0	-67.8	15.0	101.5
=	0.0	-67.0	15.0	101.5
=	0.0	-66.4	15.0	101.5
=	0.0	-65.9	15.0	101.5
=	0.0	-65.4	15.0	101.5
=	0.0	-64.8	15.0	101.5
=	0.0	-64.3	15.0	101.5
=	0.0	-63.7	15.0	101.5
=	0.0	-63.1	15.0	101.5
=	0.0	-62.4	15.0	101.5
=	0.0	-61.8	15.0	101.5
=	0.0	-61.3	15.0	101.5
=	0.0	-60.6	15.0	101.5
=	0.0	-60.1	15.0	101.5
=	0.0	-59.5	15.0	101.5
=	0.0	-58.9	15.0	101.5
=	0.0	-58.1	15.0	101.5
=	0.0	-57.4	15.0	101.5
=	0.0	-56.9	15.0	101.5
=	0.0	-56.3	15.0	101.5
=	0.0	-55.6	15.0	101.5
=	0.0	-55.0	15.0	101.5
=	0.0	-54.3	15.0	101.5
=	0.0	-53.7	15.0	101.4
=	0.0	-53.2	15.0	101.4
=	0.0	-52.6	15.0	101.4
=	0.0	-52.0	15.0	101.4
=	0.0	-51.5	15.0	101.4
=	0.0	-50.9	15.0	101.4
=	0.0	-50.3	15.0	101.4
=	0.0	-49.7	15.0	101.4
=	0.0	-49.0	15.0	101.3
=	0.0	-48.5	15.0	101.3
=	0.0	-48.0	15.0	101.3
=	0.0	-47.4	15.0	101.3
=	0.0	-46.9	15.0	101.3
=	0.0	-46.3	15.0	101.2
=	0.0	-45.6	15.0	101.2
=	0.0	-45.0	15.0	101.2
=	0.0	-44.3	15.0	101.1
=	0.0	-43.7	15.0	101.1
=	0.0	-43.1	15.0	101.1
=	0.0	-42.5	15.0	101.0
=	0.0	-42.0	15.0	101.0
=	0.0	-41.5	15.0	101.0
=	0.0	-40.9	15.0	101.0
=	0.0	-40.4	15.0	100.9
=	0.0	-39.8	15.0	100.9
=	0.0	-39.3	15.0	100.9
=	0.0	-38.7	15.0	100.8
=	0.0	-38.2	15.0	100.8
=	0.0	-37.6	15.0	100.8
=	0.0	-36.8	15.0	100.8
=	0.0	-36.3	15.0	100.8
=	0.0	-35.8	15.0	100.7
=	0.0	-35.3	15.0	100.7
=	0.0	-34.6	15.0	100.7
=	0.0	-34.1	15.0	100.7
=	0.0	-33.5	15.0	100.7
=	0.0	-33.0	15.0	100.7
=	0.0	-32.4	15.0	100.7
=	0.0	-31.9	15.0	100.7
=	0.0	-31.3	15.0	100.6
=	0.0	-30.6	15.0	100.6
=	0.0	-29.9	15.0	100.6
=	0.0	-29.2	15.0	100.6
=	0.0	-28.6	15.0	100.6
=	0.0	-28.0	15.0	100.6
=	0.0	-27.5	15.0	100.6
=	0.0	-26.9	15.0	100.6
=	0.0	-26.2	15.0	100.6
=	0.0	-25.5	15.0	100.6
=	0.0	-24.8	15.0	100.5
=	0.0	-24.3	15.0	100.5
=	0.0	-23.7	15.0	100.5
=	0.0	-23.1	15.0	100.5
=	0.0	-22.6	15.0	100.5
=	0.0	-22.1	15.0	100.5
=	0.0	-21.5	15.0	100.5
=	0.0	-20.9	15.0	100.5
=	0.0	-20.4	15.0	100.5
=	0.0	-19.8	15.0	100.5
=	0.0	-19.2	15.0	100.5
=	0.0	-18.7	15.0	100.5
=	0.0	-18.1	15.0	100.5
=	0.0	-17.6	15.0	100.5
=	0.0	-17.0	15.0	100.5
=	0.0	-16.6	15.0	100.4
=	0.0	-15.9	15.0	100.4
=	0.0	-15.3	15.0	100.4
=	0.0	-14.9	15.0	100.3
=	0.0	-14.3	15.0	100.3
=	0.0	-13.5	15.0	100.3
=	0.0	-12.8	15.0	100.3
=	0.0	-12.1	15.0	100.2
=	0.0	-11.6	15.0	100.2
=	0.0	-10.8	15.0	100.2
=	0.0	-10.3	15.0	100.2
=	0.0	-9.7	15.0	100.2
=	0.0	-9.0	15.0	100.2
=	0.0	-8.4	15.0	100.1
=	0.0	-7.8	15.0	100.1
=	0.0	-7.3	15.0	100.1
=	0.0	-6.7	15.0	100.1
=	0.0	-6.1	15.0	100.0
=	0.0	-5.4	15.0	100.0
=	0.0	-4.8	15.0	100.0
=	0.0	-4.1	15.0	100.0
=	0.0	-3.7	15.0	100.0
=	0.0	-3.2	15.0	100.0
=	0.0	-2.7	15.0	100.0
=	0.0	-2.2	15.0	100.0
=	0.0	-1.5	15.0	100.0
=	0.0	-0.9	15.0	100.0
=	0.0	-0.3	15.0	100.0
=	0.0	0.0	15.0	100.0
=	0.0	0.3	15.0	100.0
=	0.0	0.9	15.0	100.0
=	0.0	1.5	15.0	100.0
=	0.0	2.2	15.0	100.0
=	0.0	2.7	15.0	100.0
=	0.0	3.2	15.0	100.0
=	0.0	3.7	15.0	100.0
=	0.0	4.1	15.0	100.0
=	0.0	4.8	15.0	100.0
=	0.0	5.4	15.0	100.0
=	0.0	6.1	15.0	100.0
=	0.0	6.7	15.0	100.1
=	0.0	7.3	15.0	100.1
=	0.0	7.8	15.0	100.1
=	0.0	8.4	15.0	100.1
=	0.0	9.0	15.0	100.2
=	0.0	9.7	15.0	100.2
=	0.0	10.3	15.0	100.2
=	0.0	10.8	15.0	100.2
=	0.0	11.6	15.0	100.2
=	0.0	12.1	15.0	100.2
=	0.0	12.8	15.0	100.3
=	0.0	13.5	15.0	100.3
=	0.0	14.3	15.0	100.3
=	0.0	14.9	15.0	100.3
=	0.0	15.3	15.0	100.4
=	0.0	15.9	15.0	100.4
=	0.0	16.6	15.0	100.4
=	0.0	17.0	15.0	100.5
=	0.0	17.6	15.0	100.5
=	0.0	18.1	15.0	100.5
=	0.0	18.7	15.0	100.5
=	0.0	19.2	15.0	100.5
=	0.0	19.8	15.0	100.5
=	0.0	20.4	15.0	100.5
=	0.0	20.9	15.0	100.5
=	0.0	21.5	15.0	100.5
=	0.0	22.1	15.0	100.5
=	0.0	22.6	15.0	100.5
=	0.0	23.1	15.0	100.5
=	0.0	23.7	15.0	100.5
=	0.0	24.3	15.0	100.5
=	0.0	24.8	15.0	100.5
=	0.0	25.5	15.0	100.6
=	0.0	26.2	15.0	100.6
=	0.0	26.9	15.0	100.6
=	0.0	27.5	15.0	100.6
=	0.0	28.0	15.0	100.6
=	0.0	28.6	15.0	100.6
=	0.0	29.2	15.0	100.6
=	0.0	29.9	15.0	100.6
=	0.0	30.6	15.0	100.6
=	0.0	31.3	15.0	100.6
=	0.0	31.9	15.0	100.7
=	0.0	32.4	15.0	100.7
=	0.0	33.0	15.0	100.7
=	0.0	33.5	15.0	100.7
=	0.0	34.1	15.0	100.7
=	0.0	34.6	15.0	100.7
=	0.0	35.3	15.0	100.7
=	0.0	35.8	15.0	100.7
=	0.0	36.3	15.0	100.8
=	0.0	36.8	15.0	100.8
=	0.0	37.6	15.0	100.8
=	0.0	38.2	15.0	100.8
=	0.0	38.7	15.0	100.8
=	0.0	39.3	15.0	100.9
=	0.0	39.8	15.0	100.9
=	0.0	40.4	15.0	100.9
=	0.0	40.9	15.0	101.0
=	0.0	41.5	15.0	101.0
=	0.0	42.0	15.0	101.0
=	0.0	42.5	15.0	101.0
=	0.0	43.1	15.0	101.1
=	0.0	43.7	15.0	101.1
=	0.0	44.3	15.0	101.1
=	0.0	45.0	15.0	101.2
=	0.0	45.6	15.0	101.2
=	0.0	46.3	15.0	101.2
=	0.0	46.9	15.0	101.3
=	0.0	47.4	15.0	101.3
=	0.0	48.0	15.0	101.3
=	0.0	48.5	15.0	101.3
=	0.0	49.0	15.0	101.3
=	0.0	49.7	15.0	101.4
=	0.0	50.3	15.0	101.4
=	0.0	50.9	15.0	101.4
=	0.0	51.5	15.0	101.4
=	0.0	52.0	15.0	101.4
=	0.0	52.6	15.0	101.4
=	0.0	53.2	15.0	101.4
=	0.0	53.7	15.0	101.4
=	0.0	54.3	15.0	101.5
=	0.0	55.0	15.0	101.5
=	0.0	55.6	15.0	101.5
=	0.0	56.3	15.0	101.5
=	0.0	56.9	15.0	101.5
=	0.0	57.4	15.0	101.5
=	0.0	58.1	15.0	101.5
=	0.0	58.9	15.0	101.5
=	0.0	59.5	15.0	101.5
=	0.0	60.1	15.0	101.5
=	0.0	60.6	15.0	101.5
=	0.0	61.3	15.0	101.5
=	0.0	61.8	15.0	101.5
=	0.0	62.4	15.0	101.5
=	0.0	63.1	15.0	101.5
=	0.0	63.7	15.0	101.5
=	0.0	64.3	15.0	101.5
=	0.0	64.8	15.0	101.5
=	0.0	65.4	15.0	101.5
=	0.0	65.9	15.0	101.5
=	0.0	66.4	15.0	101.5
=	0.0	67.0	15.0	101.5
=	0.0	67.8	15.0	101.5
=	0.0	68.4	15.0	101.5
=	0.0	68.9	15.0	101.5
=	0.0	69.4	15.0	101.5
=	0.0	70.0	15.0	101.5
=	0.0	70.5	15.0	101.5
=	0.0	71.2	15.0	101.5
=	0.0	71.9	15.0	101.5
=	0.0	72.6	15.0	101.5
=	0.0	73.1	15.0	101.5
=	0.0	73.7	15.0	101.5
=	0.0	74.4	15.0	101.5
=	0.0	74.9	15.0	101.5
=	0.0	75.4	15.0	101.5
=	0.0	76.0	15.0	101.4
=	0.0	76.6	15.0	101.4
=	0.0	77.2	15.0	101.5
=	0.0	77.9	15.0	101.5
=	0.0	78.6	15.0	101.4
=	0.0	79.2	15.0	101.4
=	0.0	79.6	15.0	101.4
=	0.0	80.4	15.0	101.5
=	0.0	81.1	15.0	101.5
=	0.0	81.7	15.0	101.4
=	0.0	82.2	15.0	101.4
=	0.0	82.9	15.0	101.4
=	0.0	83.5	15.0	101.4
=	0.0	84.1	15.0	101.4
=	0.0	84.8	15.0	101.4
=	0.0	85.4	15.0	101.4
=	0.0	86.0	15.0	101.4
=	0.0	86.7	15.0	101.4
=	0.0	87.3	15.0	101.4
=	0.0	88.0	15.0	101.3
=	0.0	88.6	15.0	101.3
=	0.0	89.1	15.0	101.3
=	0.0	89.7	15.0	101.3
=	0.0	90.2	15.0	101.3
=	0.0	90.7	15.0	101.3
=	0.0	91.3	15.0	101.3
=	0.0	92.0	15.0	101.3
=	0.0	92.5	15.0	101.3
=	0.0	93.1	15.0	101.3
=	0.0	93.8	15.0	101.3
=	0.0	94.4	15.0	101.3
=	0.0	95.2	15.0	101.2
=	0.0	95.8	15.0	101.2
=	0.0	96.3	15.0	101.2
=	0.0	96.9	15.0	101.2
=	0.0	97.5	15.0	101.2
=	0.0	98.2	15.0	101.2
=	0.0	98.9	15.0	101.2
=	0.0	99.6	15.0	101.2
=	0.0	100.4	15.0	101.2
=	0.0	101.0	15.0	101.2
=	0.0	101.6	15.0	101.2
=	0.0	102.2	15.0	101.2
=	0.0	102.7	15.0	101.2
=	0.0	103.2	15.0	101.2
=	0.0	103.9	15.0	101.1
=	0.0	104.5	15.0	101.1
=	0.0	105.0	15.0	101.1
=	0.0	105.6	15.0	101.1
=	0.0	106.2	15.0	101.1
=	0.0	106.8	15.0	101.2
=	0.0	107.4	15.0	101.1
=	0.0	108.0	15.0	101.1
=	0.0	108.6	15.0	101.1
=	0.0	109.1	15.0	101.1
=	0.0	109.7	15.0	101.1
=	0.0	110.4	15.0	101.1
=	0.0	111.0	15.0	101.1
=	0.0	111.6	15.0	101.1
=	0.0	112.1	15.0	101.1
=	0.0	112.6	15.0	101.1
=	0.0	113.2	15.0	101.1
=	0.0	113.8	15.0	101.1
=	0.0	114.4	15.0	101.0
=	0.0	114.9	15.0	101.0
=	0.0	115.4	15.0	101.0
=	0.0	116.0	15.0	101.0
=	0.0	116.5	15.0	100.9
=	0.0	117.1	15.0	100.9
=	0.0	117.7	15.0	100.9
=	0.0	118.4	15.0	100.9
=	0.0	119.1	15.0	100.9
=	0.0	119.8	15.0	100.9
=	0.0	120.3	15.0	100.9
=	0.0	120.9	15.0	100.9
=	0.0	121.5	15.0	100.8
=	0.0	122.1	15.0	100.8
=	0.0	122.9	15.0	100.8
=	0.0	123.5	15.0	100.8
=	0.0	124.0	15.0	100.8
=	0.0	124.5	15.0	100.8
=	0.0	125.0	15.0	100.8
=	0.0	125.6	15.0	100.8
=	0.0	126.2	15.0	100.7
=	0.0	126.9	15.0	100.7
=	0.0	127.5	15.0	100.6
=	0.0	128.1	15.0	100.6
=	0.0	128.8	15.0	100.6
=	0.0	129.4	15.0	100.6
=	0.0	130.0	15.0	100.6
=	0.0	130.6	15.0	100.6
=	0.0	131.2	15.0	100.6
=	0.0	131.7	15.0	100.6
=	0.0	132.3	15.0	100.6
=	0.0	132.9	15.0	100.6
=	0.0	133.6	15.0	100.6
=	0.0	134.2	15.0	100.5
=	0.0	134.8	15.0	100.5
=	0.0	135.4	15.0	100.5
=	0.0	136.0	15.0	100.5
=	0.0	136.7	15.0	100.5
=	0.0	137.2	15.0	100.4
=	0.0	137.9	15.0	100.4
=	0.0	138.6	15.0	100.4
=	0.0	139.1	15.0	100.4
=	0.0	139.7	15.0	100.4
=	0.0	140.5	15.0	100.4
=	0.0	141.2	15.0	100.4
=	0.0	141.8	15.0	100.4
=	0.0	142.4	15.0	100.4
=	0.0	143.1	15.0	100.3
=	0.0	143.7	15.0	100.3
=	0.0	144.3	15.0	100.3
=	0.0	144.9	15.0	100.3
=	0.0	145.6	15.0	100.3
=	0.0	146.4	15.0	100.2
=	0.0	146.9	15.0	100.2
=	0.0	147.5	15.0	100.2
=	0.0	148.2	15.0	100.2
=	0.0	149.0	15.0	100.1
=	0.0	149.6	15.0	100.1
=	0.0	150.3	15.0	100.1
=	0.0	150.9	15.0	100.1
=	0.0	151.6	15.0	100.1
=	0.0	152.2	15.0	100.0
=	0.0	152.8	15.0	100.0
=	0.0	153.4	15.0	100.0
=	0.0	154.0	15.0	100.0
=	0.0	154.6	15.0	100.0
=	0.0	155.2	15.0	99.9
=	0.0	155.7	15.0	99.9
=	0.0	156.4	15.0	99.9
=	0.0	157.0	15.0	99.8
=	0.0	157.7	15.0	99.8
=	0.0	158.3	15.0	99.8
=	0.0	158.9	15.0	99.8
=	0.0	159.4	15.0	99.8
=	0.0	159.9	15.0	99.7
=	0.0	160.5	15.0	99.7
=	0.0	161.0	15.0	99.7
=	0.0	161.7	15.0	99.6
=	0.0	162.2	15.0	99.6
=	0.0	163.0	15.0	99.6
=	0.0	163.5	15.0	99.6
=	0.0	164.1	15.0	99.5
=	0.0	164.8	15.0	99.5
=	0.0	165.6	15.0	99.4
=	0.0	166.2	15.0	99.4
=	0.0	166.9	15.0	99.4
=	0.0	167.5	15.0	99.3
=	0.0	168.1	15.0	99.3
=	0.0	168.6	15.0	99.2
=	0.0	169.1	15.0	99.2
=	0.0	169.7	15.0	99.2
=	0.0	170.3	15.0	99.1
=	0.0	171.0	15.0	99.1
=	0.0	171.6	15.0	99.0
=	0.0	172.1	15.0	99.0
=	0.0	172.6	15.0	99.0
=	0.0	173.2	15.0	99.0
=	0.0	173.7	15.0	98.9
=	0.0	174.4	15.0	98.9
=	0.0	175.1	15.0	98.8
=	0.0	175.8	15.0	98.8
=	0.0	176.3	15.0	98.7
=	0.0	176.9	15.0	98.7
=	0.0	177.5	15.0	98.6
=	0.0	178.2	15.0	98.6
=	0.0	178.7	15.0	98.6
=	0.0	179.3	15.0	98.5
=	0.0	179.9	15.0	98.4
=	0.0	180.5	15.0	98.3
=	0.0	181.0	15.0	98.3
=	0.0	181.6	15.0	98.3
=	0.0	182.2	15.0	98.2
=	0.0	182.8	15.0	98.2
=	0.0	183.5	15.0	98.1
=	0.0	184.1	15.0	98.1
=	0.0	184.8	15.0	98.0
=	0.0	185.5	15.0	97.9
=	0.0	186.1	15.0	97.9
=	0.0	186.7	15.0	97.8
=	0.0	187.2	15.0	97.7
=	0.0	187.9	15.0	97.6
=	0.0	188.6	15.0	97.5
=	0.0	189.3	15.0	97.4
=	0.0	189.9	15.0	97.3
=	0.0	190.5	15.0	97.2
=	0.0	191.2	15.0	97.0
=	0.0	191.8	15.0	96.9
=	0.0	192.3	15.0	96.7
=	0.0	192.9	15.0	96.5
=	0.0	193.5	15.0	96.3
=	0.0	194.1	15.0	96.0
=	0.0	194.7	15.0	95.6
=	0.0	195.3	15.0	95.2
=	0.0	195.9	15.0	94.6
=	0.0	196.4	15.0	93.9
=	0.0	197.0	15.0	92.9
=	0.0	197.6	15.0	91.3
=	0.0	198.2	15.0	89.5
=	0.0	198.8	15.0	87.2
=	0.0	199.4	15.0	84.1
=	0.0	200.0	15.0	80.4
=	0.0	200.5	15.0	76.2
=	0.0	201.0	15.0	72.1
=	0.0	201.6	15.0	67.1
=	0.0	202.2	15.0	61.4
=	0.0	202.7	15.0	56.2
=	0.0	203.3	15.0	51.1
=	0.0	203.8	15.0	45.7
=	0.0	204.5	15.0	40.2
=	0.0	205.2	15.0	34.7
=	0.0	205.9	15.0	29.9
=	0.0	206.6	15.0	25.6
=	0.0	207.4	15.0	21.8
=	0.0	208.1	15.0	19.4
=	0.0	208.7	15.0	17.8
=	0.0	209.3	15.0	16.8
=	0.0	210.0	15.0	15.9
=	0.0	210.7	15.0	15.3
=	0.0	211.5	15.0	14.7
=	0.0	212.2	15.0	14.3
=	0.0	212.8	15.0	14.0
=	0.0	213.3	15.0	13.8
=	0.0	214.0	15.0	13.6
=	0.0	214.5	15.0	13.4
=	0.0	215.1	15.0	13.3
=	0.0	215.8	15.0	13.1
=	0.0	216.4	15.0	13.0
=	0.0	217.1	15.0	12.9
=	0.0	217.6	15.0	12.7
=	0.0	218.2	15.0	12.6
=	0.0	218.8	15.0	12.5
=	0.0	219.5	15.0	12.4
=	0.0	220.1	15.0	12.3
=	0.0	220.7	15.0	12.2
=	0.0	221.2	15.0	12.1
=	0.0	221.9	15.0	12.0
=	0.0	222.4	15.0	11.9
=	0.0	223.0	15.0	11.8
=	0.0	223.5	15.0	11.7
=	0.0	224.2	15.0	11.6
=	0.0	224.9	15.0	11.5
=	0.0	225.5	15.0	11.4
=	0.0	226.2	15.0	11.3
=	0.0	226.9	15.0	11.2
=	0.0	227.6	15.0	11.1
=	0.0	228.2	15.0	11.1
=	0.0	228.9	15.0	11.0
=	0.0	229.5	15.0	10.9
=	0.0	230.0	15.0	10.8
=	0.0	230.6	15.0	10.7
=	0.0	231.3	15.0	10.6
=	0.0	232.0	15.0	10.5
=	0.0	232.7	15.0	10.5
=	0.0	233.3	15.0	10.4
=	0.0	233.9	15.0	10.3
=	0.0	234.4	15.0	10.2
=	0.0	235.1	15.0	10.2
=	0.0	235.6	15.0	10.1
=	0.0	236.1	15.0	10.1
=	0.0	236.7	15.0	10.0
=	0.0	237.4	15.0	10.0
=	0.0	238.0	15.0	9.9
=	0.0	238.8	15.0	9.8
=	0.0	239.4	15.0	9.7
=	0.0	240.0	15.0	9.7
=	0.0	240.6	15.0	9.6
=	0.0	241.2	15.0	9.6
=	0.0	241.8	15.0	9.5
=	0.0	242.5	15.0	9.5
=	0.0	243.2	15.0	9.4
=	0.0	243.7	15.0	9.4
=	0.0	244.4	15.0	9.3
=	0.0	244.9	15.0	9.2
=	0.0	245.4	15.0	9.2
=	0.0	246.1	15.0	9.1
=	0.0	246.6	15.0	9.1
=	0.0	247.3	15.0	9.0
=	0.0	247.9	15.0	9.0
=	0.0	248.4	15.0	8.9
=	0.0	249.0	15.0	8.9
=	0.0	249.5	15.0	8.8
=	0.0	250.0	15.0	8.8
=	0.0	250.5	15.0	8.7
=	0.0	251.0	15.0	8.7
=	0.0	251.7	15.0	8.7
=	0.0	252.5	15.0	8.6
=	0.0	253.2	15.0	8.5
=	0.0	254.0	15.0	8.5
=	0.0	254.6	15.0	8.4
=	0.0	255.3	15.0	8.4
=	0.0	256.0	15.0	8.3
=	0.0	256.7	15.0	8.3
=	0.0	257.5	15.0	8.2
=	0.0	258.1	15.0	8.2
=	0.0	258.7	15.0	8.2
=	0.0	259.3	15.0	8.1
=	0.0	259.9	15.0	8.1
=	0.0	260.4	15.0	8.1
=	0.0	261.1	15.0	8.0
=	0.0	261.8	15.0	7.9
=	0.0	262.6	15.0	7.9
=	0.0	263.3	15.0	7.9
=	0.0	264.0	15.0	7.8
=	0.0	264.5	15.0	7.8
=	0.0	265.2	15.0	7.8
=	0.0	265.8	15.0	7.7
=	0.0	266.3	15.0	7.7
=	0.0	266.9	15.0	7.7
=	0.0	267.5	15.0	7.6
=	0.0	268.0	15.0	7.6
=	0.0	268.7	15.0	7.6
=	0.0	269.4	15.0	7.5
=	0.0	270.1	15.0	7.5
=	0.0	270.6	15.0	7.5
=	0.0	271.1	15.0	7.5
=	0.0	271.9	15.0	7.4
=	0.0	272.5	15.0	7.4
=	0.0	273.2	15.0	7.3
=	0.0	273.8	15.0	7.3
:EOM # End of Measurement
#
# RFA300 ASCII Measurement Dump ( BDS format )
#
# Measurement number 	2
#
%VNR 1.0
%MOD 	RAT
%TYP 	SCN
%SCN 	PRO
%FLD 	ION
%DAT 	10-14-2011
%TIM 	12:00:00
%FSZ 	400	300
%BMT 	PHO	   6.0
%SSD 	1000
%BUP 	0
%BRD 	1000
%FSH 	1
%ASC 	0
%WEG 	15
%GPO 	0
%CPO 	0
%MEA 	6
%PRD 	50,0
%PTS 	920
%STS 	    0.0	  -283.3	   50.0 # Start Scan values in mm ( X , Y , Z )
%EDS 	    0.0	   282.8	   50.0 # End Scan values in mm ( X , Y , Z )
#
#	  X      Y      Z     Dose
#
=	0.0	-283.3	50.0	7.6
=	0.0	-282.7	50.0	7.6
=	0.0	-282.2	50.0	7.7
=	0.0	-281.7	50.0	7.7
=	0.0	-280.9	50.0	7.7
=	0.0	-280.3	50.0	7.7
=	0.0	-279.7	50.0	7.8
=	0.0	-279.0	50.0	7.8
=	0.0	-278.4	50.0	7.9
=	0.0	-277.7	50.0	7.9
=	0.0	-276.9	50.0	8.0
=	0.0	-276.3	50.0	8.0
=	0.0	-275.6	50.0	8.0
=	0.0	-274.9	50.0	8.0
=	0.0	-274.3	50.0	8.1
=	0.0	-273.8	50.0	8.1
=	0.0	-273.1	50.0	8.2
=	0.0	-272.5	50.0	8.2
=	0.0	-271.8	50.0	8.3
=	0.0	-271.1	50.0	8.3
=	0.0	-270.4	50.0	8.4
=	0.0	-269.6	50.0	8.4
=	0.0	-269.1	50.0	8.4
=	0.0	-268.6	50.0	8.5
=	0.0	-267.9	50.0	8.5
=	0.0	-267.2	50.0	8.6
=	0.0	-266.5	50.0	8.7
=	0.0	-265.9	50.0	8.7
=	0.0	-265.2	50.0	8.8
=	0.0	-264.6	50.0	8.8
=	0.0	-264.1	50.0	8.9
=	0.0	-263.5	50.0	8.9
=	0.0	-262.8	50.0	9.0
=	0.0	-262.1	50.0	9.1
=	0.0	-261.5	50.0	9.1
=	0.0	-260.9	50.0	9.1
=	0.0	-260.4	50.0	9.2
=	0.0	-259.8	50.0	9.2
=	0.0	-259.3	50.0	9.3
=	0.0	-258.7	50.0	9.4
=	0.0	-258.0	50.0	9.4
=	0.0	-257.4	50.0	9.5
=	0.0	-256.8	50.0	9.5
=	0.0	-256.3	50.0	9.6
=	0.0	-255.6	50.0	9.7
=	0.0	-254.8	50.0	9.8
=	0.0	-254.2	50.0	9.8
=	0.0	-253.4	50.0	9.9
=	0.0	-252.8	50.0	10.0
=	0.0	-252.0	50.0	10.0
=	0.0	-251.4	50.0	10.1
=	0.0	-250.7	50.0	10.2
=	0.0	-250.1	50.0	10.3
=	0.0	-249.4	50.0	10.3
=	0.0	-248.8	50.0	10.4
=	0.0	-248.1	50.0	10.5
=	0.0	-247.5	50.0	10.5
=	0.0	-246.9	50.0	10.6
=	0.0	-246.3	50.0	10.7
=	0.0	-245.5	50.0	10.8
=	0.0	-244.9	50.0	10.9
=	0.0	-244.4	50.0	10.9
=	0.0	-243.9	50.0	11.0
=	0.0	-243.4	50.0	11.1
=	0.0	-242.8	50.0	11.2
=	0.0	-242.1	50.0	11.3
=	0.0	-241.6	50.0	11.4
=	0.0	-241.0	50.0	11.4
=	0.0	-240.4	50.0	11.5
=	0.0	-239.7	50.0	11.6
=	0.0	-239.1	50.0	11.7
=	0.0	-238.5	50.0	11.8
=	0.0	-237.9	50.0	11.9
=	0.0	-237.4	50.0	12.0
=	0.0	-236.9	50.0	12.1
=	0.0	-236.3	50.0	12.1
=	0.0	-235.9	50.0	12.2
=	0.0	-235.3	50.0	12.3
=	0.0	-234.6	50.0	12.4
=	0.0	-233.9	50.0	12.6
=	0.0	-233.2	50.0	12.7
=	0.0	-232.6	50.0	12.8
=	0.0	-232.0	50.0	12.9
=	0.0	-231.4	50.0	13.0
=	0.0	-230.7	50.0	13.2
=	0.0	-230.0	50.0	13.3
=	0.0	-229.3	50.0	13.5
=	0.0	-228.7	50.0	13.6
=	0.0	-228.1	50.0	13.7
=	0.0	-227.6	50.0	13.9
=	0.0	-226.8	50.0	14.0
=	0.0	-226.2	50.0	14.2
=	0.0	-225.7	50.0	14.3
=	0.0	-225.0	50.0	14.5
=	0.0	-224.5	50.0	14.6
=	0.0	-223.7	50.0	14.8
=	0.0	-223.0	50.0	15.0
=	0.0	-222.2	50.0	15.3
=	0.0	-221.6	50.0	15.5
=	0.0	-221.1	50.0	15.7
=	0.0	-220.5	50.0	16.0
=	0.0	-219.9	50.0	16.2
=	0.0	-219.3	50.0	16.5
=	0.0	-218.6	50.0	16.9
=	0.0	-218.1	50.0	17.3
=	0.0	-217.5	50.0	17.9
=	0.0	-216.9	50.0	18.5
=	0.0	-216.3	50.0	19.4
=	0.0	-215.7	50.0	20.4
=	0.0	-215.1	50.0	21.9
=	0.0	-214.6	50.0	23.4
=	0.0	-213.9	50.0	26.0
=	0.0	-213.4	50.0	28.4
=	0.0	-212.8	50.0	31.7
=	0.0	-212.2	50.0	35.6
=	0.0	-211.5	50.0	40.2
=	0.0	-211.0	50.0	44.2
=	0.0	-210.4	50.0	48.9
=	0.0	-209.7	50.0	54.5
=	0.0	-209.0	50.0	60.3
=	0.0	-208.4	50.0	65.1
=	0.0	-207.7	50.0	70.9
=	0.0	-207.2	50.0	74.8
=	0.0	-206.6	50.0	78.5
=	0.0	-206.1	50.0	81.4
=	0.0	-205.6	50.0	84.0
=	0.0	-205.0	50.0	86.0
=	0.0	-204.5	50.0	87.4
=	0.0	-203.9	50.0	88.7
=	0.0	-203.3	50.0	89.8
=	0.0	-202.5	50.0	90.8
=	0.0	-201.8	50.0	91.6
=	0.0	-201.2	50.0	92.0
=	0.0	-200.7	50.0	92.3
=	0.0	-200.2	50.0	92.6
=	0.0	-199.6	50.0	93.1
=	0.0	-198.9	50.0	93.4
=	0.0	-198.3	50.0	93.6
=	0.0	-197.7	50.0	93.8
=	0.0	-197.1	50.0	93.9
=	0.0	-196.6	50.0	94.2
=	0.0	-195.9	50.0	94.3
=	0.0	-195.3	50.0	94.5
=	0.0	-194.8	50.0	94.6
=	0.0	-194.1	50.0	94.8
=	0.0	-193.5	50.0	94.9
=	0.0	-192.9	50.0	95.1
=	0.0	-192.2	50.0	95.2
=	0.0	-191.5	50.0	95.3
=	0.0	-191.0	50.0	95.4
=	0.0	-190.3	50.0	95.6
=	0.0	-189.8	50.0	95.6
=	0.0	-189.1	50.0	95.7
=	0.0	-188.5	50.0	95.8
=	0.0	-187.8	50.0	95.9
=	0.0	-187.2	50.0	96.0
=	0.0	-186.7	50.0	96.0
=	0.0	-186.1	50.0	96.1
=	0.0	-185.5	50.0	96.2
=	0.0	-184.9	50.0	96.3
=	0.0	-184.3	50.0	96.4
=	0.0	-183.7	50.0	96.4
=	0.0	-183.2	50.0	96.5
=	0.0	-182.6	50.0	96.6
=	0.0	-182.0	50.0	96.6
=	0.0	-181.4	50.0	96.7
=	0.0	-180.7	50.0	96.8
=	0.0	-180.0	50.0	96.9
=	0.0	-179.3	50.0	97.0
=	0.0	-178.6	50.0	97.0
=	0.0	-178.1	50.0	97.1
=	0.0	-177.5	50.0	97.2
=	0.0	-176.9	50.0	97.3
=	0.0	-176.3	50.0	97.3
=	0.0	-175.7	50.0	97.4
=	0.0	-175.1	50.0	97.4
=	0.0	-174.4	50.0	97.5
=	0.0	-173.8	50.0	97.6
=	0.0	-173.0	50.0	97.6
=	0.0	-172.4	50.0	97.7
=	0.0	-171.7	50.0	97.7
=	0.0	-171.0	50.0	97.8
=	0.0	-170.3	50.0	97.9
=	0.0	-169.6	50.0	97.9
=	0.0	-168.9	50.0	98.0
=	0.0	-168.4	50.0	98.0
=	0.0	-167.8	50.0	98.1
=	0.0	-167.1	50.0	98.1
=	0.0	-166.5	50.0	98.2
=	0.0	-165.9	50.0	98.2
=	0.0	-165.2	50.0	98.3
=	0.0	-164.6	50.0	98.3
=	0.0	-164.0	50.0	98.3
=	0.0	-163.4	50.0	98.4
=	0.0	-162.9	50.0	98.4
=	0.0	-162.3	50.0	98.5
=	0.0	-161.7	50.0	98.5
=	0.0	-161.1	50.0	98.6
=	0.0	-160.5	50.0	98.6
=	0.0	-159.7	50.0	98.7
=	0.0	-159.0	50.0	98.7
=	0.0	-158.3	50.0	98.7
=	0.0	-157.6	50.0	98.8
=	0.0	-156.8	50.0	98.8
=	0.0	-156.0	50.0	98.9
=	0.0	-155.4	50.0	98.9
=	0.0	-154.6	50.0	99.0
=	0.0	-154.0	50.0	99.0
=	0.0	-153.4	50.0	99.0
=	0.0	-152.9	50.0	99.0
=	0.0	-152.3	50.0	99.1
=	0.0	-151.7	50.0	99.1
=	0.0	-151.1	50.0	99.1
=	0.0	-150.6	50.0	99.1
=	0.0	-150.0	50.0	99.1
=	0.0	-149.3	50.0	99.2
=	0.0	-148.6	50.0	99.2
=	0.0	-148.0	50.0	99.2
=	0.0	-147.4	50.0	99.3
=	0.0	-146.8	50.0	99.3
=	0.0	-146.2	50.0	99.3
=	0.0	-145.6	50.0	99.4
=	0.0	-145.0	50.0	99.4
=	0.0	-144.5	50.0	99.4
=	0.0	-143.9	50.0	99.4
=	0.0	-143.3	50.0	99.4
=	0.0	-142.8	50.0	99.4
=	0.0	-142.1	50.0	99.4
=	0.0	-141.4	50.0	99.4
=	0.0	-140.7	50.0	99.5
=	0.0	-140.2	50.0	99.5
=	0.0	-139.6	50.0	99.6
=	0.0	-139.0	50.0	99.6
=	0.0	-138.4	50.0	99.6
=	0.0	-137.7	50.0	99.7
=	0.0	-137.1	50.0	99.7
=	0.0	-136.5	50.0	99.7
=	0.0	-136.0	50.0	99.7
=	0.0	-135.3	50.0	99.7
=	0.0	-134.7	50.0	99.7
=	0.0	-134.1	50.0	99.7
=	0.0	-133.4	50.0	99.8
=	0.0	-132.7	50.0	99.8
=	0.0	-132.1	50.0	99.8
=	0.0	-131.4	50.0	99.9
=	0.0	-130.8	50.0	99.9
=	0.0	-130.3	50.0	99.9
=	0.0	-129.6	50.0	99.9
=	0.0	-129.1	50.0	99.9
=	0.0	-128.4	50.0	100.0
=	0.0	-127.9	50.0	100.0
=	0.0	-127.2	50.0	100.0
=	0.0	-126.5	50.0	100.0
=	0.0	-125.9	50.0	100.1
=	0.0	-125.4	50.0	100.1
=	0.0	-124.7	50.0	100.1
=	0.0	-124.2	50.0	100.1
=	0.0	-123.6	50.0	100.1
=	0.0	-122.9	50.0	100.1
=	0.0	-122.3	50.0	100.2
=	0.0	-121.6	50.0	100.2
=	0.0	-120.8	50.0	100.2
=	0.0	-120.2	50.0	100.2
=	0.0	-119.4	50.0	100.3
=	0.0	-118.8	50.0	100.3
=	0.0	-118.3	50.0	100.3
=	0.0	-117.5	50.0	100.4
=	0.0	-116.8	50.0	100.4
=	0.0	-116.3	50.0	100.4
=	0.0	-115.6	50.0	100.5
=	0.0	-115.0	50.0	100.5
=	0.0	-114.5	50.0	100.5
=	0.0	-113.9	50.0	100.5
=	0.0	-113.2	50.0	100.5
=	0.0	-112.7	50.0	100.5
=	0.0	-112.1	50.0	100.5
=	0.0	-111.5	50.0	100.5
=	0.0	-110.8	50.0	100.5
=	0.0	-110.2	50.0	100.5
=	0.0	-109.5	50.0	100.5
=	0.0	-108.8	50.0	100.5
=	0.0	-108.3	50.0	100.5
=	0.0	-107.7	50.0	100.5
=	0.0	-107.2	50.0	100.6
=	0.0	-106.6	50.0	100.6
=	0.0	-106.1	50.0	100.6
=	0.0	-105.5	50.0	100.6
=	0.0	-104.9	50.0	100.7
=	0.0	-104.3	50.0	100.7
=	0.0	-103.8	50.0	100.7
=	0.0	-103.2	50.0	100.7
=	0.0	-102.6	50.0	100.7
=	0.0	-101.9	50.0	100.7
=	0.0	-101.3	50.0	100.7
=	0.0	-100.7	50.0	100.7
=	0.0	-100.1	50.0	100.7
=	0.0	-99.5	50.0	100.7
=	0.0	-98.7	50.0	100.8
=	0.0	-98.1	50.0	100.8
=	0.0	-97.3	50.0	100.8
=	0.0	-96.6	50.0	100.8
=	0.0	-95.9	50.0	100.8
=	0.0	-95.2	50.0	100.9
=	0.0	-94.5	50.0	100.9
=	0.0	-93.9	50.0	100.9
=	0.0	-93.3	50.0	100.9
=	0.0	-92.9	50.0	100.9
=	0.0	-92.3	50.0	100.9
=	0.0	-91.7	50.0	100.9
=	0.0	-91.2	50.0	100.9
=	0.0	-90.5	50.0	100.9
=	0.0	-90.0	50.0	100.9
=	0.0	-89.4	50.0	100.9
=	0.0	-88.9	50.0	100.9
=	0.0	-88.3	50.0	100.9
=	0.0	-87.7	50.0	100.9
=	0.0	-87.2	50.0	100.9
=	0.0	-86.6	50.0	100.9
=	0.0	-85.8	50.0	101.0
=	0.0	-85.3	50.0	101.0
=	0.0	-84.7	50.0	101.0
=	0.0	-84.2	50.0	101.1
=	0.0	-83.5	50.0	101.1
=	0.0	-83.0	50.0	101.1
=	0.0	-82.5	50.0	101.1
=	0.0	-81.8	50.0	101.1
=	0.0	-81.1	50.0	101.1
=	0.0	-80.4	50.0	101.1
=	0.0	-79.7	50.0	101.1
=	0.0	-79.2	50.0	101.1
=	0.0	-78.5	50.0	101.1
=	0.0	-77.9	50.0	101.1
=	0.0	-77.3	50.0	101.1
=	0.0	-76.6	50.0	101.1
=	0.0	-75.9	50.0	101.1
=	0.0	-75.2	50.0	101.1
=	0.0	-74.5	50.0	101.1
=	0.0	-74.0	50.0	101.1
=	0.0	-73.5	50.0	101.1
=	0.0	-72.9	50.0	101.2
=	0.0	-72.1	50.0	101.2
=	0.0	-71.5	50.0	101.2
=	0.0	-71.0	50.0	101.2
=	0.0	-70.3	50.0	101.2
=	0.0	-69.7	50.0	101.2
=	0.0	-69.1	50.0	101.2
=	0.0	-68.5	50.0	101.2
=	0.0	-67.9	50.0	101.2
=	0.0	-67.2	50.0	101.2
=	0.0	-66.6	50.0	101.2
=	0.0	-66.0	50.0	101.2
=	0.0	-65.4	50.0	101.3
=	0.0	-64.8	50.0	101.3
=	0.0	-64.3	50.0	101.3
=	0.0	-63.7	50.0	101.3
=	0.0	-63.1	50.0	101.3
=	0.0	-62.5	50.0	101.3
=	0.0	-61.9	50.0	101.3
=	0.0	-61.3	50.0	101.3
=	0.0	-60.7	50.0	101.2
=	0.0	-60.2	50.0	101.2
=	0.0	-59.5	50.0	101.2
=	0.0	-58.8	50.0	101.2
=	0.0	-58.0	50.0	101.2
=	0.0	-57.5	50.0	101.2
=	0.0	-57.0	50.0	101.2
=	0.0	-56.3	50.0	101.2
=	0.0	-55.7	50.0	101.2
=	0.0	-55.0	50.0	101.2
=	0.0	-54.5	50.0	101.2
=	0.0	-53.9	50.0	101.2
=	0.0	-53.4	50.0	101.2
=	0.0	-52.7	50.0	101.2
=	0.0	-52.1	50.0	101.1
=	0.0	-51.5	50.0	101.1
=	0.0	-50.9	50.0	101.1
=	0.0	-50.2	50.0	101.1
