:MSR 	5	 # No. of measurement in file
:SYS BDS 0   # Beam Data Scanner System
#
# RFA300 ASCII Measurement Dump ( BDS format )
#
# Measurement number 	1
#
%VNR 1.0
%MOD 	RAT
%TYP 	SCN
%SCN 	DPT
%FLD 	ION
%DAT 	09-21-2011
%TIM 	12:00:00
%FSZ 	040	040
%BMT 	PHO	   6.0
%SSD 	1000
%BUP 	0
%BRD 	1000
%FSH 	1
%ASC 	0
%WEG 	15
%GPO 	0
%CPO 	0
%MEA 	5
%PRD 	0,0
%PTS 	733
%STS 	    0.0	  0.0	   0.0 # Start Scan values in mm ( X , Y , Z )
%EDS 	    0.0	   0.0	   347.7 # End Scan values in mm ( X , Y , Z )
#
#	  X      Y      Z     Dose
#
=	0.0	0.0	0.0	43.4
=	0.0	0.0	0.6	45.5
=	0.0	0.0	1.2	48.5
=	0.0	0.0	1.6	51.0
=	0.0	0.0	2.2	56.0
=	0.0	0.0	2.6	60.3
=	0.0	0.0	3.1	65.1
=	0.0	0.0	3.6	69.4
=	0.0	0.0	4.1	73.7
=	0.0	0.0	4.7	77.7
=	0.0	0.0	5.2	81.6
=	0.0	0.0	5.7	83.9
=	0.0	0.0	6.1	85.9
=	0.0	0.0	6.6	88.4
=	0.0	0.0	7.0	89.8
=	0.0	0.0	7.5	91.3
=	0.0	0.0	8.0	92.7
=	0.0	0.0	8.5	94.1
=	0.0	0.0	8.9	95.1
=	0.0	0.0	9.4	95.9
=	0.0	0.0	10.0	96.8
=	0.0	0.0	10.4	97.5
=	0.0	0.0	11.0	98.1
=	0.0	0.0	11.5	98.6
=	0.0	0.0	11.9	99.1
=	0.0	0.0	12.4	99.4
=	0.0	0.0	13.0	99.6
=	0.0	0.0	13.6	99.8
=	0.0	0.0	14.1	99.9
=	0.0	0.0	14.7	100.0
=	0.0	0.0	15.1	100.0
=	0.0	0.0	15.5	100.0
=	0.0	0.0	15.9	100.0
=	0.0	0.0	16.3	99.9
=	0.0	0.0	16.7	99.9
=	0.0	0.0	17.2	99.8
=	0.0	0.0	17.7	99.7
=	0.0	0.0	18.2	99.6
=	0.0	0.0	18.6	99.5
=	0.0	0.0	19.0	99.4
=	0.0	0.0	19.6	99.2
=	0.0	0.0	20.1	99.0
=	0.0	0.0	20.6	98.8
=	0.0	0.0	21.0	98.6
=	0.0	0.0	21.4	98.4
=	0.0	0.0	21.9	98.1
=	0.0	0.0	22.4	97.8
=	0.0	0.0	22.9	97.7
=	0.0	0.0	23.4	97.4
=	0.0	0.0	23.9	97.2
=	0.0	0.0	24.4	97.0
=	0.0	0.0	24.9	96.7
=	0.0	0.0	25.2	96.5
=	0.0	0.0	25.7	96.4
=	0.0	0.0	26.2	96.1
=	0.0	0.0	26.9	95.7
=	0.0	0.0	27.3	95.5
=	0.0	0.0	27.8	95.2
=	0.0	0.0	28.3	95.0
=	0.0	0.0	28.7	94.8
=	0.0	0.0	29.1	94.7
=	0.0	0.0	29.5	94.4
=	0.0	0.0	30.1	94.2
=	0.0	0.0	30.5	94.0
=	0.0	0.0	30.8	93.7
=	0.0	0.0	31.3	93.5
=	0.0	0.0	31.7	93.3
=	0.0	0.0	32.1	93.1
=	0.0	0.0	32.6	92.9
=	0.0	0.0	33.1	92.6
=	0.0	0.0	33.6	92.4
=	0.0	0.0	34.2	92.0
=	0.0	0.0	34.8	91.8
=	0.0	0.0	35.2	91.6
=	0.0	0.0	35.6	91.4
=	0.0	0.0	36.0	91.2
=	0.0	0.0	36.6	90.9
=	0.0	0.0	37.0	90.7
=	0.0	0.0	37.6	90.3
=	0.0	0.0	38.3	90.1
=	0.0	0.0	38.8	89.9
=	0.0	0.0	39.3	89.6
=	0.0	0.0	39.7	89.3
=	0.0	0.0	40.2	89.2
=	0.0	0.0	40.7	88.9
=	0.0	0.0	41.2	88.6
=	0.0	0.0	41.7	88.3
=	0.0	0.0	42.2	88.1
=	0.0	0.0	42.5	87.9
=	0.0	0.0	43.1	87.6
=	0.0	0.0	43.5	87.5
=	0.0	0.0	43.9	87.3
=	0.0	0.0	44.3	87.0
=	0.0	0.0	44.7	86.9
=	0.0	0.0	45.2	86.7
=	0.0	0.0	45.6	86.5
=	0.0	0.0	46.0	86.2
=	0.0	0.0	46.4	86.0
=	0.0	0.0	46.8	85.8
=	0.0	0.0	47.2	85.7
=	0.0	0.0	47.7	85.5
=	0.0	0.0	48.1	85.3
=	0.0	0.0	48.5	85.0
=	0.0	0.0	48.9	84.8
=	0.0	0.0	49.4	84.6
=	0.0	0.0	49.8	84.4
=	0.0	0.0	50.3	84.2
=	0.0	0.0	50.8	83.9
=	0.0	0.0	51.2	83.7
=	0.0	0.0	51.7	83.6
=	0.0	0.0	52.1	83.4
=	0.0	0.0	52.5	83.2
=	0.0	0.0	53.1	82.9
=	0.0	0.0	53.6	82.6
=	0.0	0.0	54.2	82.3
=	0.0	0.0	54.6	82.1
=	0.0	0.0	55.1	81.9
=	0.0	0.0	55.6	81.7
=	0.0	0.0	56.1	81.4
=	0.0	0.0	56.5	81.2
=	0.0	0.0	56.9	81.0
=	0.0	0.0	57.3	80.9
=	0.0	0.0	57.9	80.6
=	0.0	0.0	58.4	80.2
=	0.0	0.0	58.9	80.0
=	0.0	0.0	59.4	79.8
=	0.0	0.0	59.8	79.7
=	0.0	0.0	60.4	79.4
=	0.0	0.0	61.0	79.0
=	0.0	0.0	61.4	78.8
=	0.0	0.0	61.8	78.7
=	0.0	0.0	62.2	78.5
=	0.0	0.0	62.7	78.3
=	0.0	0.0	63.0	78.1
=	0.0	0.0	63.6	77.9
=	0.0	0.0	64.0	77.8
=	0.0	0.0	64.4	77.7
=	0.0	0.0	64.8	77.5
=	0.0	0.0	65.3	77.2
=	0.0	0.0	66.0	77.0
=	0.0	0.0	66.4	76.7
=	0.0	0.0	66.9	76.4
=	0.0	0.0	67.3	76.2
=	0.0	0.0	67.8	76.0
=	0.0	0.0	68.4	75.7
=	0.0	0.0	68.8	75.6
=	0.0	0.0	69.3	75.4
=	0.0	0.0	69.9	75.1
=	0.0	0.0	70.5	74.8
=	0.0	0.0	70.9	74.6
=	0.0	0.0	71.5	74.4
=	0.0	0.0	72.1	74.2
=	0.0	0.0	72.6	73.9
=	0.0	0.0	73.0	73.7
=	0.0	0.0	73.5	73.6
=	0.0	0.0	73.9	73.4
=	0.0	0.0	74.4	73.2
=	0.0	0.0	75.0	72.9
=	0.0	0.0	75.6	72.6
=	0.0	0.0	76.0	72.5
=	0.0	0.0	76.4	72.2
=	0.0	0.0	76.9	72.0
=	0.0	0.0	77.3	71.8
=	0.0	0.0	77.7	71.6
=	0.0	0.0	78.1	71.5
=	0.0	0.0	78.7	71.4
=	0.0	0.0	79.3	71.0
=	0.0	0.0	79.7	70.9
=	0.0	0.0	80.1	70.7
=	0.0	0.0	80.5	70.4
=	0.0	0.0	80.9	70.3
=	0.0	0.0	81.3	70.1
=	0.0	0.0	81.7	70.0
=	0.0	0.0	82.0	69.8
=	0.0	0.0	82.4	69.7
=	0.0	0.0	82.8	69.6
=	0.0	0.0	83.3	69.3
=	0.0	0.0	83.9	69.1
=	0.0	0.0	84.4	68.9
=	0.0	0.0	84.8	68.7
=	0.0	0.0	85.4	68.4
=	0.0	0.0	86.0	68.2
=	0.0	0.0	86.4	68.1
=	0.0	0.0	86.9	67.9
=	0.0	0.0	87.5	67.6
=	0.0	0.0	88.1	67.4
=	0.0	0.0	88.5	67.3
=	0.0	0.0	89.0	67.2
=	0.0	0.0	89.5	67.0
=	0.0	0.0	90.2	66.5
=	0.0	0.0	90.8	66.3
=	0.0	0.0	91.4	66.0
=	0.0	0.0	91.9	65.8
=	0.0	0.0	92.2	65.7
=	0.0	0.0	92.8	65.4
=	0.0	0.0	93.3	65.3
=	0.0	0.0	93.7	65.1
=	0.0	0.0	94.0	65.0
=	0.0	0.0	94.5	64.8
=	0.0	0.0	95.0	64.6
=	0.0	0.0	95.5	64.5
=	0.0	0.0	96.1	64.2
=	0.0	0.0	96.6	64.0
=	0.0	0.0	96.9	63.8
=	0.0	0.0	97.4	63.7
=	0.0	0.0	97.9	63.5
=	0.0	0.0	98.4	63.3
=	0.0	0.0	98.9	63.1
=	0.0	0.0	99.5	62.9
=	0.0	0.0	99.9	62.7
=	0.0	0.0	100.4	62.5
=	0.0	0.0	100.8	62.4
=	0.0	0.0	101.2	62.2
=	0.0	0.0	101.8	61.9
=	0.0	0.0	102.3	61.8
=	0.0	0.0	102.8	61.6
=	0.0	0.0	103.5	61.4
=	0.0	0.0	103.9	61.3
=	0.0	0.0	104.5	61.0
=	0.0	0.0	104.9	60.9
=	0.0	0.0	105.4	60.7
=	0.0	0.0	105.9	60.4
=	0.0	0.0	106.4	60.3
=	0.0	0.0	106.8	60.1
=	0.0	0.0	107.2	60.0
=	0.0	0.0	107.8	59.8
=	0.0	0.0	108.2	59.7
=	0.0	0.0	108.5	59.6
=	0.0	0.0	109.0	59.4
=	0.0	0.0	109.4	59.3
=	0.0	0.0	110.0	59.1
=	0.0	0.0	110.5	58.9
=	0.0	0.0	111.0	58.7
=	0.0	0.0	111.5	58.4
=	0.0	0.0	112.0	58.3
=	0.0	0.0	112.4	58.2
=	0.0	0.0	112.8	58.1
=	0.0	0.0	113.3	57.9
=	0.0	0.0	113.6	57.7
=	0.0	0.0	114.1	57.5
=	0.0	0.0	114.6	57.4
=	0.0	0.0	115.1	57.2
=	0.0	0.0	115.6	57.1
=	0.0	0.0	116.1	56.9
=	0.0	0.0	116.7	56.8
=	0.0	0.0	117.2	56.6
=	0.0	0.0	117.7	56.4
=	0.0	0.0	118.3	56.2
=	0.0	0.0	118.7	56.1
=	0.0	0.0	119.1	55.9
=	0.0	0.0	119.4	55.8
=	0.0	0.0	119.8	55.7
=	0.0	0.0	120.3	55.6
=	0.0	0.0	120.6	55.4
=	0.0	0.0	120.9	55.3
=	0.0	0.0	121.4	55.2
=	0.0	0.0	122.0	54.9
=	0.0	0.0	122.5	54.8
=	0.0	0.0	123.0	54.7
=	0.0	0.0	123.7	54.4
=	0.0	0.0	124.2	54.3
=	0.0	0.0	124.6	54.2
=	0.0	0.0	124.9	54.1
=	0.0	0.0	125.4	53.9
=	0.0	0.0	125.9	53.7
=	0.0	0.0	126.5	53.4
=	0.0	0.0	127.1	53.2
=	0.0	0.0	127.7	53.1
=	0.0	0.0	128.3	52.9
=	0.0	0.0	128.9	52.7
=	0.0	0.0	129.3	52.5
=	0.0	0.0	129.8	52.5
=	0.0	0.0	130.3	52.4
=	0.0	0.0	130.7	52.2
=	0.0	0.0	131.1	52.0
=	0.0	0.0	131.5	51.9
=	0.0	0.0	131.9	51.8
=	0.0	0.0	132.3	51.7
=	0.0	0.0	132.7	51.6
=	0.0	0.0	133.1	51.5
=	0.0	0.0	133.6	51.3
=	0.0	0.0	134.1	51.1
=	0.0	0.0	134.6	50.9
=	0.0	0.0	135.1	50.8
=	0.0	0.0	135.6	50.6
=	0.0	0.0	136.0	50.5
=	0.0	0.0	136.5	50.4
=	0.0	0.0	137.0	50.3
=	0.0	0.0	137.5	50.2
=	0.0	0.0	137.9	50.0
=	0.0	0.0	138.3	49.9
=	0.0	0.0	138.7	49.7
=	0.0	0.0	139.0	49.6
=	0.0	0.0	139.4	49.5
=	0.0	0.0	139.9	49.4
=	0.0	0.0	140.3	49.2
=	0.0	0.0	140.7	49.1
=	0.0	0.0	141.1	49.0
=	0.0	0.0	141.6	48.8
=	0.0	0.0	142.1	48.7
=	0.0	0.0	142.5	48.6
=	0.0	0.0	143.1	48.4
=	0.0	0.0	143.7	48.2
=	0.0	0.0	144.2	48.1
=	0.0	0.0	144.7	47.9
=	0.0	0.0	145.3	47.8
=	0.0	0.0	145.9	47.6
=	0.0	0.0	146.5	47.4
=	0.0	0.0	147.0	47.3
=	0.0	0.0	147.4	47.2
=	0.0	0.0	147.9	47.1
=	0.0	0.0	148.5	46.9
=	0.0	0.0	149.1	46.7
=	0.0	0.0	149.7	46.5
=	0.0	0.0	150.3	46.3
=	0.0	0.0	150.6	46.2
=	0.0	0.0	151.1	46.1
=	0.0	0.0	151.5	46.0
=	0.0	0.0	151.9	45.9
=	0.0	0.0	152.3	45.8
=	0.0	0.0	152.7	45.7
=	0.0	0.0	153.1	45.5
=	0.0	0.0	153.7	45.3
=	0.0	0.0	154.3	45.2
=	0.0	0.0	154.7	45.1
=	0.0	0.0	155.1	45.0
=	0.0	0.0	155.5	44.9
=	0.0	0.0	156.0	44.8
=	0.0	0.0	156.4	44.7
=	0.0	0.0	156.9	44.6
=	0.0	0.0	157.5	44.4
=	0.0	0.0	157.9	44.3
=	0.0	0.0	158.2	44.2
=	0.0	0.0	158.6	44.1
=	0.0	0.0	159.0	44.0
=	0.0	0.0	159.4	43.9
=	0.0	0.0	159.7	43.8
=	0.0	0.0	160.1	43.7
=	0.0	0.0	160.5	43.6
=	0.0	0.0	161.1	43.5
=	0.0	0.0	161.8	43.3
=	0.0	0.0	162.2	43.2
=	0.0	0.0	162.7	43.1
=	0.0	0.0	163.2	43.0
=	0.0	0.0	163.6	42.9
=	0.0	0.0	164.0	42.7
=	0.0	0.0	164.4	42.6
=	0.0	0.0	164.9	42.5
=	0.0	0.0	165.3	42.4
=	0.0	0.0	165.9	42.2
=	0.0	0.0	166.4	42.0
=	0.0	0.0	167.0	41.9
=	0.0	0.0	167.4	41.8
=	0.0	0.0	167.9	41.7
=	0.0	0.0	168.5	41.6
=	0.0	0.0	169.0	41.5
=	0.0	0.0	169.5	41.3
=	0.0	0.0	170.1	41.2
=	0.0	0.0	170.6	41.1
=	0.0	0.0	171.2	40.9
=	0.0	0.0	171.8	40.8
=	0.0	0.0	172.2	40.6
=	0.0	0.0	172.8	40.5
=	0.0	0.0	173.2	40.4
=	0.0	0.0	173.8	40.3
=	0.0	0.0	174.3	40.2
=	0.0	0.0	174.7	40.2
=	0.0	0.0	175.2	40.0
=	0.0	0.0	175.7	39.9
=	0.0	0.0	176.1	39.8
=	0.0	0.0	176.5	39.7
=	0.0	0.0	176.9	39.6
=	0.0	0.0	177.5	39.4
=	0.0	0.0	178.1	39.3
=	0.0	0.0	178.7	39.2
=	0.0	0.0	179.2	39.0
=	0.0	0.0	179.8	39.0
=	0.0	0.0	180.3	38.8
=	0.0	0.0	180.7	38.7
=	0.0	0.0	181.2	38.5
=	0.0	0.0	181.7	38.4
=	0.0	0.0	182.2	38.3
=	0.0	0.0	182.8	38.2
=	0.0	0.0	183.2	38.1
=	0.0	0.0	183.7	37.9
=	0.0	0.0	184.3	37.8
=	0.0	0.0	184.6	37.8
=	0.0	0.0	185.1	37.7
=	0.0	0.0	185.6	37.6
=	0.0	0.0	186.0	37.5
=	0.0	0.0	186.4	37.5
=	0.0	0.0	186.7	37.4
=	0.0	0.0	187.1	37.3
=	0.0	0.0	187.5	37.2
=	0.0	0.0	187.9	37.1
=	0.0	0.0	188.5	36.9
=	0.0	0.0	189.0	36.8
=	0.0	0.0	189.4	36.7
=	0.0	0.0	190.0	36.6
=	0.0	0.0	190.5	36.5
=	0.0	0.0	191.1	36.4
=	0.0	0.0	191.5	36.3
=	0.0	0.0	191.9	36.2
=	0.0	0.0	192.5	36.1
=	0.0	0.0	193.1	35.9
=	0.0	0.0	193.5	35.9
=	0.0	0.0	194.0	35.8
=	0.0	0.0	194.4	35.6
=	0.0	0.0	194.8	35.6
=	0.0	0.0	195.2	35.5
=	0.0	0.0	195.7	35.4
=	0.0	0.0	196.2	35.3
=	0.0	0.0	196.8	35.2
=	0.0	0.0	197.4	35.1
=	0.0	0.0	198.0	35.0
=	0.0	0.0	198.5	34.9
=	0.0	0.0	198.9	34.8
=	0.0	0.0	199.5	34.7
=	0.0	0.0	200.1	34.6
=	0.0	0.0	200.7	34.4
=	0.0	0.0	201.3	34.3
=	0.0	0.0	201.7	34.2
=	0.0	0.0	202.2	34.1
=	0.0	0.0	202.7	34.0
=	0.0	0.0	203.1	33.9
=	0.0	0.0	203.5	33.8
=	0.0	0.0	204.0	33.7
=	0.0	0.0	204.6	33.6
=	0.0	0.0	205.1	33.5
=	0.0	0.0	205.5	33.4
=	0.0	0.0	205.9	33.4
=	0.0	0.0	206.3	33.3
=	0.0	0.0	206.7	33.2
=	0.0	0.0	207.0	33.1
=	0.0	0.0	207.5	33.0
=	0.0	0.0	207.9	32.9
=	0.0	0.0	208.3	32.9
=	0.0	0.0	208.6	32.9
=	0.0	0.0	209.0	32.8
=	0.0	0.0	209.4	32.7
=	0.0	0.0	209.9	32.6
=	0.0	0.0	210.3	32.5
=	0.0	0.0	210.7	32.5
=	0.0	0.0	211.2	32.4
=	0.0	0.0	211.7	32.2
=	0.0	0.0	212.2	32.1
=	0.0	0.0	212.9	32.0
=	0.0	0.0	213.4	31.9
=	0.0	0.0	213.8	31.8
=	0.0	0.0	214.2	31.8
=	0.0	0.0	214.8	31.7
=	0.0	0.0	215.4	31.6
=	0.0	0.0	215.8	31.5
=	0.0	0.0	216.3	31.4
=	0.0	0.0	216.8	31.4
=	0.0	0.0	217.3	31.3
=	0.0	0.0	218.0	31.1
=	0.0	0.0	218.4	31.0
=	0.0	0.0	219.0	30.9
=	0.0	0.0	219.5	30.8
=	0.0	0.0	219.9	30.7
=	0.0	0.0	220.3	30.7
=	0.0	0.0	220.7	30.6
=	0.0	0.0	221.1	30.5
=	0.0	0.0	221.6	30.5
=	0.0	0.0	222.2	30.4
=	0.0	0.0	222.8	30.3
=	0.0	0.0	223.1	30.2
=	0.0	0.0	223.6	30.1
=	0.0	0.0	224.1	30.0
=	0.0	0.0	224.6	30.0
=	0.0	0.0	225.1	29.9
=	0.0	0.0	225.6	29.8
=	0.0	0.0	225.9	29.8
=	0.0	0.0	226.3	29.7
=	0.0	0.0	226.7	29.6
=	0.0	0.0	227.2	29.5
=	0.0	0.0	227.8	29.4
=	0.0	0.0	228.2	29.3
=	0.0	0.0	228.8	29.2
=	0.0	0.0	229.4	29.1
=	0.0	0.0	229.9	29.0
=	0.0	0.0	230.5	28.9
=	0.0	0.0	230.9	28.8
=	0.0	0.0	231.3	28.7
=	0.0	0.0	231.7	28.7
=	0.0	0.0	232.2	28.6
=	0.0	0.0	232.6	28.5
=	0.0	0.0	233.0	28.5
=	0.0	0.0	233.5	28.4
=	0.0	0.0	234.0	28.3
=	0.0	0.0	234.6	28.3
=	0.0	0.0	235.2	28.2
=	0.0	0.0	235.7	28.1
=	0.0	0.0	236.2	28.0
=	0.0	0.0	236.6	27.9
=	0.0	0.0	237.2	27.8
=	0.0	0.0	237.7	27.7
=	0.0	0.0	238.3	27.7
=	0.0	0.0	238.7	27.6
=	0.0	0.0	239.2	27.5
=	0.0	0.0	239.7	27.4
=	0.0	0.0	240.3	27.4
=	0.0	0.0	240.9	27.3
=	0.0	0.0	241.5	27.2
=	0.0	0.0	242.0	27.1
=	0.0	0.0	242.4	27.0
=	0.0	0.0	242.9	27.0
=	0.0	0.0	243.4	26.9
=	0.0	0.0	244.0	26.8
=	0.0	0.0	244.5	26.7
=	0.0	0.0	245.0	26.6
=	0.0	0.0	245.5	26.5
=	0.0	0.0	246.0	26.5
=	0.0	0.0	246.3	26.4
=	0.0	0.0	246.7	26.4
=	0.0	0.0	247.2	26.3
=	0.0	0.0	247.6	26.3
=	0.0	0.0	248.0	26.2
=	0.0	0.0	248.5	26.1
=	0.0	0.0	248.8	26.0
=	0.0	0.0	249.3	25.9
=	0.0	0.0	249.8	25.9
=	0.0	0.0	250.2	25.8
=	0.0	0.0	250.6	25.8
=	0.0	0.0	251.0	25.7
=	0.0	0.0	251.5	25.6
=	0.0	0.0	252.0	25.5
=	0.0	0.0	252.6	25.4
=	0.0	0.0	253.1	25.4
=	0.0	0.0	253.5	25.3
=	0.0	0.0	254.0	25.3
=	0.0	0.0	254.4	25.2
=	0.0	0.0	254.8	25.1
=	0.0	0.0	255.2	25.1
=	0.0	0.0	255.7	25.0
=	0.0	0.0	256.1	25.0
=	0.0	0.0	256.5	24.9
=	0.0	0.0	256.8	24.9
=	0.0	0.0	257.2	24.8
=	0.0	0.0	257.7	24.8
=	0.0	0.0	258.3	24.7
=	0.0	0.0	258.7	24.6
=	0.0	0.0	259.1	24.5
=	0.0	0.0	259.6	24.5
=	0.0	0.0	260.0	24.4
=	0.0	0.0	260.4	24.3
=	0.0	0.0	260.8	24.3
=	0.0	0.0	261.2	24.2
=	0.0	0.0	261.8	24.2
=	0.0	0.0	262.2	24.1
=	0.0	0.0	262.6	24.1
=	0.0	0.0	263.3	24.0
=	0.0	0.0	263.8	23.9
=	0.0	0.0	264.3	23.9
=	0.0	0.0	264.9	23.8
=	0.0	0.0	265.5	23.6
=	0.0	0.0	266.0	23.6
=	0.0	0.0	266.5	23.5
=	0.0	0.0	266.9	23.5
=	0.0	0.0	267.3	23.5
=	0.0	0.0	267.7	23.4
=	0.0	0.0	268.3	23.3
=	0.0	0.0	268.7	23.2
=	0.0	0.0	269.3	23.2
=	0.0	0.0	269.8	23.1
=	0.0	0.0	270.4	23.0
=	0.0	0.0	271.0	22.9
=	0.0	0.0	271.4	22.9
=	0.0	0.0	271.9	22.8
=	0.0	0.0	272.4	22.7
=	0.0	0.0	272.9	22.7
=	0.0	0.0	273.2	22.7
=	0.0	0.0	273.7	22.6
=	0.0	0.0	274.2	22.5
=	0.0	0.0	274.7	22.4
=	0.0	0.0	275.2	22.3
=	0.0	0.0	275.7	22.3
=	0.0	0.0	276.2	22.2
=	0.0	0.0	276.8	22.2
=	0.0	0.0	277.4	22.1
=	0.0	0.0	278.0	22.1
=	0.0	0.0	278.6	21.9
=	0.0	0.0	279.0	21.9
=	0.0	0.0	279.4	21.9
=	0.0	0.0	279.8	21.8
=	0.0	0.0	280.3	21.8
=	0.0	0.0	280.9	21.7
=	0.0	0.0	281.5	21.6
=	0.0	0.0	282.1	21.5
=	0.0	0.0	282.4	21.5
=	0.0	0.0	282.8	21.4
=	0.0	0.0	283.3	21.4
=	0.0	0.0	283.8	21.3
=	0.0	0.0	284.2	21.3
=	0.0	0.0	284.6	21.2
=	0.0	0.0	285.0	21.2
=	0.0	0.0	285.4	21.1
=	0.0	0.0	285.9	21.1
=	0.0	0.0	286.2	21.0
=	0.0	0.0	286.8	21.0
=	0.0	0.0	287.4	20.9
=	0.0	0.0	287.9	20.9
=	0.0	0.0	288.3	20.8
=	0.0	0.0	288.7	20.8
=	0.0	0.0	289.3	20.7
=	0.0	0.0	289.8	20.6
=	0.0	0.0	290.3	20.6
=	0.0	0.0	290.8	20.5
=	0.0	0.0	291.1	20.5
=	0.0	0.0	291.7	20.4
=	0.0	0.0	292.1	20.4
=	0.0	0.0	292.5	20.3
=	0.0	0.0	292.9	20.3
=	0.0	0.0	293.3	20.2
=	0.0	0.0	293.7	20.2
=	0.0	0.0	294.1	20.1
=	0.0	0.0	294.6	20.1
=	0.0	0.0	295.2	20.0
=	0.0	0.0	295.7	19.9
=	0.0	0.0	296.3	19.9
=	0.0	0.0	296.7	19.8
=	0.0	0.0	297.1	19.8
=	0.0	0.0	297.4	19.8
=	0.0	0.0	297.7	19.7
=	0.0	0.0	298.1	19.7
=	0.0	0.0	298.6	19.6
=	0.0	0.0	299.1	19.5
=	0.0	0.0	299.5	19.5
=	0.0	0.0	300.1	19.4
=	0.0	0.0	300.6	19.4
=	0.0	0.0	301.0	19.3
=	0.0	0.0	301.4	19.3
=	0.0	0.0	302.0	19.2
=	0.0	0.0	302.5	19.2
=	0.0	0.0	302.9	19.1
=	0.0	0.0	303.3	19.1
=	0.0	0.0	303.7	19.1
=	0.0	0.0	304.3	19.0
=	0.0	0.0	304.9	19.0
=	0.0	0.0	305.3	18.9
=	0.0	0.0	305.7	18.8
=	0.0	0.0	306.1	18.8
=	0.0	0.0	306.5	18.8
=	0.0	0.0	306.8	18.7
=	0.0	0.0	307.2	18.7
=	0.0	0.0	307.6	18.6
=	0.0	0.0	307.9	18.6
=	0.0	0.0	308.3	18.6
=	0.0	0.0	308.7	18.5
=	0.0	0.0	309.2	18.5
=	0.0	0.0	309.8	18.4
=	0.0	0.0	310.4	18.4
=	0.0	0.0	310.8	18.3
=	0.0	0.0	311.3	18.3
=	0.0	0.0	311.8	18.2
=	0.0	0.0	312.2	18.2
=	0.0	0.0	312.7	18.2
=	0.0	0.0	313.1	18.1
=	0.0	0.0	313.8	18.0
=	0.0	0.0	314.3	18.0
=	0.0	0.0	314.8	17.9
=	0.0	0.0	315.2	17.9
=	0.0	0.0	315.7	17.8
=	0.0	0.0	316.1	17.8
=	0.0	0.0	316.5	17.8
=	0.0	0.0	317.0	17.7
=	0.0	0.0	317.4	17.6
=	0.0	0.0	317.9	17.6
=	0.0	0.0	318.3	17.6
=	0.0	0.0	318.7	17.5
=	0.0	0.0	319.3	17.5
=	0.0	0.0	319.8	17.4
=	0.0	0.0	320.4	17.4
=	0.0	0.0	320.8	17.3
=	0.0	0.0	321.2	17.3
=	0.0	0.0	321.6	17.3
=	0.0	0.0	322.0	17.2
=	0.0	0.0	322.3	17.2
=	0.0	0.0	322.7	17.1
=	0.0	0.0	323.1	17.1
=	0.0	0.0	323.5	17.1
=	0.0	0.0	324.0	17.0
=	0.0	0.0	324.4	17.0
=	0.0	0.0	325.0	16.9
=	0.0	0.0	325.5	16.9
=	0.0	0.0	325.9	16.9
=	0.0	0.0	326.4	16.8
=	0.0	0.0	326.9	16.7
=	0.0	0.0	327.4	16.7
=	0.0	0.0	327.9	16.6
=	0.0	0.0	328.4	16.6
=	0.0	0.0	328.8	16.6
=	0.0	0.0	329.3	16.5
=	0.0	0.0	329.8	16.5
=	0.0	0.0	330.4	16.4
=	0.0	0.0	331.1	16.4
=	0.0	0.0	331.6	16.4
=	0.0	0.0	331.9	16.3
=	0.0	0.0	332.4	16.3
=	0.0	0.0	333.0	16.3
=	0.0	0.0	333.4	16.2
=	0.0	0.0	334.0	16.1
=	0.0	0.0	334.5	16.1
=	0.0	0.0	334.9	16.1
=	0.0	0.0	335.3	16.0
=	0.0	0.0	335.8	16.0
=	0.0	0.0	336.2	16.0
=	0.0	0.0	336.8	15.9
=	0.0	0.0	337.3	15.8
=	0.0	0.0	337.8	15.8
=	0.0	0.0	338.2	15.8
=	0.0	0.0	338.6	15.7
=	0.0	0.0	339.0	15.7
=	0.0	0.0	339.4	15.6
=	0.0	0.0	340.0	15.6
=	0.0	0.0	340.4	15.6
=	0.0	0.0	341.0	15.5
=	0.0	0.0	341.4	15.5
=	0.0	0.0	341.8	15.5
=	0.0	0.0	342.3	15.4
=	0.0	0.0	342.7	15.4
=	0.0	0.0	343.2	15.4
=	0.0	0.0	343.7	15.3
=	0.0	0.0	344.2	15.2
=	0.0	0.0	344.8	15.2
=	0.0	0.0	345.2	15.1
=	0.0	0.0	345.7	15.1
=	0.0	0.0	346.1	15.1
=	0.0	0.0	346.5	15.0
=	0.0	0.0	346.9	15.0
=	0.0	0.0	347.3	15.0
=	0.0	0.0	347.7	15.0
:EOM # End of Measurement
#
# RFA300 ASCII Measurement Dump ( BDS format )
#
# Measurement number 	2
#
%VNR 1.0
%MOD 	RAT
%TYP 	SCN
%SCN 	DPT
%FLD 	ION
%DAT 	09-21-2011
%TIM 	12:00:00
%FSZ 	100	100
%BMT 	PHO	   6.0
%SSD 	1000
%BUP 	0
%BRD 	1000
%FSH 	1
%ASC 	0
%WEG 	15
%GPO 	0
%CPO 	0
%MEA 	5
%PRD 	0,0
%PTS 	742
%STS 	    0.0	  0.0	   0.0 # Start Scan values in mm ( X , Y , Z )
%EDS 	    0.0	   0.0	   348.0 # End Scan values in mm ( X , Y , Z )
#
#	  X      Y      Z     Dose
#
=	0.0	0.0	0.0	48.8
=	0.0	0.0	0.4	50.0
=	0.0	0.0	0.7	51.4
=	0.0	0.0	1.1	53.5
=	0.0	0.0	1.6	56.3
=	0.0	0.0	2.0	59.2
=	0.0	0.0	2.4	62.6
=	0.0	0.0	2.8	66.3
=	0.0	0.0	3.2	69.8
=	0.0	0.0	3.6	72.9
=	0.0	0.0	3.9	75.6
=	0.0	0.0	4.3	78.5
=	0.0	0.0	4.8	81.5
=	0.0	0.0	5.1	83.7
=	0.0	0.0	5.5	85.5
=	0.0	0.0	5.9	87.4
=	0.0	0.0	6.4	89.5
=	0.0	0.0	6.8	91.0
=	0.0	0.0	7.2	92.2
=	0.0	0.0	7.7	93.4
=	0.0	0.0	8.2	94.4
=	0.0	0.0	8.6	95.3
=	0.0	0.0	9.1	96.2
=	0.0	0.0	9.5	96.8
=	0.0	0.0	9.9	97.5
=	0.0	0.0	10.4	98.0
=	0.0	0.0	10.8	98.4
=	0.0	0.0	11.2	98.7
=	0.0	0.0	11.6	99.1
=	0.0	0.0	12.1	99.4
=	0.0	0.0	12.5	99.6
=	0.0	0.0	13.0	99.7
=	0.0	0.0	13.4	99.8
=	0.0	0.0	13.8	99.9
=	0.0	0.0	14.2	100.0
=	0.0	0.0	14.6	100.0
=	0.0	0.0	15.0	100.0
=	0.0	0.0	15.5	100.0
=	0.0	0.0	15.9	100.0
=	0.0	0.0	16.4	99.9
=	0.0	0.0	16.8	99.9
=	0.0	0.0	17.2	99.9
=	0.0	0.0	17.6	99.8
=	0.0	0.0	17.9	99.7
=	0.0	0.0	18.4	99.6
=	0.0	0.0	18.8	99.4
=	0.0	0.0	19.1	99.3
=	0.0	0.0	19.5	99.3
=	0.0	0.0	20.1	99.1
=	0.0	0.0	20.6	98.9
=	0.0	0.0	20.9	98.8
=	0.0	0.0	21.3	98.7
=	0.0	0.0	21.8	98.4
=	0.0	0.0	22.3	98.2
=	0.0	0.0	22.7	98.1
=	0.0	0.0	23.2	97.9
=	0.0	0.0	23.9	97.6
=	0.0	0.0	24.5	97.4
=	0.0	0.0	25.0	97.2
=	0.0	0.0	25.3	97.0
=	0.0	0.0	25.7	96.9
=	0.0	0.0	26.1	96.8
=	0.0	0.0	26.5	96.6
=	0.0	0.0	27.0	96.3
=	0.0	0.0	27.5	96.2
=	0.0	0.0	27.9	96.0
=	0.0	0.0	28.3	95.8
=	0.0	0.0	28.7	95.6
=	0.0	0.0	29.0	95.4
=	0.0	0.0	29.4	95.2
=	0.0	0.0	29.9	95.1
=	0.0	0.0	30.3	94.9
=	0.0	0.0	30.8	94.7
=	0.0	0.0	31.2	94.6
=	0.0	0.0	31.7	94.3
=	0.0	0.0	32.2	94.1
=	0.0	0.0	32.6	93.9
=	0.0	0.0	33.1	93.8
=	0.0	0.0	33.6	93.7
=	0.0	0.0	34.0	93.5
=	0.0	0.0	34.5	93.2
=	0.0	0.0	35.0	93.0
=	0.0	0.0	35.3	92.8
=	0.0	0.0	35.7	92.7
=	0.0	0.0	36.1	92.5
=	0.0	0.0	36.5	92.3
=	0.0	0.0	36.9	92.2
=	0.0	0.0	37.4	92.0
=	0.0	0.0	37.8	91.8
=	0.0	0.0	38.2	91.6
=	0.0	0.0	38.7	91.5
=	0.0	0.0	39.2	91.3
=	0.0	0.0	39.6	91.1
=	0.0	0.0	40.0	90.9
=	0.0	0.0	40.5	90.8
=	0.0	0.0	40.8	90.7
=	0.0	0.0	41.1	90.5
=	0.0	0.0	41.5	90.2
=	0.0	0.0	41.9	90.1
=	0.0	0.0	42.3	89.9
=	0.0	0.0	42.8	89.7
=	0.0	0.0	43.3	89.5
=	0.0	0.0	43.8	89.4
=	0.0	0.0	44.2	89.2
=	0.0	0.0	44.6	89.1
=	0.0	0.0	45.1	88.8
=	0.0	0.0	45.5	88.7
=	0.0	0.0	46.0	88.4
=	0.0	0.0	46.4	88.2
=	0.0	0.0	47.0	88.0
=	0.0	0.0	47.4	87.8
=	0.0	0.0	47.8	87.7
=	0.0	0.0	48.2	87.5
=	0.0	0.0	48.6	87.3
=	0.0	0.0	49.2	87.0
=	0.0	0.0	49.6	86.9
=	0.0	0.0	50.1	86.7
=	0.0	0.0	50.4	86.5
=	0.0	0.0	51.0	86.3
=	0.0	0.0	51.4	86.1
=	0.0	0.0	51.9	85.9
=	0.0	0.0	52.4	85.8
=	0.0	0.0	52.8	85.6
=	0.0	0.0	53.2	85.5
=	0.0	0.0	53.7	85.3
=	0.0	0.0	54.3	84.9
=	0.0	0.0	54.9	84.7
=	0.0	0.0	55.4	84.5
=	0.0	0.0	55.8	84.4
=	0.0	0.0	56.4	84.1
=	0.0	0.0	57.0	83.9
=	0.0	0.0	57.5	83.6
=	0.0	0.0	58.0	83.4
=	0.0	0.0	58.4	83.3
=	0.0	0.0	58.9	83.0
=	0.0	0.0	59.3	82.8
=	0.0	0.0	59.8	82.6
=	0.0	0.0	60.3	82.5
=	0.0	0.0	60.7	82.4
=	0.0	0.0	61.3	82.1
=	0.0	0.0	61.7	82.0
=	0.0	0.0	62.2	81.7
=	0.0	0.0	62.7	81.5
=	0.0	0.0	63.2	81.3
=	0.0	0.0	63.6	81.2
=	0.0	0.0	64.1	81.0
=	0.0	0.0	64.5	80.9
=	0.0	0.0	64.9	80.8
=	0.0	0.0	65.3	80.7
=	0.0	0.0	65.6	80.3
=	0.0	0.0	66.0	80.1
=	0.0	0.0	66.4	80.0
=	0.0	0.0	66.9	79.8
=	0.0	0.0	67.3	79.6
=	0.0	0.0	67.8	79.4
=	0.0	0.0	68.5	79.2
=	0.0	0.0	69.0	79.1
=	0.0	0.0	69.5	78.9
=	0.0	0.0	70.1	78.7
=	0.0	0.0	70.6	78.5
=	0.0	0.0	71.1	78.3
=	0.0	0.0	71.6	78.1
=	0.0	0.0	72.1	77.9
=	0.0	0.0	72.5	77.8
=	0.0	0.0	72.9	77.6
=	0.0	0.0	73.3	77.4
=	0.0	0.0	73.8	77.2
=	0.0	0.0	74.2	77.0
=	0.0	0.0	74.7	76.8
=	0.0	0.0	75.3	76.6
=	0.0	0.0	75.9	76.3
=	0.0	0.0	76.4	76.2
=	0.0	0.0	76.9	76.0
=	0.0	0.0	77.2	75.9
=	0.0	0.0	77.6	75.7
=	0.0	0.0	78.1	75.5
=	0.0	0.0	78.6	75.3
=	0.0	0.0	79.2	75.1
=	0.0	0.0	79.7	74.9
=	0.0	0.0	80.2	74.7
=	0.0	0.0	80.7	74.5
=	0.0	0.0	81.2	74.3
=	0.0	0.0	81.7	74.2
=	0.0	0.0	82.2	74.0
=	0.0	0.0	82.8	73.7
=	0.0	0.0	83.3	73.5
=	0.0	0.0	83.9	73.4
=	0.0	0.0	84.3	73.2
=	0.0	0.0	84.8	72.9
=	0.0	0.0	85.2	72.8
=	0.0	0.0	85.5	72.7
=	0.0	0.0	86.0	72.5
=	0.0	0.0	86.4	72.4
=	0.0	0.0	86.8	72.2
=	0.0	0.0	87.2	72.1
=	0.0	0.0	87.6	71.9
=	0.0	0.0	88.1	71.8
=	0.0	0.0	88.5	71.6
=	0.0	0.0	88.9	71.5
=	0.0	0.0	89.5	71.4
=	0.0	0.0	90.0	71.1
=	0.0	0.0	90.3	71.0
=	0.0	0.0	90.7	70.8
=	0.0	0.0	91.3	70.6
=	0.0	0.0	91.9	70.4
=	0.0	0.0	92.4	70.2
=	0.0	0.0	92.8	70.1
=	0.0	0.0	93.2	69.8
=	0.0	0.0	93.7	69.7
=	0.0	0.0	94.1	69.5
=	0.0	0.0	94.5	69.4
=	0.0	0.0	94.8	69.3
=	0.0	0.0	95.2	69.1
=	0.0	0.0	95.7	69.0
=	0.0	0.0	96.0	68.9
=	0.0	0.0	96.4	68.7
=	0.0	0.0	96.8	68.6
=	0.0	0.0	97.2	68.5
=	0.0	0.0	97.7	68.3
=	0.0	0.0	98.1	68.1
=	0.0	0.0	98.5	67.9
=	0.0	0.0	98.9	67.7
=	0.0	0.0	99.5	67.5
=	0.0	0.0	100.1	67.4
=	0.0	0.0	100.6	67.2
=	0.0	0.0	101.1	67.0
=	0.0	0.0	101.7	66.9
=	0.0	0.0	102.3	66.6
=	0.0	0.0	102.8	66.4
=	0.0	0.0	103.2	66.2
=	0.0	0.0	103.8	66.1
=	0.0	0.0	104.3	65.9
=	0.0	0.0	104.8	65.7
=	0.0	0.0	105.4	65.5
=	0.0	0.0	105.9	65.2
=	0.0	0.0	106.5	65.1
=	0.0	0.0	107.1	64.9
=	0.0	0.0	107.6	64.7
=	0.0	0.0	108.0	64.7
=	0.0	0.0	108.3	64.5
=	0.0	0.0	108.7	64.4
=	0.0	0.0	109.1	64.2
=	0.0	0.0	109.5	64.0
=	0.0	0.0	109.9	63.9
=	0.0	0.0	110.2	63.8
=	0.0	0.0	110.7	63.7
=	0.0	0.0	111.1	63.6
=	0.0	0.0	111.6	63.4
=	0.0	0.0	112.1	63.2
=	0.0	0.0	112.6	63.0
=	0.0	0.0	113.0	62.9
=	0.0	0.0	113.3	62.9
=	0.0	0.0	113.7	62.8
=	0.0	0.0	114.0	62.7
=	0.0	0.0	114.4	62.6
=	0.0	0.0	114.8	62.4
=	0.0	0.0	115.3	62.2
=	0.0	0.0	115.9	62.0
=	0.0	0.0	116.4	61.8
=	0.0	0.0	116.9	61.6
=	0.0	0.0	117.5	61.4
=	0.0	0.0	118.1	61.2
=	0.0	0.0	118.7	61.0
=	0.0	0.0	119.1	60.8
=	0.0	0.0	119.7	60.7
=	0.0	0.0	120.2	60.6
=	0.0	0.0	120.7	60.4
=	0.0	0.0	121.2	60.2
=	0.0	0.0	121.7	60.1
=	0.0	0.0	122.2	59.9
=	0.0	0.0	122.6	59.8
=	0.0	0.0	123.0	59.7
=	0.0	0.0	123.4	59.5
=	0.0	0.0	123.7	59.4
=	0.0	0.0	124.1	59.3
=	0.0	0.0	124.6	59.2
=	0.0	0.0	125.1	59.0
=	0.0	0.0	125.5	58.8
=	0.0	0.0	126.1	58.6
=	0.0	0.0	126.6	58.4
=	0.0	0.0	127.2	58.3
=	0.0	0.0	127.8	58.2
=	0.0	0.0	128.3	58.0
=	0.0	0.0	128.9	57.8
=	0.0	0.0	129.4	57.6
=	0.0	0.0	130.0	57.4
=	0.0	0.0	130.6	57.3
=	0.0	0.0	131.0	57.2
=	0.0	0.0	131.4	57.1
=	0.0	0.0	131.9	56.9
=	0.0	0.0	132.3	56.8
=	0.0	0.0	132.7	56.6
=	0.0	0.0	133.1	56.5
=	0.0	0.0	133.5	56.4
=	0.0	0.0	133.9	56.2
=	0.0	0.0	134.3	56.1
=	0.0	0.0	134.7	56.0
=	0.0	0.0	135.1	55.9
=	0.0	0.0	135.5	55.8
=	0.0	0.0	136.0	55.7
=	0.0	0.0	136.6	55.5
=	0.0	0.0	136.9	55.3
=	0.0	0.0	137.3	55.2
=	0.0	0.0	137.7	55.1
=	0.0	0.0	138.1	54.9
=	0.0	0.0	138.5	54.8
=	0.0	0.0	139.1	54.7
=	0.0	0.0	139.6	54.6
=	0.0	0.0	140.0	54.5
=	0.0	0.0	140.5	54.3
=	0.0	0.0	140.9	54.1
=	0.0	0.0	141.4	54.0
=	0.0	0.0	141.8	53.8
=	0.0	0.0	142.2	53.7
=	0.0	0.0	142.7	53.5
=	0.0	0.0	143.3	53.4
=	0.0	0.0	143.8	53.3
=	0.0	0.0	144.2	53.2
=	0.0	0.0	144.7	53.1
=	0.0	0.0	145.4	52.9
=	0.0	0.0	145.9	52.7
=	0.0	0.0	146.4	52.6
=	0.0	0.0	147.0	52.5
=	0.0	0.0	147.6	52.3
=	0.0	0.0	148.1	52.1
=	0.0	0.0	148.7	51.9
=	0.0	0.0	149.3	51.7
=	0.0	0.0	149.9	51.6
=	0.0	0.0	150.3	51.5
=	0.0	0.0	150.9	51.4
=	0.0	0.0	151.3	51.2
=	0.0	0.0	151.6	51.1
=	0.0	0.0	152.0	51.0
=	0.0	0.0	152.4	50.9
=	0.0	0.0	152.9	50.7
=	0.0	0.0	153.3	50.6
=	0.0	0.0	153.9	50.5
=	0.0	0.0	154.4	50.4
=	0.0	0.0	154.9	50.2
=	0.0	0.0	155.4	50.1
=	0.0	0.0	155.9	49.9
=	0.0	0.0	156.4	49.7
=	0.0	0.0	156.8	49.6
=	0.0	0.0	157.2	49.5
=	0.0	0.0	157.7	49.4
=	0.0	0.0	158.1	49.3
=	0.0	0.0	158.4	49.2
=	0.0	0.0	158.8	49.1
=	0.0	0.0	159.2	49.0
=	0.0	0.0	159.6	48.9
=	0.0	0.0	160.1	48.8
=	0.0	0.0	160.7	48.6
=	0.0	0.0	161.3	48.5
=	0.0	0.0	161.9	48.4
=	0.0	0.0	162.4	48.2
=	0.0	0.0	163.0	48.1
=	0.0	0.0	163.6	47.9
=	0.0	0.0	164.0	47.8
=	0.0	0.0	164.5	47.7
=	0.0	0.0	165.1	47.5
=	0.0	0.0	165.6	47.4
=	0.0	0.0	166.1	47.3
=	0.0	0.0	166.7	47.1
=	0.0	0.0	167.2	47.0
=	0.0	0.0	167.7	46.9
=	0.0	0.0	168.3	46.7
=	0.0	0.0	169.0	46.6
=	0.0	0.0	169.5	46.4
=	0.0	0.0	170.0	46.2
=	0.0	0.0	170.5	46.1
=	0.0	0.0	171.1	46.0
=	0.0	0.0	171.7	45.8
=	0.0	0.0	172.3	45.7
=	0.0	0.0	172.9	45.5
=	0.0	0.0	173.5	45.4
=	0.0	0.0	174.1	45.2
=	0.0	0.0	174.6	45.1
=	0.0	0.0	175.1	44.9
=	0.0	0.0	175.5	44.8
=	0.0	0.0	175.9	44.7
=	0.0	0.0	176.4	44.7
=	0.0	0.0	176.8	44.6
=	0.0	0.0	177.4	44.5
=	0.0	0.0	178.0	44.3
=	0.0	0.0	178.6	44.2
=	0.0	0.0	179.1	44.0
=	0.0	0.0	179.7	43.9
=	0.0	0.0	180.2	43.7
=	0.0	0.0	180.8	43.6
=	0.0	0.0	181.2	43.5
=	0.0	0.0	181.6	43.5
=	0.0	0.0	182.1	43.4
=	0.0	0.0	182.5	43.3
=	0.0	0.0	183.1	43.1
=	0.0	0.0	183.5	43.0
=	0.0	0.0	184.0	42.9
=	0.0	0.0	184.5	42.8
=	0.0	0.0	185.0	42.7
=	0.0	0.0	185.5	42.6
=	0.0	0.0	185.9	42.5
=	0.0	0.0	186.4	42.3
=	0.0	0.0	186.7	42.2
=	0.0	0.0	187.1	42.1
=	0.0	0.0	187.6	42.0
=	0.0	0.0	188.2	41.9
=	0.0	0.0	188.7	41.7
=	0.0	0.0	189.1	41.7
=	0.0	0.0	189.4	41.6
=	0.0	0.0	189.8	41.5
=	0.0	0.0	190.2	41.4
=	0.0	0.0	190.5	41.4
=	0.0	0.0	191.0	41.2
=	0.0	0.0	191.4	41.2
=	0.0	0.0	191.9	41.1
=	0.0	0.0	192.3	41.0
=	0.0	0.0	192.7	40.9
=	0.0	0.0	193.4	40.8
=	0.0	0.0	194.0	40.6
=	0.0	0.0	194.6	40.4
=	0.0	0.0	195.0	40.3
=	0.0	0.0	195.5	40.3
=	0.0	0.0	195.9	40.2
=	0.0	0.0	196.3	40.2
=	0.0	0.0	196.8	40.0
=	0.0	0.0	197.2	39.9
=	0.0	0.0	197.8	39.8
=	0.0	0.0	198.2	39.7
=	0.0	0.0	198.7	39.5
=	0.0	0.0	199.1	39.4
=	0.0	0.0	199.7	39.3
=	0.0	0.0	200.4	39.2
=	0.0	0.0	200.9	39.0
=	0.0	0.0	201.3	38.9
=	0.0	0.0	201.8	38.9
=	0.0	0.0	202.2	38.8
=	0.0	0.0	202.6	38.7
=	0.0	0.0	203.0	38.7
=	0.0	0.0	203.5	38.6
=	0.0	0.0	204.1	38.4
=	0.0	0.0	204.6	38.3
=	0.0	0.0	205.1	38.2
=	0.0	0.0	205.6	38.1
=	0.0	0.0	206.0	38.0
=	0.0	0.0	206.4	37.9
=	0.0	0.0	206.8	37.8
=	0.0	0.0	207.4	37.7
=	0.0	0.0	207.7	37.6
=	0.0	0.0	208.1	37.6
=	0.0	0.0	208.5	37.5
=	0.0	0.0	208.8	37.4
=	0.0	0.0	209.2	37.4
=	0.0	0.0	209.6	37.3
=	0.0	0.0	210.0	37.2
=	0.0	0.0	210.5	37.1
=	0.0	0.0	210.9	37.1
=	0.0	0.0	211.2	37.0
=	0.0	0.0	211.7	36.9
=	0.0	0.0	212.1	36.8
=	0.0	0.0	212.6	36.7
=	0.0	0.0	213.0	36.6
=	0.0	0.0	213.4	36.5
=	0.0	0.0	213.9	36.5
=	0.0	0.0	214.4	36.4
=	0.0	0.0	214.8	36.3
=	0.0	0.0	215.2	36.1
=	0.0	0.0	215.7	36.0
=	0.0	0.0	216.2	36.0
=	0.0	0.0	216.8	35.8
=	0.0	0.0	217.3	35.8
=	0.0	0.0	217.9	35.6
=	0.0	0.0	218.4	35.5
=	0.0	0.0	218.9	35.4
=	0.0	0.0	219.3	35.4
=	0.0	0.0	219.7	35.3
=	0.0	0.0	220.1	35.2
=	0.0	0.0	220.7	35.2
=	0.0	0.0	221.3	35.1
=	0.0	0.0	221.7	35.0
=	0.0	0.0	222.3	34.9
=	0.0	0.0	222.8	34.8
=	0.0	0.0	223.4	34.6
=	0.0	0.0	223.8	34.5
=	0.0	0.0	224.3	34.4
=	0.0	0.0	224.8	34.3
=	0.0	0.0	225.4	34.2
=	0.0	0.0	225.8	34.2
=	0.0	0.0	226.2	34.1
=	0.0	0.0	226.5	34.0
=	0.0	0.0	227.0	33.9
=	0.0	0.0	227.5	33.8
=	0.0	0.0	228.0	33.7
=	0.0	0.0	228.5	33.6
=	0.0	0.0	228.9	33.6
=	0.0	0.0	229.5	33.5
=	0.0	0.0	229.9	33.4
=	0.0	0.0	230.4	33.3
=	0.0	0.0	230.8	33.2
=	0.0	0.0	231.4	33.1
=	0.0	0.0	232.0	33.1
=	0.0	0.0	232.5	32.9
=	0.0	0.0	232.9	32.9
=	0.0	0.0	233.3	32.8
=	0.0	0.0	233.8	32.7
=	0.0	0.0	234.2	32.6
=	0.0	0.0	234.6	32.5
=	0.0	0.0	235.1	32.5
=	0.0	0.0	235.6	32.4
=	0.0	0.0	236.1	32.3
=	0.0	0.0	236.6	32.2
=	0.0	0.0	237.1	32.1
=	0.0	0.0	237.5	32.1
=	0.0	0.0	238.0	32.0
=	0.0	0.0	238.5	31.9
=	0.0	0.0	239.0	31.8
=	0.0	0.0	239.6	31.7
=	0.0	0.0	240.3	31.6
=	0.0	0.0	240.7	31.5
=	0.0	0.0	241.1	31.5
=	0.0	0.0	241.7	31.4
=	0.0	0.0	242.1	31.3
=	0.0	0.0	242.7	31.1
=	0.0	0.0	243.2	31.1
=	0.0	0.0	243.8	31.0
=	0.0	0.0	244.3	30.9
=	0.0	0.0	244.7	30.8
=	0.0	0.0	245.1	30.8
=	0.0	0.0	245.6	30.7
=	0.0	0.0	246.0	30.6
=	0.0	0.0	246.4	30.6
=	0.0	0.0	246.9	30.5
=	0.0	0.0	247.2	30.4
=	0.0	0.0	247.6	30.3
=	0.0	0.0	248.0	30.3
=	0.0	0.0	248.4	30.2
=	0.0	0.0	248.8	30.1
=	0.0	0.0	249.2	30.1
=	0.0	0.0	249.8	30.0
=	0.0	0.0	250.2	29.9
=	0.0	0.0	250.7	29.8
=	0.0	0.0	251.1	29.7
=	0.0	0.0	251.5	29.7
=	0.0	0.0	251.9	29.6
=	0.0	0.0	252.4	29.6
=	0.0	0.0	253.0	29.5
=	0.0	0.0	253.6	29.3
=	0.0	0.0	254.1	29.3
=	0.0	0.0	254.6	29.2
=	0.0	0.0	255.0	29.2
=	0.0	0.0	255.4	29.1
=	0.0	0.0	255.8	29.0
=	0.0	0.0	256.2	29.0
=	0.0	0.0	256.6	28.9
=	0.0	0.0	257.1	28.8
=	0.0	0.0	257.5	28.8
=	0.0	0.0	258.0	28.7
=	0.0	0.0	258.4	28.7
=	0.0	0.0	258.9	28.6
=	0.0	0.0	259.5	28.5
=	0.0	0.0	260.0	28.4
=	0.0	0.0	260.4	28.3
=	0.0	0.0	260.9	28.3
=	0.0	0.0	261.4	28.2
=	0.0	0.0	262.0	28.1
=	0.0	0.0	262.6	28.0
=	0.0	0.0	263.2	27.9
=	0.0	0.0	263.7	27.8
=	0.0	0.0	264.2	27.8
=	0.0	0.0	264.7	27.7
=	0.0	0.0	265.3	27.6
=	0.0	0.0	265.9	27.5
=	0.0	0.0	266.4	27.5
=	0.0	0.0	266.8	27.4
=	0.0	0.0	267.3	27.3
=	0.0	0.0	267.7	27.2
=	0.0	0.0	268.2	27.2
=	0.0	0.0	268.8	27.1
=	0.0	0.0	269.4	27.0
=	0.0	0.0	270.0	26.9
=	0.0	0.0	270.4	26.8
=	0.0	0.0	270.9	26.7
=	0.0	0.0	271.4	26.7
=	0.0	0.0	272.0	26.6
=	0.0	0.0	272.6	26.5
=	0.0	0.0	273.1	26.4
=	0.0	0.0	273.5	26.4
=	0.0	0.0	274.0	26.4
=	0.0	0.0	274.4	26.3
=	0.0	0.0	274.9	26.2
=	0.0	0.0	275.5	26.1
=	0.0	0.0	275.8	26.1
=	0.0	0.0	276.2	26.0
=	0.0	0.0	276.7	25.9
=	0.0	0.0	277.1	25.8
=	0.0	0.0	277.7	25.8
=	0.0	0.0	278.1	25.8
=	0.0	0.0	278.5	25.7
=	0.0	0.0	279.0	25.6
=	0.0	0.0	279.6	25.5
=	0.0	0.0	280.1	25.5
=	0.0	0.0	280.6	25.4
=	0.0	0.0	280.9	25.4
=	0.0	0.0	281.4	25.3
=	0.0	0.0	282.0	25.2
=	0.0	0.0	282.6	25.1
=	0.0	0.0	283.0	25.1
=	0.0	0.0	283.5	25.0
=	0.0	0.0	283.9	25.0
=	0.0	0.0	284.3	24.9
=	0.0	0.0	284.7	24.9
=	0.0	0.0	285.1	24.8
=	0.0	0.0	285.7	24.8
=	0.0	0.0	286.1	24.7
=	0.0	0.0	286.5	24.7
=	0.0	0.0	287.0	24.6
=	0.0	0.0	287.5	24.5
=	0.0	0.0	288.0	24.4
=	0.0	0.0	288.6	24.4
=	0.0	0.0	289.2	24.3
=	0.0	0.0	289.7	24.2
=	0.0	0.0	290.1	24.1
=	0.0	0.0	290.6	24.1
=	0.0	0.0	291.3	24.0
=	0.0	0.0	291.8	23.9
=	0.0	0.0	292.3	23.9
=	0.0	0.0	292.7	23.8
=	0.0	0.0	293.0	23.8
=	0.0	0.0	293.3	23.7
=	0.0	0.0	293.8	23.6
=	0.0	0.0	294.2	23.6
=	0.0	0.0	294.6	23.5
=	0.0	0.0	295.1	23.5
=	0.0	0.0	295.7	23.4
=	0.0	0.0	296.2	23.4
=	0.0	0.0	296.8	23.3
=	0.0	0.0	297.3	23.3
=	0.0	0.0	297.7	23.2
=	0.0	0.0	298.1	23.1
=	0.0	0.0	298.5	23.1
=	0.0	0.0	299.0	23.0
=	0.0	0.0	299.5	23.0
=	0.0	0.0	300.0	22.9
=	0.0	0.0	300.5	22.8
=	0.0	0.0	301.1	22.7
=	0.0	0.0	301.6	22.7
=	0.0	0.0	302.0	22.6
=	0.0	0.0	302.6	22.6
=	0.0	0.0	302.9	22.5
=	0.0	0.0	303.2	22.5
=	0.0	0.0	303.6	22.5
=	0.0	0.0	304.0	22.5
=	0.0	0.0	304.3	22.4
=	0.0	0.0	304.8	22.3
=	0.0	0.0	305.4	22.3
=	0.0	0.0	305.7	22.2
=	0.0	0.0	306.2	22.2
=	0.0	0.0	306.8	22.1
=	0.0	0.0	307.3	22.1
=	0.0	0.0	307.7	22.0
=	0.0	0.0	308.1	22.0
=	0.0	0.0	308.6	21.9
=	0.0	0.0	309.1	21.8
=	0.0	0.0	309.5	21.8
=	0.0	0.0	310.0	21.7
=	0.0	0.0	310.4	21.7
=	0.0	0.0	310.8	21.6
=	0.0	0.0	311.3	21.6
=	0.0	0.0	311.7	21.6
=	0.0	0.0	312.0	21.5
=	0.0	0.0	312.3	21.5
