:MSR 	1	 # No. of measurement in file
:SYS BDS 0   # Beam Data Scanner System
#
# RFA300 ASCII Measurement Dump ( BDS format )
#
# Measurement number 	1
#
%VNR 1.0
%MOD 	RAT
%TYP 	SCN
%SCN 	PRO
%FLD 	ION
%DAT 	10-12-2011
%TIM 	12:00:00
%FSZ 	400	400
%BMT 	ELE	   20.0
%SSD 	
%BUP 	0
%BRD 	
%FSH 	1
%ASC 	0
%WEG 	0
%GPO 	0
%CPO 	0
%MEA 	2
%PRD 	0,0
%PTS 	833
%STS 	    -236.2	  0.0	   0.0 # Start Scan values in mm ( X , Y , Z )
%EDS 	    236.3	   0.0	   0.0 # End Scan values in mm ( X , Y , Z )
#
#	  X      Y      Z     Dose
#
=	-236.2	0.0	0.0	2.6
=	-235.7	0.0	0.0	2.6
=	-235.1	0.0	0.0	2.7
=	-234.5	0.0	0.0	2.7
=	-233.9	0.0	0.0	2.8
=	-233.3	0.0	0.0	2.8
=	-232.7	0.0	0.0	2.9
=	-232.1	0.0	0.0	3.0
=	-231.5	0.0	0.0	3.1
=	-230.9	0.0	0.0	3.1
=	-230.3	0.0	0.0	3.2
=	-229.7	0.0	0.0	3.3
=	-229.1	0.0	0.0	3.4
=	-228.5	0.0	0.0	3.5
=	-227.9	0.0	0.0	3.6
=	-227.3	0.0	0.0	3.7
=	-226.6	0.0	0.0	3.8
=	-226.0	0.0	0.0	3.9
=	-225.5	0.0	0.0	4.1
=	-224.8	0.0	0.0	4.2
=	-224.3	0.0	0.0	4.4
=	-223.7	0.0	0.0	4.6
=	-223.2	0.0	0.0	4.7
=	-222.8	0.0	0.0	4.9
=	-222.4	0.0	0.0	5.1
=	-222.0	0.0	0.0	5.2
=	-221.6	0.0	0.0	5.4
=	-221.1	0.0	0.0	5.6
=	-220.6	0.0	0.0	5.9
=	-220.2	0.0	0.0	6.1
=	-219.6	0.0	0.0	6.4
=	-219.0	0.0	0.0	6.8
=	-218.4	0.0	0.0	7.2
=	-217.8	0.0	0.0	7.6
=	-217.2	0.0	0.0	8.1
=	-216.6	0.0	0.0	8.6
=	-216.0	0.0	0.0	9.2
=	-215.4	0.0	0.0	9.8
=	-214.8	0.0	0.0	10.4
=	-214.1	0.0	0.0	11.1
=	-213.6	0.0	0.0	11.8
=	-213.0	0.0	0.0	12.6
=	-212.4	0.0	0.0	13.3
=	-211.9	0.0	0.0	14.1
=	-211.5	0.0	0.0	14.7
=	-210.9	0.0	0.0	15.6
=	-210.3	0.0	0.0	16.6
=	-209.7	0.0	0.0	17.7
=	-209.2	0.0	0.0	18.7
=	-208.5	0.0	0.0	19.9
=	-207.9	0.0	0.0	21.1
=	-207.3	0.0	0.0	22.4
=	-206.7	0.0	0.0	23.7
=	-206.1	0.0	0.0	25.0
=	-205.5	0.0	0.0	26.3
=	-204.9	0.0	0.0	27.6
=	-204.3	0.0	0.0	29.0
=	-203.7	0.0	0.0	30.4
=	-203.1	0.0	0.0	31.7
=	-202.5	0.0	0.0	33.2
=	-201.9	0.0	0.0	34.6
=	-201.3	0.0	0.0	36.0
=	-200.7	0.0	0.0	37.3
=	-200.3	0.0	0.0	38.3
=	-199.6	0.0	0.0	39.7
=	-199.2	0.0	0.0	40.6
=	-198.6	0.0	0.0	41.9
=	-198.0	0.0	0.0	43.1
=	-197.4	0.0	0.0	44.3
=	-196.8	0.0	0.0	45.5
=	-196.2	0.0	0.0	46.6
=	-195.6	0.0	0.0	47.8
=	-195.0	0.0	0.0	48.8
=	-194.4	0.0	0.0	49.8
=	-193.8	0.0	0.0	50.8
=	-193.2	0.0	0.0	51.7
=	-192.6	0.0	0.0	52.6
=	-192.0	0.0	0.0	53.4
=	-191.4	0.0	0.0	54.3
=	-190.8	0.0	0.0	55.1
=	-190.2	0.0	0.0	55.9
=	-189.6	0.0	0.0	56.5
=	-189.1	0.0	0.0	57.1
=	-188.6	0.0	0.0	57.8
=	-188.1	0.0	0.0	58.3
=	-187.5	0.0	0.0	59.0
=	-186.9	0.0	0.0	59.7
=	-186.3	0.0	0.0	60.3
=	-185.7	0.0	0.0	61.0
=	-185.1	0.0	0.0	61.6
=	-184.5	0.0	0.0	62.2
=	-183.9	0.0	0.0	62.8
=	-183.4	0.0	0.0	63.4
=	-182.9	0.0	0.0	63.8
=	-182.5	0.0	0.0	64.3
=	-182.0	0.0	0.0	64.7
=	-181.5	0.0	0.0	65.2
=	-180.9	0.0	0.0	65.8
=	-180.3	0.0	0.0	66.4
=	-179.7	0.0	0.0	66.9
=	-179.1	0.0	0.0	67.4
=	-178.5	0.0	0.0	68.1
=	-177.9	0.0	0.0	68.7
=	-177.3	0.0	0.0	69.1
=	-176.9	0.0	0.0	69.5
=	-176.5	0.0	0.0	69.9
=	-176.1	0.0	0.0	70.2
=	-175.6	0.0	0.0	70.7
=	-175.0	0.0	0.0	71.2
=	-174.4	0.0	0.0	71.8
=	-173.8	0.0	0.0	72.3
=	-173.2	0.0	0.0	72.8
=	-172.6	0.0	0.0	73.3
=	-172.0	0.0	0.0	73.9
=	-171.4	0.0	0.0	74.4
=	-170.8	0.0	0.0	74.9
=	-170.2	0.0	0.0	75.3
=	-169.6	0.0	0.0	75.9
=	-169.0	0.0	0.0	76.4
=	-168.4	0.0	0.0	76.9
=	-167.8	0.0	0.0	77.4
=	-167.2	0.0	0.0	77.9
=	-166.6	0.0	0.0	78.4
=	-166.2	0.0	0.0	78.7
=	-165.5	0.0	0.0	79.3
=	-165.0	0.0	0.0	79.7
=	-164.4	0.0	0.0	80.2
=	-163.8	0.0	0.0	80.6
=	-163.2	0.0	0.0	81.0
=	-162.8	0.0	0.0	81.4
=	-162.3	0.0	0.0	81.8
=	-161.7	0.0	0.0	82.2
=	-161.2	0.0	0.0	82.5
=	-160.7	0.0	0.0	82.9
=	-160.1	0.0	0.0	83.3
=	-159.5	0.0	0.0	83.8
=	-158.9	0.0	0.0	84.3
=	-158.3	0.0	0.0	84.6
=	-157.7	0.0	0.0	85.0
=	-157.1	0.0	0.0	85.5
=	-156.5	0.0	0.0	85.8
=	-155.9	0.0	0.0	86.3
=	-155.3	0.0	0.0	86.6
=	-154.7	0.0	0.0	86.9
=	-154.3	0.0	0.0	87.2
=	-153.9	0.0	0.0	87.5
=	-153.5	0.0	0.0	87.8
=	-153.0	0.0	0.0	88.1
=	-152.5	0.0	0.0	88.5
=	-152.1	0.0	0.0	88.8
=	-151.6	0.0	0.0	89.0
=	-151.2	0.0	0.0	89.2
=	-150.8	0.0	0.0	89.4
=	-150.2	0.0	0.0	89.8
=	-149.7	0.0	0.0	90.1
=	-149.1	0.0	0.0	90.5
=	-148.6	0.0	0.0	90.7
=	-148.1	0.0	0.0	91.0
=	-147.7	0.0	0.0	91.2
=	-147.3	0.0	0.0	91.4
=	-146.8	0.0	0.0	91.7
=	-146.2	0.0	0.0	92.0
=	-145.6	0.0	0.0	92.3
=	-145.0	0.0	0.0	92.6
=	-144.4	0.0	0.0	92.9
=	-143.7	0.0	0.0	93.3
=	-143.1	0.0	0.0	93.6
=	-142.6	0.0	0.0	93.8
=	-141.9	0.0	0.0	94.2
=	-141.3	0.0	0.0	94.5
=	-140.7	0.0	0.0	94.7
=	-140.3	0.0	0.0	94.9
=	-139.9	0.0	0.0	95.1
=	-139.3	0.0	0.0	95.3
=	-138.7	0.0	0.0	95.5
=	-138.1	0.0	0.0	95.8
=	-137.5	0.0	0.0	96.0
=	-137.0	0.0	0.0	96.2
=	-136.7	0.0	0.0	96.4
=	-136.1	0.0	0.0	96.5
=	-135.6	0.0	0.0	96.7
=	-135.1	0.0	0.0	96.9
=	-134.6	0.0	0.0	97.1
=	-134.2	0.0	0.0	97.3
=	-133.7	0.0	0.0	97.4
=	-133.3	0.0	0.0	97.6
=	-132.8	0.0	0.0	97.8
=	-132.2	0.0	0.0	97.9
=	-131.6	0.0	0.0	98.1
=	-131.0	0.0	0.0	98.3
=	-130.4	0.0	0.0	98.5
=	-129.7	0.0	0.0	98.7
=	-129.1	0.0	0.0	98.8
=	-128.5	0.0	0.0	99.0
=	-128.0	0.0	0.0	99.1
=	-127.5	0.0	0.0	99.2
=	-126.9	0.0	0.0	99.4
=	-126.4	0.0	0.0	99.4
=	-125.9	0.0	0.0	99.5
=	-125.5	0.0	0.0	99.7
=	-125.1	0.0	0.0	99.8
=	-124.7	0.0	0.0	99.9
=	-124.0	0.0	0.0	100.0
=	-123.4	0.0	0.0	100.1
=	-122.9	0.0	0.0	100.2
=	-122.2	0.0	0.0	100.3
=	-121.6	0.0	0.0	100.4
=	-121.0	0.0	0.0	100.4
=	-120.4	0.0	0.0	100.5
=	-119.8	0.0	0.0	100.6
=	-119.0	0.0	0.0	100.8
=	-118.4	0.0	0.0	100.8
=	-117.7	0.0	0.0	100.9
=	-117.1	0.0	0.0	101.0
=	-116.5	0.0	0.0	101.1
=	-115.9	0.0	0.0	101.1
=	-115.3	0.0	0.0	101.2
=	-114.7	0.0	0.0	101.2
=	-114.1	0.0	0.0	101.2
=	-113.5	0.0	0.0	101.2
=	-112.9	0.0	0.0	101.3
=	-112.2	0.0	0.0	101.3
=	-111.3	0.0	0.0	101.4
=	-110.5	0.0	0.0	101.5
=	-109.9	0.0	0.0	101.5
=	-109.3	0.0	0.0	101.5
=	-108.7	0.0	0.0	101.5
=	-108.1	0.0	0.0	101.5
=	-107.7	0.0	0.0	101.5
=	-107.1	0.0	0.0	101.5
=	-106.4	0.0	0.0	101.6
=	-105.9	0.0	0.0	101.6
=	-105.4	0.0	0.0	101.6
=	-104.9	0.0	0.0	101.6
=	-104.4	0.0	0.0	101.6
=	-103.8	0.0	0.0	101.6
=	-103.2	0.0	0.0	101.6
=	-102.7	0.0	0.0	101.5
=	-101.9	0.0	0.0	101.5
=	-101.2	0.0	0.0	101.5
=	-100.6	0.0	0.0	101.5
=	-100.0	0.0	0.0	101.4
=	-99.1	0.0	0.0	101.4
=	-98.6	0.0	0.0	101.4
=	-98.0	0.0	0.0	101.4
=	-97.6	0.0	0.0	101.4
=	-97.2	0.0	0.0	101.4
=	-96.8	0.0	0.0	101.4
=	-96.4	0.0	0.0	101.4
=	-96.0	0.0	0.0	101.4
=	-95.6	0.0	0.0	101.4
=	-95.2	0.0	0.0	101.4
=	-94.7	0.0	0.0	101.3
=	-94.2	0.0	0.0	101.3
=	-93.6	0.0	0.0	101.3
=	-93.1	0.0	0.0	101.2
=	-92.6	0.0	0.0	101.2
=	-92.2	0.0	0.0	101.2
=	-91.8	0.0	0.0	101.1
=	-91.3	0.0	0.0	101.1
=	-90.9	0.0	0.0	101.1
=	-90.3	0.0	0.0	101.1
=	-89.7	0.0	0.0	101.0
=	-89.1	0.0	0.0	101.0
=	-88.5	0.0	0.0	100.9
=	-87.9	0.0	0.0	100.9
=	-87.3	0.0	0.0	100.8
=	-86.7	0.0	0.0	100.8
=	-86.1	0.0	0.0	100.8
=	-85.5	0.0	0.0	100.8
=	-84.9	0.0	0.0	100.7
=	-84.3	0.0	0.0	100.7
=	-83.7	0.0	0.0	100.7
=	-83.1	0.0	0.0	100.6
=	-82.6	0.0	0.0	100.6
=	-82.1	0.0	0.0	100.5
=	-81.4	0.0	0.0	100.5
=	-80.8	0.0	0.0	100.5
=	-80.2	0.0	0.0	100.5
=	-79.6	0.0	0.0	100.4
=	-79.0	0.0	0.0	100.4
=	-78.4	0.0	0.0	100.4
=	-77.8	0.0	0.0	100.3
=	-77.2	0.0	0.0	100.3
=	-76.6	0.0	0.0	100.3
=	-76.0	0.0	0.0	100.3
=	-75.4	0.0	0.0	100.2
=	-74.8	0.0	0.0	100.2
=	-74.3	0.0	0.0	100.2
=	-73.8	0.0	0.0	100.2
=	-73.2	0.0	0.0	100.2
=	-72.6	0.0	0.0	100.1
=	-71.9	0.0	0.0	100.1
=	-71.4	0.0	0.0	100.1
=	-70.7	0.0	0.0	100.1
=	-70.1	0.0	0.0	100.0
=	-69.5	0.0	0.0	100.0
=	-68.9	0.0	0.0	100.0
=	-68.3	0.0	0.0	100.0
=	-67.7	0.0	0.0	99.9
=	-67.1	0.0	0.0	99.9
=	-66.5	0.0	0.0	99.9
=	-66.0	0.0	0.0	99.9
=	-65.7	0.0	0.0	99.9
=	-65.1	0.0	0.0	99.9
=	-64.4	0.0	0.0	99.8
=	-63.7	0.0	0.0	99.8
=	-63.1	0.0	0.0	99.8
=	-62.5	0.0	0.0	99.8
=	-62.0	0.0	0.0	99.7
=	-61.4	0.0	0.0	99.7
=	-60.8	0.0	0.0	99.7
=	-60.2	0.0	0.0	99.7
=	-59.4	0.0	0.0	99.7
=	-58.3	0.0	0.0	99.7
=	-57.1	0.0	0.0	99.7
=	-55.9	0.0	0.0	99.7
=	-55.1	0.0	0.0	99.6
=	-54.0	0.0	0.0	99.6
=	-53.2	0.0	0.0	99.6
=	-52.3	0.0	0.0	99.6
=	-51.1	0.0	0.0	99.6
=	-50.4	0.0	0.0	99.6
=	-49.5	0.0	0.0	99.6
=	-48.6	0.0	0.0	99.6
=	-48.0	0.0	0.0	99.5
=	-47.4	0.0	0.0	99.5
=	-46.8	0.0	0.0	99.5
=	-46.2	0.0	0.0	99.5
=	-45.6	0.0	0.0	99.5
=	-45.0	0.0	0.0	99.5
=	-44.4	0.0	0.0	99.5
=	-43.8	0.0	0.0	99.5
=	-43.2	0.0	0.0	99.5
=	-42.5	0.0	0.0	99.5
=	-42.0	0.0	0.0	99.5
=	-41.5	0.0	0.0	99.5
=	-41.1	0.0	0.0	99.5
=	-40.6	0.0	0.0	99.5
=	-40.1	0.0	0.0	99.5
=	-39.4	0.0	0.0	99.5
=	-38.6	0.0	0.0	99.5
=	-38.0	0.0	0.0	99.5
=	-37.6	0.0	0.0	99.5
=	-37.2	0.0	0.0	99.5
=	-36.8	0.0	0.0	99.5
=	-36.4	0.0	0.0	99.5
=	-35.9	0.0	0.0	99.5
=	-35.4	0.0	0.0	99.6
=	-34.9	0.0	0.0	99.6
=	-34.4	0.0	0.0	99.6
=	-33.8	0.0	0.0	99.6
=	-33.3	0.0	0.0	99.6
=	-32.7	0.0	0.0	99.6
=	-32.2	0.0	0.0	99.6
=	-31.6	0.0	0.0	99.6
=	-31.2	0.0	0.0	99.6
=	-30.7	0.0	0.0	99.7
=	-30.1	0.0	0.0	99.7
=	-29.5	0.0	0.0	99.7
=	-28.9	0.0	0.0	99.7
=	-28.3	0.0	0.0	99.7
=	-27.7	0.0	0.0	99.7
=	-27.1	0.0	0.0	99.7
=	-26.7	0.0	0.0	99.7
=	-26.3	0.0	0.0	99.7
=	-25.8	0.0	0.0	99.7
=	-25.2	0.0	0.0	99.7
=	-24.7	0.0	0.0	99.7
=	-24.2	0.0	0.0	99.7
=	-23.8	0.0	0.0	99.7
=	-23.4	0.0	0.0	99.7
=	-23.0	0.0	0.0	99.7
=	-22.6	0.0	0.0	99.7
=	-22.2	0.0	0.0	99.8
=	-21.8	0.0	0.0	99.8
=	-21.3	0.0	0.0	99.8
=	-20.8	0.0	0.0	99.8
=	-20.2	0.0	0.0	99.8
=	-19.8	0.0	0.0	99.8
=	-19.4	0.0	0.0	99.8
=	-18.9	0.0	0.0	99.8
=	-18.4	0.0	0.0	99.8
=	-18.1	0.0	0.0	99.8
=	-17.6	0.0	0.0	99.9
=	-17.2	0.0	0.0	99.9
=	-16.8	0.0	0.0	99.9
=	-16.4	0.0	0.0	99.9
=	-16.0	0.0	0.0	99.9
=	-15.6	0.0	0.0	99.9
=	-15.2	0.0	0.0	99.9
=	-14.8	0.0	0.0	99.9
=	-14.4	0.0	0.0	99.9
=	-14.0	0.0	0.0	99.9
=	-13.6	0.0	0.0	99.9
=	-13.1	0.0	0.0	99.9
=	-12.6	0.0	0.0	99.9
=	-12.2	0.0	0.0	99.9
=	-11.8	0.0	0.0	99.9
=	-11.4	0.0	0.0	99.9
=	-11.0	0.0	0.0	99.9
=	-10.6	0.0	0.0	99.9
=	-10.2	0.0	0.0	99.9
=	-9.7	0.0	0.0	100.0
=	-9.3	0.0	0.0	100.0
=	-8.9	0.0	0.0	100.0
=	-8.5	0.0	0.0	100.0
=	-8.0	0.0	0.0	100.0
=	-7.6	0.0	0.0	100.0
=	-7.1	0.0	0.0	100.0
=	-6.5	0.0	0.0	100.0
=	-6.0	0.0	0.0	100.0
=	-5.5	0.0	0.0	100.0
=	-5.0	0.0	0.0	100.0
=	-4.3	0.0	0.0	100.0
=	-3.7	0.0	0.0	100.0
=	-3.1	0.0	0.0	100.0
=	-2.5	0.0	0.0	100.0
=	-2.1	0.0	0.0	100.0
=	-1.5	0.0	0.0	100.0
=	-1.0	0.0	0.0	100.0
=	-0.5	0.0	0.0	100.0
=	0.0	0.0	0.0	100.0
=	0.4	0.0	0.0	100.0
=	0.9	0.0	0.0	100.0
=	1.3	0.0	0.0	100.0
=	1.9	0.0	0.0	100.0
=	2.9	0.0	0.0	100.0
=	3.9	0.0	0.0	100.0
=	4.6	0.0	0.0	100.0
=	5.1	0.0	0.0	100.0
=	5.8	0.0	0.0	100.0
=	6.5	0.0	0.0	100.0
=	7.2	0.0	0.0	100.0
=	7.8	0.0	0.0	100.0
=	8.4	0.0	0.0	100.0
=	9.0	0.0	0.0	100.0
=	9.6	0.0	0.0	100.0
=	10.2	0.0	0.0	100.0
=	10.8	0.0	0.0	100.0
=	11.4	0.0	0.0	100.0
=	12.0	0.0	0.0	100.0
=	12.6	0.0	0.0	99.9
=	13.2	0.0	0.0	99.9
=	13.8	0.0	0.0	99.9
=	14.5	0.0	0.0	99.9
=	15.1	0.0	0.0	99.9
=	15.7	0.0	0.0	99.9
=	16.3	0.0	0.0	99.9
=	16.9	0.0	0.0	99.9
=	17.5	0.0	0.0	99.9
=	18.1	0.0	0.0	99.9
=	18.7	0.0	0.0	99.8
=	19.1	0.0	0.0	99.8
=	19.5	0.0	0.0	99.8
=	20.2	0.0	0.0	99.8
=	20.8	0.0	0.0	99.8
=	21.4	0.0	0.0	99.8
=	21.9	0.0	0.0	99.8
=	22.5	0.0	0.0	99.8
=	22.9	0.0	0.0	99.7
=	23.3	0.0	0.0	99.7
=	23.8	0.0	0.0	99.7
=	24.3	0.0	0.0	99.7
=	24.7	0.0	0.0	99.7
=	25.2	0.0	0.0	99.7
=	25.7	0.0	0.0	99.7
=	26.1	0.0	0.0	99.7
=	26.6	0.0	0.0	99.7
=	27.2	0.0	0.0	99.7
=	27.8	0.0	0.0	99.7
=	28.4	0.0	0.0	99.7
=	28.9	0.0	0.0	99.7
=	29.5	0.0	0.0	99.7
=	30.1	0.0	0.0	99.7
=	30.7	0.0	0.0	99.7
=	31.3	0.0	0.0	99.7
=	31.7	0.0	0.0	99.7
=	32.3	0.0	0.0	99.7
=	32.9	0.0	0.0	99.7
=	33.5	0.0	0.0	99.6
=	34.1	0.0	0.0	99.6
=	34.7	0.0	0.0	99.6
=	35.4	0.0	0.0	99.6
=	35.9	0.0	0.0	99.6
=	36.6	0.0	0.0	99.6
=	37.2	0.0	0.0	99.6
=	37.8	0.0	0.0	99.6
=	38.4	0.0	0.0	99.6
=	39.0	0.0	0.0	99.6
=	39.6	0.0	0.0	99.6
=	40.1	0.0	0.0	99.6
=	40.6	0.0	0.0	99.6
=	41.2	0.0	0.0	99.6
=	41.8	0.0	0.0	99.6
=	42.4	0.0	0.0	99.6
=	43.0	0.0	0.0	99.6
=	43.6	0.0	0.0	99.6
=	44.2	0.0	0.0	99.6
=	44.8	0.0	0.0	99.6
=	45.4	0.0	0.0	99.6
=	46.0	0.0	0.0	99.6
=	46.7	0.0	0.0	99.6
=	47.2	0.0	0.0	99.6
=	47.9	0.0	0.0	99.6
=	48.5	0.0	0.0	99.6
=	49.1	0.0	0.0	99.6
=	49.7	0.0	0.0	99.6
=	50.3	0.0	0.0	99.6
=	50.9	0.0	0.0	99.6
=	51.5	0.0	0.0	99.6
=	52.1	0.0	0.0	99.6
=	52.7	0.0	0.0	99.6
=	53.3	0.0	0.0	99.7
=	53.9	0.0	0.0	99.7
=	54.5	0.0	0.0	99.7
=	55.1	0.0	0.0	99.7
=	55.7	0.0	0.0	99.7
=	56.3	0.0	0.0	99.7
=	56.9	0.0	0.0	99.8
=	57.6	0.0	0.0	99.8
=	58.1	0.0	0.0	99.8
=	58.8	0.0	0.0	99.8
=	59.4	0.0	0.0	99.8
=	60.0	0.0	0.0	99.8
=	60.6	0.0	0.0	99.8
=	61.0	0.0	0.0	99.9
=	61.6	0.0	0.0	99.9
=	62.2	0.0	0.0	99.9
=	62.8	0.0	0.0	99.9
=	63.4	0.0	0.0	100.0
=	64.0	0.0	0.0	100.0
=	64.6	0.0	0.0	100.0
=	65.2	0.0	0.0	100.0
=	65.8	0.0	0.0	100.0
=	66.4	0.0	0.0	100.0
=	67.1	0.0	0.0	100.1
=	67.7	0.0	0.0	100.1
=	68.3	0.0	0.0	100.1
=	68.9	0.0	0.0	100.1
=	69.5	0.0	0.0	100.2
=	70.1	0.0	0.0	100.2
=	70.7	0.0	0.0	100.2
=	71.3	0.0	0.0	100.2
=	71.9	0.0	0.0	100.2
=	72.5	0.0	0.0	100.2
=	73.1	0.0	0.0	100.2
=	73.7	0.0	0.0	100.3
=	74.3	0.0	0.0	100.3
=	74.9	0.0	0.0	100.3
=	75.5	0.0	0.0	100.3
=	76.1	0.0	0.0	100.4
=	76.8	0.0	0.0	100.4
=	77.3	0.0	0.0	100.4
=	78.0	0.0	0.0	100.5
=	78.6	0.0	0.0	100.5
=	79.2	0.0	0.0	100.5
=	79.8	0.0	0.0	100.6
=	80.4	0.0	0.0	100.6
=	81.0	0.0	0.0	100.6
=	81.6	0.0	0.0	100.7
=	82.2	0.0	0.0	100.7
=	83.0	0.0	0.0	100.7
=	83.6	0.0	0.0	100.8
=	84.2	0.0	0.0	100.9
=	84.9	0.0	0.0	100.9
=	85.8	0.0	0.0	100.9
=	86.5	0.0	0.0	101.0
=	87.0	0.0	0.0	101.0
=	87.6	0.0	0.0	101.0
=	88.2	0.0	0.0	101.1
=	89.0	0.0	0.0	101.1
=	89.7	0.0	0.0	101.1
=	90.4	0.0	0.0	101.2
=	91.1	0.0	0.0	101.2
=	91.7	0.0	0.0	101.2
=	92.8	0.0	0.0	101.3
=	93.6	0.0	0.0	101.3
=	94.8	0.0	0.0	101.4
=	96.0	0.0	0.0	101.4
=	97.2	0.0	0.0	101.4
=	98.4	0.0	0.0	101.4
=	99.7	0.0	0.0	101.5
=	100.6	0.0	0.0	101.5
=	101.3	0.0	0.0	101.5
=	102.0	0.0	0.0	101.6
=	102.7	0.0	0.0	101.6
=	103.4	0.0	0.0	101.6
=	104.3	0.0	0.0	101.6
=	104.9	0.0	0.0	101.6
=	105.5	0.0	0.0	101.6
=	106.1	0.0	0.0	101.6
=	106.7	0.0	0.0	101.6
=	107.3	0.0	0.0	101.5
=	107.9	0.0	0.0	101.5
=	108.5	0.0	0.0	101.5
=	109.1	0.0	0.0	101.5
=	109.7	0.0	0.0	101.5
=	110.3	0.0	0.0	101.4
=	111.0	0.0	0.0	101.4
=	111.6	0.0	0.0	101.4
=	112.2	0.0	0.0	101.4
=	112.7	0.0	0.0	101.3
=	113.2	0.0	0.0	101.3
=	113.8	0.0	0.0	101.3
=	114.4	0.0	0.0	101.2
=	115.0	0.0	0.0	101.1
=	115.6	0.0	0.0	101.1
=	116.3	0.0	0.0	101.0
=	116.9	0.0	0.0	101.0
=	117.4	0.0	0.0	100.9
=	117.9	0.0	0.0	100.8
=	118.5	0.0	0.0	100.7
=	119.0	0.0	0.0	100.7
=	119.5	0.0	0.0	100.6
=	120.0	0.0	0.0	100.5
=	120.5	0.0	0.0	100.4
=	121.0	0.0	0.0	100.3
=	121.6	0.0	0.0	100.2
=	122.0	0.0	0.0	100.2
=	122.4	0.0	0.0	100.1
=	122.9	0.0	0.0	100.0
=	123.3	0.0	0.0	100.0
=	123.8	0.0	0.0	99.9
=	124.4	0.0	0.0	99.7
=	125.1	0.0	0.0	99.6
=	125.6	0.0	0.0	99.5
=	126.3	0.0	0.0	99.3
=	126.7	0.0	0.0	99.2
=	127.3	0.0	0.0	99.0
=	127.9	0.0	0.0	98.9
=	128.5	0.0	0.0	98.7
=	129.1	0.0	0.0	98.6
=	129.7	0.0	0.0	98.4
=	130.1	0.0	0.0	98.3
=	130.7	0.0	0.0	98.2
=	131.3	0.0	0.0	98.0
=	131.9	0.0	0.0	97.7
=	132.5	0.0	0.0	97.6
=	133.0	0.0	0.0	97.4
=	133.6	0.0	0.0	97.2
=	134.1	0.0	0.0	97.0
=	134.6	0.0	0.0	96.8
=	135.0	0.0	0.0	96.7
=	135.5	0.0	0.0	96.5
=	136.0	0.0	0.0	96.3
=	136.6	0.0	0.0	96.1
=	137.2	0.0	0.0	95.9
=	137.8	0.0	0.0	95.6
=	138.5	0.0	0.0	95.3
=	139.0	0.0	0.0	95.1
=	139.6	0.0	0.0	94.8
=	140.0	0.0	0.0	94.7
=	140.5	0.0	0.0	94.5
=	141.1	0.0	0.0	94.2
=	141.5	0.0	0.0	94.0
=	142.0	0.0	0.0	93.7
=	142.5	0.0	0.0	93.5
=	143.1	0.0	0.0	93.2
=	143.7	0.0	0.0	93.0
=	144.3	0.0	0.0	92.6
=	144.9	0.0	0.0	92.4
=	145.5	0.0	0.0	92.0
=	146.1	0.0	0.0	91.7
=	146.5	0.0	0.0	91.5
=	147.1	0.0	0.0	91.1
=	147.8	0.0	0.0	90.8
=	148.3	0.0	0.0	90.5
=	148.8	0.0	0.0	90.3
=	149.4	0.0	0.0	89.9
=	149.9	0.0	0.0	89.6
=	150.4	0.0	0.0	89.3
=	151.0	0.0	0.0	88.9
=	151.4	0.0	0.0	88.7
=	151.8	0.0	0.0	88.4
=	152.4	0.0	0.0	88.1
=	152.9	0.0	0.0	87.8
=	153.4	0.0	0.0	87.4
=	154.0	0.0	0.0	87.0
=	154.6	0.0	0.0	86.6
=	155.2	0.0	0.0	86.3
=	155.7	0.0	0.0	86.0
=	156.1	0.0	0.0	85.6
=	156.7	0.0	0.0	85.2
=	157.2	0.0	0.0	84.9
=	157.9	0.0	0.0	84.5
=	158.5	0.0	0.0	84.1
=	159.1	0.0	0.0	83.6
=	159.7	0.0	0.0	83.2
=	160.3	0.0	0.0	82.8
=	160.9	0.0	0.0	82.4
=	161.5	0.0	0.0	81.9
=	162.0	0.0	0.0	81.5
=	162.6	0.0	0.0	81.1
=	163.1	0.0	0.0	80.6
=	163.8	0.0	0.0	80.2
=	164.3	0.0	0.0	79.7
=	164.9	0.0	0.0	79.2
=	165.5	0.0	0.0	78.8
=	166.2	0.0	0.0	78.3
=	166.8	0.0	0.0	77.8
=	167.4	0.0	0.0	77.3
=	168.0	0.0	0.0	76.9
=	168.6	0.0	0.0	76.4
=	169.2	0.0	0.0	75.9
=	169.8	0.0	0.0	75.4
=	170.4	0.0	0.0	74.9
=	170.8	0.0	0.0	74.5
=	171.3	0.0	0.0	74.1
=	171.8	0.0	0.0	73.7
=	172.4	0.0	0.0	73.1
=	173.0	0.0	0.0	72.6
=	173.6	0.0	0.0	72.0
=	174.1	0.0	0.0	71.7
=	174.6	0.0	0.0	71.2
=	175.1	0.0	0.0	70.8
=	175.5	0.0	0.0	70.4
=	176.0	0.0	0.0	70.0
=	176.7	0.0	0.0	69.4
=	177.2	0.0	0.0	68.9
=	177.9	0.0	0.0	68.3
=	178.4	0.0	0.0	67.7
=	179.1	0.0	0.0	67.2
=	179.7	0.0	0.0	66.6
=	180.3	0.0	0.0	66.0
=	180.9	0.0	0.0	65.5
=	181.5	0.0	0.0	64.9
=	182.1	0.0	0.0	64.4
=	182.7	0.0	0.0	63.7
=	183.3	0.0	0.0	63.1
=	183.9	0.0	0.0	62.6
=	184.5	0.0	0.0	61.9
=	185.1	0.0	0.0	61.3
=	185.7	0.0	0.0	60.7
=	186.3	0.0	0.0	60.1
=	186.9	0.0	0.0	59.4
=	187.5	0.0	0.0	58.7
=	188.1	0.0	0.0	58.0
=	188.7	0.0	0.0	57.4
=	189.1	0.0	0.0	56.9
=	189.7	0.0	0.0	56.2
=	190.4	0.0	0.0	55.4
=	190.9	0.0	0.0	54.7
=	191.4	0.0	0.0	54.1
=	191.9	0.0	0.0	53.4
=	192.5	0.0	0.0	52.5
=	193.1	0.0	0.0	51.7
=	193.6	0.0	0.0	50.9
=	194.1	0.0	0.0	50.1
=	194.7	0.0	0.0	49.2
=	195.4	0.0	0.0	48.2
=	196.0	0.0	0.0	47.1
=	196.6	0.0	0.0	46.1
=	197.2	0.0	0.0	44.9
=	197.8	0.0	0.0	43.8
=	198.4	0.0	0.0	42.6
=	199.0	0.0	0.0	41.4
=	199.6	0.0	0.0	40.1
=	200.2	0.0	0.0	38.9
=	200.8	0.0	0.0	37.5
=	201.4	0.0	0.0	36.2
=	202.0	0.0	0.0	34.7
=	202.6	0.0	0.0	33.4
=	203.2	0.0	0.0	32.0
=	203.8	0.0	0.0	30.7
=	204.3	0.0	0.0	29.7
=	204.8	0.0	0.0	28.5
=	205.2	0.0	0.0	27.6
=	205.6	0.0	0.0	26.7
=	206.0	0.0	0.0	25.8
=	206.4	0.0	0.0	24.9
=	207.0	0.0	0.0	23.7
=	207.5	0.0	0.0	22.7
=	207.9	0.0	0.0	21.9
=	208.3	0.0	0.0	21.0
=	208.7	0.0	0.0	20.2
=	209.1	0.0	0.0	19.4
=	209.7	0.0	0.0	18.4
=	210.2	0.0	0.0	17.5
=	210.6	0.0	0.0	16.7
=	211.1	0.0	0.0	15.9
=	211.5	0.0	0.0	15.3
=	212.1	0.0	0.0	14.4
=	212.7	0.0	0.0	13.5
=	213.1	0.0	0.0	12.9
=	213.7	0.0	0.0	12.1
=	214.2	0.0	0.0	11.5
=	214.7	0.0	0.0	10.9
=	215.1	0.0	0.0	10.4
=	215.5	0.0	0.0	9.9
=	215.9	0.0	0.0	9.5
=	216.4	0.0	0.0	9.1
=	216.8	0.0	0.0	8.8
=	217.2	0.0	0.0	8.4
=	217.6	0.0	0.0	8.1
=	218.1	0.0	0.0	7.7
=	218.5	0.0	0.0	7.3
=	219.1	0.0	0.0	6.9
=	219.7	0.0	0.0	6.5
=	220.3	0.0	0.0	6.2
=	220.8	0.0	0.0	5.9
=	221.2	0.0	0.0	5.7
=	221.6	0.0	0.0	5.5
=	222.0	0.0	0.0	5.3
=	222.4	0.0	0.0	5.1
=	222.8	0.0	0.0	5.0
=	223.4	0.0	0.0	4.8
=	223.9	0.0	0.0	4.6
=	224.4	0.0	0.0	4.4
=	224.8	0.0	0.0	4.3
=	225.4	0.0	0.0	4.1
=	225.9	0.0	0.0	4.0
=	226.3	0.0	0.0	3.9
=	226.8	0.0	0.0	3.8
=	227.3	0.0	0.0	3.7
=	227.8	0.0	0.0	3.6
=	228.3	0.0	0.0	3.5
=	228.9	0.0	0.0	3.4
=	229.4	0.0	0.0	3.3
=	230.0	0.0	0.0	3.2
=	230.6	0.0	0.0	3.2
=	230.9	0.0	0.0	3.1
=	231.4	0.0	0.0	3.0
=	231.8	0.0	0.0	3.0
=	232.3	0.0	0.0	2.9
=	232.9	0.0	0.0	2.9
=	233.5	0.0	0.0	2.8
=	234.1	0.0	0.0	2.8
=	234.7	0.0	0.0	2.7
=	235.1	0.0	0.0	2.7
=	235.5	0.0	0.0	2.6
=	235.9	0.0	0.0	2.6
=	236.3	0.0	0.0	2.6
:EOM # End of Measurement

:EOF # End of File