:MSR 	1	 # No. of measurement in file
:SYS BDS 0   # Beam Data Scanner System
#
# RFA300 ASCII Measurement Dump ( BDS format )
#
# Measurement number 	1
#
%VNR 1.0
%MOD 	RAT
%TYP 	SCN
%SCN 	DPT
%FLD 	ION
%DAT 	10-06-2011
%TIM 	12:00:00
%FSZ 	200	200
%BMT 	ELE	   20.0
%SSD 	
%BUP 	0
%BRD 	
%FSH 	1
%ASC 	0
%WEG 	0
%GPO 	0
%CPO 	0
%MEA 	1
%PRD 	0,0
%PTS 	522
%STS 	    0.0	  0.0	   0.0 # Start Scan values in mm ( X , Y , Z )
%EDS 	    0.0	   0.0	   208.4 # End Scan values in mm ( X , Y , Z )
#
#	  X      Y      Z     Dose
#
=	0.0	0.0	0.0	92.6
=	0.0	0.0	0.1	92.7
=	0.0	0.0	0.5	92.8
=	0.0	0.0	0.9	93.0
=	0.0	0.0	1.3	93.3
=	0.0	0.0	1.7	93.6
=	0.0	0.0	2.1	93.9
=	0.0	0.0	2.5	94.4
=	0.0	0.0	2.9	94.8
=	0.0	0.0	3.3	95.1
=	0.0	0.0	3.7	95.4
=	0.0	0.0	4.1	95.7
=	0.0	0.0	4.5	96.0
=	0.0	0.0	4.9	96.3
=	0.0	0.0	5.3	96.5
=	0.0	0.0	5.7	96.8
=	0.0	0.0	6.1	97.0
=	0.0	0.0	6.5	97.2
=	0.0	0.0	6.9	97.3
=	0.0	0.0	7.3	97.5
=	0.0	0.0	7.7	97.7
=	0.0	0.0	8.1	97.8
=	0.0	0.0	8.5	97.9
=	0.0	0.0	8.9	98.0
=	0.0	0.0	9.3	98.2
=	0.0	0.0	9.7	98.3
=	0.0	0.0	10.1	98.3
=	0.0	0.0	10.5	98.5
=	0.0	0.0	10.9	98.5
=	0.0	0.0	11.3	98.6
=	0.0	0.0	11.7	98.7
=	0.0	0.0	12.1	98.8
=	0.0	0.0	12.5	98.9
=	0.0	0.0	12.9	99.0
=	0.0	0.0	13.3	99.1
=	0.0	0.0	13.7	99.1
=	0.0	0.0	14.1	99.2
=	0.0	0.0	14.5	99.2
=	0.0	0.0	14.9	99.3
=	0.0	0.0	15.3	99.3
=	0.0	0.0	15.7	99.4
=	0.0	0.0	16.1	99.4
=	0.0	0.0	16.5	99.5
=	0.0	0.0	16.9	99.5
=	0.0	0.0	17.4	99.6
=	0.0	0.0	17.8	99.6
=	0.0	0.0	18.2	99.7
=	0.0	0.0	18.6	99.7
=	0.0	0.0	19.0	99.7
=	0.0	0.0	19.4	99.8
=	0.0	0.0	19.8	99.8
=	0.0	0.0	20.2	99.8
=	0.0	0.0	20.6	99.9
=	0.0	0.0	21.0	99.9
=	0.0	0.0	21.4	99.9
=	0.0	0.0	21.8	99.9
=	0.0	0.0	22.2	100.0
=	0.0	0.0	22.6	100.0
=	0.0	0.0	23.0	100.0
=	0.0	0.0	23.4	100.0
=	0.0	0.0	23.8	100.0
=	0.0	0.0	24.2	100.0
=	0.0	0.0	24.6	100.0
=	0.0	0.0	25.0	100.0
=	0.0	0.0	25.4	100.0
=	0.0	0.0	25.8	100.0
=	0.0	0.0	26.2	99.9
=	0.0	0.0	26.6	99.9
=	0.0	0.0	27.0	99.9
=	0.0	0.0	27.4	99.9
=	0.0	0.0	27.8	99.9
=	0.0	0.0	28.2	99.9
=	0.0	0.0	28.6	99.9
=	0.0	0.0	29.0	99.9
=	0.0	0.0	29.4	99.9
=	0.0	0.0	29.8	99.8
=	0.0	0.0	30.2	99.8
=	0.0	0.0	30.6	99.8
=	0.0	0.0	31.0	99.8
=	0.0	0.0	31.4	99.7
=	0.0	0.0	31.8	99.7
=	0.0	0.0	32.2	99.7
=	0.0	0.0	32.6	99.7
=	0.0	0.0	33.0	99.7
=	0.0	0.0	33.4	99.6
=	0.0	0.0	33.8	99.5
=	0.0	0.0	34.2	99.5
=	0.0	0.0	34.6	99.5
=	0.0	0.0	35.0	99.4
=	0.0	0.0	35.4	99.4
=	0.0	0.0	35.8	99.3
=	0.0	0.0	36.2	99.3
=	0.0	0.0	36.6	99.3
=	0.0	0.0	37.0	99.2
=	0.0	0.0	37.4	99.2
=	0.0	0.0	37.8	99.1
=	0.0	0.0	38.2	99.0
=	0.0	0.0	38.6	99.0
=	0.0	0.0	39.0	98.9
=	0.0	0.0	39.4	98.8
=	0.0	0.0	39.8	98.8
=	0.0	0.0	40.2	98.7
=	0.0	0.0	40.6	98.6
=	0.0	0.0	41.0	98.6
=	0.0	0.0	41.4	98.5
=	0.0	0.0	41.8	98.5
=	0.0	0.0	42.2	98.4
=	0.0	0.0	42.6	98.3
=	0.0	0.0	43.0	98.2
=	0.0	0.0	43.4	98.1
=	0.0	0.0	43.8	98.0
=	0.0	0.0	44.2	98.0
=	0.0	0.0	44.6	97.9
=	0.0	0.0	45.0	97.8
=	0.0	0.0	45.4	97.7
=	0.0	0.0	45.8	97.6
=	0.0	0.0	46.2	97.4
=	0.0	0.0	46.6	97.3
=	0.0	0.0	47.0	97.1
=	0.0	0.0	47.4	97.0
=	0.0	0.0	47.8	96.9
=	0.0	0.0	48.2	96.8
=	0.0	0.0	48.6	96.7
=	0.0	0.0	49.0	96.5
=	0.0	0.0	49.4	96.4
=	0.0	0.0	49.8	96.2
=	0.0	0.0	50.2	96.0
=	0.0	0.0	50.6	95.8
=	0.0	0.0	51.0	95.7
=	0.0	0.0	51.4	95.6
=	0.0	0.0	51.8	95.3
=	0.0	0.0	52.3	95.2
=	0.0	0.0	52.7	94.9
=	0.0	0.0	53.1	94.8
=	0.0	0.0	53.5	94.6
=	0.0	0.0	53.9	94.4
=	0.0	0.0	54.3	94.2
=	0.0	0.0	54.7	93.9
=	0.0	0.0	55.1	93.7
=	0.0	0.0	55.5	93.5
=	0.0	0.0	55.9	93.2
=	0.0	0.0	56.3	93.0
=	0.0	0.0	56.7	92.7
=	0.0	0.0	57.1	92.5
=	0.0	0.0	57.5	92.1
=	0.0	0.0	57.9	91.8
=	0.0	0.0	58.3	91.5
=	0.0	0.0	58.7	91.2
=	0.0	0.0	59.1	90.8
=	0.0	0.0	59.5	90.5
=	0.0	0.0	59.9	90.2
=	0.0	0.0	60.3	89.8
=	0.0	0.0	60.7	89.4
=	0.0	0.0	61.1	89.1
=	0.0	0.0	61.5	88.8
=	0.0	0.0	61.9	88.4
=	0.0	0.0	62.3	87.9
=	0.0	0.0	62.7	87.5
=	0.0	0.0	63.1	87.2
=	0.0	0.0	63.5	86.7
=	0.0	0.0	63.9	86.3
=	0.0	0.0	64.3	85.8
=	0.0	0.0	64.7	85.3
=	0.0	0.0	65.1	84.8
=	0.0	0.0	65.5	84.4
=	0.0	0.0	65.9	83.8
=	0.0	0.0	66.3	83.3
=	0.0	0.0	66.7	82.8
=	0.0	0.0	67.1	82.3
=	0.0	0.0	67.5	81.7
=	0.0	0.0	67.9	81.2
=	0.0	0.0	68.3	80.6
=	0.0	0.0	68.7	79.9
=	0.0	0.0	69.1	79.3
=	0.0	0.0	69.5	78.7
=	0.0	0.0	69.9	78.0
=	0.0	0.0	70.3	77.3
=	0.0	0.0	70.7	76.7
=	0.0	0.0	71.1	76.0
=	0.0	0.0	71.5	75.2
=	0.0	0.0	71.9	74.6
=	0.0	0.0	72.3	73.9
=	0.0	0.0	72.7	73.2
=	0.0	0.0	73.1	72.4
=	0.0	0.0	73.5	71.6
=	0.0	0.0	73.9	70.8
=	0.0	0.0	74.3	70.1
=	0.0	0.0	74.7	69.2
=	0.0	0.0	75.1	68.4
=	0.0	0.0	75.5	67.5
=	0.0	0.0	75.9	66.6
=	0.0	0.0	76.3	65.8
=	0.0	0.0	76.7	64.9
=	0.0	0.0	77.1	64.0
=	0.0	0.0	77.5	63.1
=	0.0	0.0	77.9	62.2
=	0.0	0.0	78.3	61.3
=	0.0	0.0	78.7	60.3
=	0.0	0.0	79.1	59.3
=	0.0	0.0	79.5	58.4
=	0.0	0.0	79.9	57.5
=	0.0	0.0	80.3	56.5
=	0.0	0.0	80.7	55.4
=	0.0	0.0	81.1	54.5
=	0.0	0.0	81.5	53.5
=	0.0	0.0	81.9	52.5
=	0.0	0.0	82.3	51.4
=	0.0	0.0	82.7	50.5
=	0.0	0.0	83.1	49.4
=	0.0	0.0	83.5	48.3
=	0.0	0.0	83.9	47.4
=	0.0	0.0	84.3	46.3
=	0.0	0.0	84.7	45.1
=	0.0	0.0	85.1	44.1
=	0.0	0.0	85.5	43.0
=	0.0	0.0	85.9	42.0
=	0.0	0.0	86.3	41.0
=	0.0	0.0	86.8	39.9
=	0.0	0.0	87.2	38.8
=	0.0	0.0	87.6	37.8
=	0.0	0.0	88.0	36.8
=	0.0	0.0	88.4	35.7
=	0.0	0.0	88.8	34.7
=	0.0	0.0	89.2	33.7
=	0.0	0.0	89.6	32.6
=	0.0	0.0	90.0	31.6
=	0.0	0.0	90.4	30.6
=	0.0	0.0	90.8	29.6
=	0.0	0.0	91.2	28.6
=	0.0	0.0	91.6	27.6
=	0.0	0.0	92.0	26.7
=	0.0	0.0	92.4	25.8
=	0.0	0.0	92.8	24.9
=	0.0	0.0	93.2	24.0
=	0.0	0.0	93.6	23.2
=	0.0	0.0	94.0	22.4
=	0.0	0.0	94.4	21.6
=	0.0	0.0	94.8	20.7
=	0.0	0.0	95.2	19.9
=	0.0	0.0	95.6	19.1
=	0.0	0.0	96.0	18.4
=	0.0	0.0	96.4	17.6
=	0.0	0.0	96.8	16.9
=	0.0	0.0	97.2	16.3
=	0.0	0.0	97.6	15.6
=	0.0	0.0	98.0	14.9
=	0.0	0.0	98.4	14.4
=	0.0	0.0	98.8	13.8
=	0.0	0.0	99.2	13.2
=	0.0	0.0	99.6	12.7
=	0.0	0.0	100.0	12.2
=	0.0	0.0	100.4	11.6
=	0.0	0.0	100.8	11.2
=	0.0	0.0	101.2	10.8
=	0.0	0.0	101.6	10.4
=	0.0	0.0	102.0	10.0
=	0.0	0.0	102.4	9.6
=	0.0	0.0	102.8	9.2
=	0.0	0.0	103.2	8.9
=	0.0	0.0	103.6	8.7
=	0.0	0.0	104.0	8.3
=	0.0	0.0	104.4	8.1
=	0.0	0.0	104.8	7.8
=	0.0	0.0	105.2	7.6
=	0.0	0.0	105.6	7.4
=	0.0	0.0	106.0	7.2
=	0.0	0.0	106.4	7.0
=	0.0	0.0	106.8	6.9
=	0.0	0.0	107.2	6.7
=	0.0	0.0	107.6	6.6
=	0.0	0.0	108.0	6.5
=	0.0	0.0	108.4	6.4
=	0.0	0.0	108.8	6.2
=	0.0	0.0	109.2	6.2
=	0.0	0.0	109.6	6.1
=	0.0	0.0	110.0	6.0
=	0.0	0.0	110.4	6.0
=	0.0	0.0	110.8	5.9
=	0.0	0.0	111.2	5.8
=	0.0	0.0	111.6	5.8
=	0.0	0.0	112.0	5.8
=	0.0	0.0	112.4	5.7
=	0.0	0.0	112.8	5.7
=	0.0	0.0	113.2	5.7
=	0.0	0.0	113.6	5.7
=	0.0	0.0	114.0	5.6
=	0.0	0.0	114.4	5.6
=	0.0	0.0	114.8	5.6
=	0.0	0.0	115.2	5.6
=	0.0	0.0	115.6	5.6
=	0.0	0.0	116.0	5.5
=	0.0	0.0	116.4	5.5
=	0.0	0.0	116.8	5.5
=	0.0	0.0	117.2	5.5
=	0.0	0.0	117.6	5.5
=	0.0	0.0	118.0	5.5
=	0.0	0.0	118.4	5.5
=	0.0	0.0	118.8	5.5
=	0.0	0.0	119.2	5.5
=	0.0	0.0	119.6	5.5
=	0.0	0.0	120.0	5.5
=	0.0	0.0	120.4	5.5
=	0.0	0.0	120.8	5.5
=	0.0	0.0	121.2	5.5
=	0.0	0.0	121.6	5.5
=	0.0	0.0	122.0	5.4
=	0.0	0.0	122.4	5.4
=	0.0	0.0	122.8	5.4
=	0.0	0.0	123.2	5.4
=	0.0	0.0	123.6	5.4
=	0.0	0.0	124.0	5.4
=	0.0	0.0	124.4	5.4
=	0.0	0.0	124.8	5.4
=	0.0	0.0	125.2	5.4
=	0.0	0.0	125.6	5.4
=	0.0	0.0	126.0	5.4
=	0.0	0.0	126.4	5.4
=	0.0	0.0	126.8	5.4
=	0.0	0.0	127.2	5.4
=	0.0	0.0	127.6	5.4
=	0.0	0.0	128.0	5.4
=	0.0	0.0	128.4	5.4
=	0.0	0.0	128.8	5.3
=	0.0	0.0	129.2	5.3
=	0.0	0.0	129.6	5.3
=	0.0	0.0	130.0	5.3
=	0.0	0.0	130.4	5.3
=	0.0	0.0	130.8	5.3
=	0.0	0.0	131.2	5.3
=	0.0	0.0	131.6	5.3
=	0.0	0.0	132.0	5.3
=	0.0	0.0	132.4	5.3
=	0.0	0.0	132.8	5.3
=	0.0	0.0	133.2	5.3
=	0.0	0.0	133.6	5.3
=	0.0	0.0	134.0	5.3
=	0.0	0.0	134.4	5.3
=	0.0	0.0	134.8	5.3
=	0.0	0.0	135.2	5.3
=	0.0	0.0	135.6	5.3
=	0.0	0.0	136.0	5.3
=	0.0	0.0	136.4	5.3
=	0.0	0.0	136.8	5.2
=	0.0	0.0	137.2	5.2
=	0.0	0.0	137.6	5.2
=	0.0	0.0	138.0	5.2
=	0.0	0.0	138.4	5.2
=	0.0	0.0	138.8	5.2
=	0.0	0.0	139.2	5.2
=	0.0	0.0	139.6	5.2
=	0.0	0.0	140.0	5.2
=	0.0	0.0	140.4	5.2
=	0.0	0.0	140.8	5.2
=	0.0	0.0	141.2	5.2
=	0.0	0.0	141.6	5.1
=	0.0	0.0	142.0	5.1
=	0.0	0.0	142.4	5.1
=	0.0	0.0	142.8	5.1
=	0.0	0.0	143.2	5.1
=	0.0	0.0	143.6	5.1
=	0.0	0.0	144.0	5.1
=	0.0	0.0	144.4	5.1
=	0.0	0.0	144.8	5.1
=	0.0	0.0	145.2	5.0
=	0.0	0.0	145.6	5.0
=	0.0	0.0	146.0	5.0
=	0.0	0.0	146.4	5.0
=	0.0	0.0	146.8	5.0
=	0.0	0.0	147.2	5.0
=	0.0	0.0	147.6	5.0
=	0.0	0.0	148.0	5.0
=	0.0	0.0	148.4	4.9
=	0.0	0.0	148.8	4.9
=	0.0	0.0	149.2	4.9
=	0.0	0.0	149.6	4.9
=	0.0	0.0	150.0	4.9
=	0.0	0.0	150.4	4.9
=	0.0	0.0	150.8	4.9
=	0.0	0.0	151.2	4.9
=	0.0	0.0	151.6	4.9
=	0.0	0.0	152.0	4.9
=	0.0	0.0	152.4	4.9
=	0.0	0.0	152.8	4.9
=	0.0	0.0	153.2	4.8
=	0.0	0.0	153.6	4.8
=	0.0	0.0	154.0	4.8
=	0.0	0.0	154.4	4.8
=	0.0	0.0	154.8	4.8
=	0.0	0.0	155.2	4.8
=	0.0	0.0	155.6	4.8
=	0.0	0.0	156.0	4.8
=	0.0	0.0	156.4	4.8
=	0.0	0.0	156.8	4.8
=	0.0	0.0	157.2	4.8
=	0.0	0.0	157.6	4.8
=	0.0	0.0	158.0	4.8
=	0.0	0.0	158.4	4.7
=	0.0	0.0	158.8	4.7
=	0.0	0.0	159.2	4.7
=	0.0	0.0	159.6	4.7
=	0.0	0.0	160.0	4.7
=	0.0	0.0	160.4	4.7
=	0.0	0.0	160.8	4.7
=	0.0	0.0	161.2	4.7
=	0.0	0.0	161.6	4.7
=	0.0	0.0	162.0	4.7
=	0.0	0.0	162.4	4.6
=	0.0	0.0	162.8	4.6
=	0.0	0.0	163.2	4.6
=	0.0	0.0	163.6	4.6
=	0.0	0.0	164.0	4.6
=	0.0	0.0	164.4	4.6
=	0.0	0.0	164.8	4.6
=	0.0	0.0	165.2	4.6
=	0.0	0.0	165.6	4.6
=	0.0	0.0	166.0	4.6
=	0.0	0.0	166.4	4.6
=	0.0	0.0	166.8	4.5
=	0.0	0.0	167.2	4.5
=	0.0	0.0	167.6	4.5
=	0.0	0.0	168.0	4.5
=	0.0	0.0	168.4	4.5
=	0.0	0.0	168.8	4.5
=	0.0	0.0	169.2	4.5
=	0.0	0.0	169.6	4.5
=	0.0	0.0	170.0	4.5
=	0.0	0.0	170.4	4.5
=	0.0	0.0	170.8	4.5
=	0.0	0.0	171.2	4.4
=	0.0	0.0	171.6	4.4
=	0.0	0.0	172.0	4.4
=	0.0	0.0	172.4	4.4
=	0.0	0.0	172.8	4.4
=	0.0	0.0	173.2	4.4
=	0.0	0.0	173.6	4.4
=	0.0	0.0	174.0	4.4
=	0.0	0.0	174.4	4.4
=	0.0	0.0	174.8	4.4
=	0.0	0.0	175.2	4.3
=	0.0	0.0	175.6	4.3
=	0.0	0.0	176.0	4.3
=	0.0	0.0	176.4	4.3
=	0.0	0.0	176.8	4.3
=	0.0	0.0	177.2	4.3
=	0.0	0.0	177.6	4.3
=	0.0	0.0	178.0	4.3
=	0.0	0.0	178.4	4.3
=	0.0	0.0	178.8	4.3
=	0.0	0.0	179.2	4.3
=	0.0	0.0	179.6	4.3
=	0.0	0.0	180.0	4.2
=	0.0	0.0	180.4	4.2
=	0.0	0.0	180.8	4.2
=	0.0	0.0	181.2	4.2
=	0.0	0.0	181.6	4.2
=	0.0	0.0	182.0	4.2
=	0.0	0.0	182.4	4.2
=	0.0	0.0	182.8	4.2
=	0.0	0.0	183.2	4.2
=	0.0	0.0	183.6	4.2
=	0.0	0.0	184.0	4.2
=	0.0	0.0	184.4	4.2
=	0.0	0.0	184.8	4.2
=	0.0	0.0	185.2	4.1
=	0.0	0.0	185.6	4.1
=	0.0	0.0	186.0	4.1
=	0.0	0.0	186.4	4.1
=	0.0	0.0	186.8	4.1
=	0.0	0.0	187.2	4.1
=	0.0	0.0	187.6	4.1
=	0.0	0.0	188.0	4.1
=	0.0	0.0	188.4	4.1
=	0.0	0.0	188.8	4.1
=	0.0	0.0	189.2	4.1
=	0.0	0.0	189.6	4.0
=	0.0	0.0	190.0	4.0
=	0.0	0.0	190.4	4.0
=	0.0	0.0	190.8	4.0
=	0.0	0.0	191.2	4.0
=	0.0	0.0	191.6	4.0
=	0.0	0.0	192.0	4.0
=	0.0	0.0	192.4	4.0
=	0.0	0.0	192.8	4.0
=	0.0	0.0	193.2	4.0
=	0.0	0.0	193.6	4.0
=	0.0	0.0	194.0	4.0
=	0.0	0.0	194.4	4.0
=	0.0	0.0	194.8	4.0
=	0.0	0.0	195.2	4.0
=	0.0	0.0	195.6	4.0
=	0.0	0.0	196.0	3.9
=	0.0	0.0	196.4	3.9
=	0.0	0.0	196.8	3.9
=	0.0	0.0	197.2	3.9
=	0.0	0.0	197.6	3.9
=	0.0	0.0	198.0	3.9
=	0.0	0.0	198.4	3.9
=	0.0	0.0	198.8	3.9
=	0.0	0.0	199.2	3.9
=	0.0	0.0	199.6	3.9
=	0.0	0.0	200.0	3.9
=	0.0	0.0	200.4	3.9
=	0.0	0.0	200.8	3.8
=	0.0	0.0	201.2	3.8
=	0.0	0.0	201.6	3.8
=	0.0	0.0	202.0	3.8
=	0.0	0.0	202.4	3.8
=	0.0	0.0	202.8	3.8
=	0.0	0.0	203.2	3.8
=	0.0	0.0	203.6	3.8
=	0.0	0.0	204.0	3.8
=	0.0	0.0	204.4	3.8
=	0.0	0.0	204.8	3.8
=	0.0	0.0	205.2	3.8
=	0.0	0.0	205.6	3.8
=	0.0	0.0	206.0	3.8
=	0.0	0.0	206.4	3.7
=	0.0	0.0	206.8	3.7
=	0.0	0.0	207.2	3.7
=	0.0	0.0	207.6	3.7
=	0.0	0.0	208.0	3.7
=	0.0	0.0	208.4	3.7
:EOM # End of Measurement

:EOF # End of File