:MSR 	1	 # No. of measurement in file
:SYS BDS 0   # Beam Data Scanner System
#
# RFA300 ASCII Measurement Dump ( BDS format )
#
# Measurement number 	1
#
%VNR 1.0
%MOD 	RAT
%TYP 	SCN
%SCN 	DPT
%FLD 	ION
%DAT 	10-05-2011
%TIM 	12:00:00
%FSZ 	250	250
%BMT 	ELE	   20.0
%SSD 	
%BUP 	0
%BRD 	
%FSH 	1
%ASC 	0
%WEG 	0
%GPO 	0
%CPO 	0
%MEA 	1
%PRD 	0,0
%PTS 	554
%STS 	    0.0	  0.0	   0.0 # Start Scan values in mm ( X , Y , Z )
%EDS 	    0.0	   0.0	   208.4 # End Scan values in mm ( X , Y , Z )
#
#	  X      Y      Z     Dose
#
=	0.0	0.0	0.0	92.6
=	0.0	0.0	0.2	92.7
=	0.0	0.0	0.6	92.9
=	0.0	0.0	1.0	93.2
=	0.0	0.0	1.6	93.5
=	0.0	0.0	1.9	93.8
=	0.0	0.0	2.4	94.2
=	0.0	0.0	3.0	94.8
=	0.0	0.0	3.4	95.1
=	0.0	0.0	4.0	95.7
=	0.0	0.0	4.4	95.9
=	0.0	0.0	4.7	96.1
=	0.0	0.0	5.2	96.4
=	0.0	0.0	5.8	96.7
=	0.0	0.0	6.2	96.9
=	0.0	0.0	6.7	97.2
=	0.0	0.0	7.1	97.3
=	0.0	0.0	7.5	97.5
=	0.0	0.0	7.8	97.6
=	0.0	0.0	8.2	97.8
=	0.0	0.0	8.6	97.9
=	0.0	0.0	9.1	98.0
=	0.0	0.0	9.5	98.2
=	0.0	0.0	10.1	98.3
=	0.0	0.0	10.4	98.4
=	0.0	0.0	11.0	98.5
=	0.0	0.0	11.4	98.6
=	0.0	0.0	11.7	98.7
=	0.0	0.0	12.2	98.8
=	0.0	0.0	12.5	98.9
=	0.0	0.0	12.8	99.0
=	0.0	0.0	13.1	99.0
=	0.0	0.0	13.6	99.1
=	0.0	0.0	14.0	99.1
=	0.0	0.0	14.3	99.2
=	0.0	0.0	14.9	99.3
=	0.0	0.0	15.2	99.3
=	0.0	0.0	15.6	99.4
=	0.0	0.0	15.9	99.4
=	0.0	0.0	16.2	99.5
=	0.0	0.0	16.6	99.5
=	0.0	0.0	17.0	99.6
=	0.0	0.0	17.4	99.6
=	0.0	0.0	17.8	99.7
=	0.0	0.0	18.2	99.7
=	0.0	0.0	18.5	99.7
=	0.0	0.0	18.8	99.8
=	0.0	0.0	19.1	99.8
=	0.0	0.0	19.4	99.8
=	0.0	0.0	19.7	99.8
=	0.0	0.0	20.0	99.8
=	0.0	0.0	20.3	99.9
=	0.0	0.0	20.7	99.9
=	0.0	0.0	21.0	99.9
=	0.0	0.0	21.3	99.9
=	0.0	0.0	21.9	99.9
=	0.0	0.0	22.2	99.9
=	0.0	0.0	22.6	100.0
=	0.0	0.0	22.9	100.0
=	0.0	0.0	23.2	100.0
=	0.0	0.0	23.5	100.0
=	0.0	0.0	23.9	100.0
=	0.0	0.0	24.3	100.0
=	0.0	0.0	24.7	100.0
=	0.0	0.0	25.0	100.0
=	0.0	0.0	25.3	100.0
=	0.0	0.0	25.6	100.0
=	0.0	0.0	25.9	100.0
=	0.0	0.0	26.2	100.0
=	0.0	0.0	26.5	100.0
=	0.0	0.0	26.8	100.0
=	0.0	0.0	27.1	100.0
=	0.0	0.0	27.4	99.9
=	0.0	0.0	27.7	100.0
=	0.0	0.0	28.0	100.0
=	0.0	0.0	28.3	100.0
=	0.0	0.0	28.6	100.0
=	0.0	0.0	28.9	100.0
=	0.0	0.0	29.2	99.9
=	0.0	0.0	29.6	99.9
=	0.0	0.0	29.8	99.9
=	0.0	0.0	30.2	99.9
=	0.0	0.0	30.4	99.9
=	0.0	0.0	30.7	99.9
=	0.0	0.0	31.1	99.8
=	0.0	0.0	31.4	99.8
=	0.0	0.0	31.7	99.8
=	0.0	0.0	32.0	99.8
=	0.0	0.0	32.3	99.7
=	0.0	0.0	32.6	99.7
=	0.0	0.0	32.9	99.7
=	0.0	0.0	33.2	99.7
=	0.0	0.0	33.5	99.6
=	0.0	0.0	33.8	99.6
=	0.0	0.0	34.1	99.6
=	0.0	0.0	34.4	99.6
=	0.0	0.0	34.7	99.5
=	0.0	0.0	35.0	99.5
=	0.0	0.0	35.3	99.5
=	0.0	0.0	35.7	99.5
=	0.0	0.0	35.9	99.4
=	0.0	0.0	36.2	99.4
=	0.0	0.0	36.5	99.3
=	0.0	0.0	36.8	99.3
=	0.0	0.0	37.1	99.3
=	0.0	0.0	37.5	99.3
=	0.0	0.0	37.7	99.2
=	0.0	0.0	38.1	99.2
=	0.0	0.0	38.4	99.1
=	0.0	0.0	38.7	99.0
=	0.0	0.0	38.9	99.0
=	0.0	0.0	39.3	99.0
=	0.0	0.0	39.6	99.0
=	0.0	0.0	39.9	98.9
=	0.0	0.0	40.2	98.8
=	0.0	0.0	40.5	98.8
=	0.0	0.0	40.8	98.8
=	0.0	0.0	41.2	98.7
=	0.0	0.0	41.5	98.6
=	0.0	0.0	41.9	98.5
=	0.0	0.0	42.2	98.5
=	0.0	0.0	42.5	98.4
=	0.0	0.0	42.8	98.4
=	0.0	0.0	43.1	98.3
=	0.0	0.0	43.4	98.2
=	0.0	0.0	43.8	98.1
=	0.0	0.0	44.1	98.0
=	0.0	0.0	44.5	98.0
=	0.0	0.0	44.9	97.9
=	0.0	0.0	45.4	97.8
=	0.0	0.0	45.7	97.6
=	0.0	0.0	46.1	97.5
=	0.0	0.0	46.5	97.4
=	0.0	0.0	46.9	97.3
=	0.0	0.0	47.3	97.2
=	0.0	0.0	47.8	97.1
=	0.0	0.0	48.2	97.0
=	0.0	0.0	48.5	96.8
=	0.0	0.0	49.0	96.7
=	0.0	0.0	49.4	96.5
=	0.0	0.0	49.7	96.3
=	0.0	0.0	50.2	96.2
=	0.0	0.0	50.5	96.1
=	0.0	0.0	50.8	96.0
=	0.0	0.0	51.2	95.8
=	0.0	0.0	51.5	95.7
=	0.0	0.0	51.8	95.5
=	0.0	0.0	52.1	95.4
=	0.0	0.0	52.4	95.2
=	0.0	0.0	53.0	95.0
=	0.0	0.0	53.4	94.8
=	0.0	0.0	53.7	94.6
=	0.0	0.0	54.2	94.3
=	0.0	0.0	54.5	94.2
=	0.0	0.0	54.9	94.0
=	0.0	0.0	55.3	93.8
=	0.0	0.0	55.7	93.4
=	0.0	0.0	56.3	93.1
=	0.0	0.0	56.7	92.9
=	0.0	0.0	57.3	92.5
=	0.0	0.0	57.7	92.2
=	0.0	0.0	58.2	91.8
=	0.0	0.0	58.6	91.5
=	0.0	0.0	58.9	91.1
=	0.0	0.0	59.4	90.8
=	0.0	0.0	59.8	90.5
=	0.0	0.0	60.2	90.2
=	0.0	0.0	60.6	89.8
=	0.0	0.0	61.0	89.5
=	0.0	0.0	61.3	89.2
=	0.0	0.0	61.7	88.8
=	0.0	0.0	62.2	88.4
=	0.0	0.0	62.5	88.0
=	0.0	0.0	63.0	87.6
=	0.0	0.0	63.3	87.2
=	0.0	0.0	63.6	86.8
=	0.0	0.0	63.9	86.5
=	0.0	0.0	64.2	86.1
=	0.0	0.0	64.5	85.8
=	0.0	0.0	64.8	85.5
=	0.0	0.0	65.1	85.1
=	0.0	0.0	65.4	84.7
=	0.0	0.0	65.7	84.3
=	0.0	0.0	66.0	84.0
=	0.0	0.0	66.4	83.5
=	0.0	0.0	66.8	83.0
=	0.0	0.0	67.2	82.5
=	0.0	0.0	67.5	81.9
=	0.0	0.0	68.2	81.1
=	0.0	0.0	68.6	80.4
=	0.0	0.0	69.1	79.6
=	0.0	0.0	69.7	78.7
=	0.0	0.0	70.0	78.2
=	0.0	0.0	70.4	77.5
=	0.0	0.0	71.0	76.6
=	0.0	0.0	71.5	75.6
=	0.0	0.0	71.9	75.0
=	0.0	0.0	72.3	74.2
=	0.0	0.0	72.8	73.3
=	0.0	0.0	73.3	72.4
=	0.0	0.0	73.5	72.0
=	0.0	0.0	73.7	71.7
=	0.0	0.0	74.0	71.0
=	0.0	0.0	74.3	70.4
=	0.0	0.0	74.6	69.8
=	0.0	0.0	74.9	69.1
=	0.0	0.0	75.3	68.5
=	0.0	0.0	75.6	67.8
=	0.0	0.0	75.9	67.1
=	0.0	0.0	76.2	66.4
=	0.0	0.0	76.5	65.8
=	0.0	0.0	76.8	65.1
=	0.0	0.0	77.1	64.4
=	0.0	0.0	77.4	63.7
=	0.0	0.0	77.7	63.0
=	0.0	0.0	78.0	62.4
=	0.0	0.0	78.3	61.7
=	0.0	0.0	78.6	61.0
=	0.0	0.0	78.9	60.2
=	0.0	0.0	79.2	59.5
=	0.0	0.0	79.5	58.8
=	0.0	0.0	79.9	58.1
=	0.0	0.0	80.2	57.1
=	0.0	0.0	80.6	56.1
=	0.0	0.0	81.1	55.0
=	0.0	0.0	81.4	54.3
=	0.0	0.0	81.6	53.6
=	0.0	0.0	82.1	52.5
=	0.0	0.0	82.5	51.7
=	0.0	0.0	82.9	50.6
=	0.0	0.0	83.3	49.4
=	0.0	0.0	83.7	48.3
=	0.0	0.0	84.1	47.3
=	0.0	0.0	84.6	46.1
=	0.0	0.0	84.9	45.2
=	0.0	0.0	85.3	44.2
=	0.0	0.0	85.8	42.9
=	0.0	0.0	86.2	41.9
=	0.0	0.0	86.5	41.0
=	0.0	0.0	87.0	39.6
=	0.0	0.0	87.6	38.1
=	0.0	0.0	88.3	36.5
=	0.0	0.0	88.7	35.5
=	0.0	0.0	89.2	34.1
=	0.0	0.0	89.5	33.0
=	0.0	0.0	89.9	32.0
=	0.0	0.0	90.3	31.1
=	0.0	0.0	90.6	30.3
=	0.0	0.0	90.9	29.5
=	0.0	0.0	91.3	28.7
=	0.0	0.0	91.7	27.8
=	0.0	0.0	92.1	26.8
=	0.0	0.0	92.4	26.1
=	0.0	0.0	92.7	25.5
=	0.0	0.0	93.1	24.5
=	0.0	0.0	93.7	23.2
=	0.0	0.0	94.1	22.5
=	0.0	0.0	94.4	21.9
=	0.0	0.0	94.7	21.2
=	0.0	0.0	95.0	20.6
=	0.0	0.0	95.3	20.0
=	0.0	0.0	95.6	19.3
=	0.0	0.0	95.9	18.8
=	0.0	0.0	96.2	18.2
=	0.0	0.0	96.5	17.6
=	0.0	0.0	96.9	17.0
=	0.0	0.0	97.2	16.6
=	0.0	0.0	97.5	16.1
=	0.0	0.0	97.7	15.6
=	0.0	0.0	98.1	15.2
=	0.0	0.0	98.4	14.7
=	0.0	0.0	98.7	14.3
=	0.0	0.0	99.0	13.8
=	0.0	0.0	99.3	13.4
=	0.0	0.0	99.6	12.9
=	0.0	0.0	99.9	12.6
=	0.0	0.0	100.2	12.1
=	0.0	0.0	100.5	11.8
=	0.0	0.0	100.8	11.4
=	0.0	0.0	101.1	11.1
=	0.0	0.0	101.6	10.6
=	0.0	0.0	102.0	10.2
=	0.0	0.0	102.3	9.9
=	0.0	0.0	102.8	9.4
=	0.0	0.0	103.2	9.2
=	0.0	0.0	103.5	8.9
=	0.0	0.0	104.0	8.6
=	0.0	0.0	104.5	8.2
=	0.0	0.0	104.9	8.0
=	0.0	0.0	105.2	7.8
=	0.0	0.0	105.5	7.6
=	0.0	0.0	106.2	7.4
=	0.0	0.0	106.6	7.2
=	0.0	0.0	106.9	7.1
=	0.0	0.0	107.4	6.9
=	0.0	0.0	107.8	6.8
=	0.0	0.0	108.3	6.6
=	0.0	0.0	108.7	6.5
=	0.0	0.0	109.0	6.4
=	0.0	0.0	109.5	6.3
=	0.0	0.0	110.0	6.2
=	0.0	0.0	110.4	6.2
=	0.0	0.0	110.8	6.1
=	0.0	0.0	111.2	6.0
=	0.0	0.0	111.6	6.0
=	0.0	0.0	112.0	6.0
=	0.0	0.0	112.5	5.9
=	0.0	0.0	112.7	5.9
=	0.0	0.0	113.0	5.9
=	0.0	0.0	113.5	5.9
=	0.0	0.0	113.9	5.8
=	0.0	0.0	114.4	5.8
=	0.0	0.0	114.9	5.8
=	0.0	0.0	115.3	5.8
=	0.0	0.0	115.6	5.8
=	0.0	0.0	116.1	5.8
=	0.0	0.0	116.4	5.7
=	0.0	0.0	116.7	5.7
=	0.0	0.0	117.0	5.7
=	0.0	0.0	117.3	5.7
=	0.0	0.0	117.6	5.7
=	0.0	0.0	117.9	5.7
=	0.0	0.0	118.2	5.7
=	0.0	0.0	118.6	5.7
=	0.0	0.0	118.9	5.7
=	0.0	0.0	119.2	5.7
=	0.0	0.0	119.5	5.7
=	0.0	0.0	119.8	5.7
=	0.0	0.0	120.2	5.7
=	0.0	0.0	120.6	5.7
=	0.0	0.0	121.0	5.7
=	0.0	0.0	121.4	5.7
=	0.0	0.0	121.9	5.7
=	0.0	0.0	122.2	5.7
=	0.0	0.0	122.6	5.7
=	0.0	0.0	123.1	5.7
=	0.0	0.0	123.7	5.7
=	0.0	0.0	124.0	5.6
=	0.0	0.0	124.6	5.6
=	0.0	0.0	124.9	5.6
=	0.0	0.0	125.3	5.6
=	0.0	0.0	125.8	5.6
=	0.0	0.0	126.1	5.6
=	0.0	0.0	126.5	5.6
=	0.0	0.0	127.0	5.6
=	0.0	0.0	127.3	5.6
=	0.0	0.0	127.6	5.6
=	0.0	0.0	128.0	5.6
=	0.0	0.0	128.5	5.6
=	0.0	0.0	128.8	5.6
=	0.0	0.0	129.2	5.6
=	0.0	0.0	129.7	5.6
=	0.0	0.0	130.1	5.6
=	0.0	0.0	130.4	5.6
=	0.0	0.0	131.0	5.6
=	0.0	0.0	131.4	5.6
=	0.0	0.0	131.8	5.6
=	0.0	0.0	132.2	5.6
=	0.0	0.0	132.5	5.6
=	0.0	0.0	132.7	5.6
=	0.0	0.0	133.0	5.5
=	0.0	0.0	133.3	5.5
=	0.0	0.0	133.7	5.5
=	0.0	0.0	134.0	5.5
=	0.0	0.0	134.3	5.5
=	0.0	0.0	134.7	5.5
=	0.0	0.0	135.2	5.5
=	0.0	0.0	135.6	5.5
=	0.0	0.0	136.0	5.5
=	0.0	0.0	136.4	5.5
=	0.0	0.0	136.8	5.5
=	0.0	0.0	137.3	5.5
=	0.0	0.0	137.7	5.5
=	0.0	0.0	138.0	5.5
=	0.0	0.0	138.6	5.5
=	0.0	0.0	138.9	5.5
=	0.0	0.0	139.4	5.4
=	0.0	0.0	139.8	5.4
=	0.0	0.0	140.3	5.4
=	0.0	0.0	140.7	5.4
=	0.0	0.0	141.0	5.4
=	0.0	0.0	141.6	5.4
=	0.0	0.0	142.0	5.4
=	0.0	0.0	142.5	5.4
=	0.0	0.0	143.1	5.3
=	0.0	0.0	143.4	5.3
=	0.0	0.0	144.1	5.3
=	0.0	0.0	144.4	5.3
=	0.0	0.0	144.7	5.3
=	0.0	0.0	145.0	5.3
=	0.0	0.0	145.3	5.3
=	0.0	0.0	145.6	5.3
=	0.0	0.0	145.9	5.3
=	0.0	0.0	146.2	5.2
=	0.0	0.0	146.5	5.2
=	0.0	0.0	146.8	5.2
=	0.0	0.0	147.1	5.2
=	0.0	0.0	147.4	5.2
=	0.0	0.0	147.7	5.2
=	0.0	0.0	148.1	5.2
=	0.0	0.0	148.4	5.2
=	0.0	0.0	148.7	5.2
=	0.0	0.0	149.0	5.2
=	0.0	0.0	149.4	5.2
=	0.0	0.0	149.7	5.2
=	0.0	0.0	150.1	5.2
=	0.0	0.0	150.5	5.2
=	0.0	0.0	150.9	5.2
=	0.0	0.0	151.3	5.1
=	0.0	0.0	151.7	5.1
=	0.0	0.0	152.2	5.1
=	0.0	0.0	152.5	5.1
=	0.0	0.0	152.9	5.1
=	0.0	0.0	153.4	5.1
=	0.0	0.0	153.9	5.1
=	0.0	0.0	154.3	5.1
=	0.0	0.0	154.8	5.1
=	0.0	0.0	155.2	5.0
=	0.0	0.0	155.5	5.0
=	0.0	0.0	155.8	5.0
=	0.0	0.0	156.4	5.0
=	0.0	0.0	156.7	5.0
=	0.0	0.0	157.1	5.0
=	0.0	0.0	157.6	5.0
=	0.0	0.0	157.9	5.0
=	0.0	0.0	158.3	5.0
=	0.0	0.0	158.9	5.0
=	0.0	0.0	159.3	5.0
=	0.0	0.0	159.8	4.9
=	0.0	0.0	160.4	4.9
=	0.0	0.0	160.7	4.9
=	0.0	0.0	161.2	4.9
=	0.0	0.0	161.5	4.9
=	0.0	0.0	161.8	4.9
=	0.0	0.0	162.1	4.9
=	0.0	0.0	162.4	4.9
=	0.0	0.0	162.7	4.9
=	0.0	0.0	163.1	4.9
=	0.0	0.0	163.4	4.9
=	0.0	0.0	163.7	4.8
=	0.0	0.0	164.0	4.8
=	0.0	0.0	164.3	4.8
=	0.0	0.0	164.6	4.8
=	0.0	0.0	164.9	4.8
=	0.0	0.0	165.2	4.8
=	0.0	0.0	165.5	4.8
=	0.0	0.0	165.8	4.8
=	0.0	0.0	166.1	4.8
=	0.0	0.0	166.4	4.8
=	0.0	0.0	166.7	4.8
=	0.0	0.0	167.2	4.8
=	0.0	0.0	167.6	4.8
=	0.0	0.0	168.2	4.7
=	0.0	0.0	168.6	4.7
=	0.0	0.0	169.2	4.7
=	0.0	0.0	169.8	4.7
=	0.0	0.0	170.2	4.7
=	0.0	0.0	170.7	4.7
=	0.0	0.0	171.2	4.7
=	0.0	0.0	171.6	4.7
=	0.0	0.0	172.2	4.7
=	0.0	0.0	172.6	4.7
=	0.0	0.0	173.1	4.7
=	0.0	0.0	173.7	4.6
=	0.0	0.0	174.0	4.6
=	0.0	0.0	174.6	4.6
=	0.0	0.0	175.0	4.6
=	0.0	0.0	175.5	4.6
=	0.0	0.0	176.1	4.6
=	0.0	0.0	176.4	4.6
=	0.0	0.0	177.1	4.6
=	0.0	0.0	177.5	4.5
=	0.0	0.0	177.9	4.5
=	0.0	0.0	178.5	4.5
=	0.0	0.0	178.9	4.5
=	0.0	0.0	179.5	4.5
=	0.0	0.0	179.9	4.5
=	0.0	0.0	180.4	4.5
=	0.0	0.0	181.0	4.5
=	0.0	0.0	181.3	4.5
=	0.0	0.0	181.6	4.5
=	0.0	0.0	181.9	4.4
=	0.0	0.0	182.3	4.4
=	0.0	0.0	182.6	4.4
=	0.0	0.0	182.9	4.4
=	0.0	0.0	183.2	4.4
=	0.0	0.0	183.5	4.4
=	0.0	0.0	183.8	4.4
=	0.0	0.0	184.1	4.4
=	0.0	0.0	184.5	4.4
=	0.0	0.0	184.9	4.4
=	0.0	0.0	185.2	4.4
=	0.0	0.0	185.6	4.3
=	0.0	0.0	186.1	4.3
=	0.0	0.0	186.6	4.3
=	0.0	0.0	187.0	4.3
=	0.0	0.0	187.6	4.3
=	0.0	0.0	188.0	4.3
=	0.0	0.0	188.3	4.3
=	0.0	0.0	188.9	4.3
=	0.0	0.0	189.4	4.3
=	0.0	0.0	189.8	4.3
=	0.0	0.0	190.1	4.3
=	0.0	0.0	190.7	4.3
=	0.0	0.0	191.0	4.3
=	0.0	0.0	191.3	4.3
=	0.0	0.0	191.6	4.3
=	0.0	0.0	192.0	4.3
=	0.0	0.0	192.3	4.3
=	0.0	0.0	192.6	4.2
=	0.0	0.0	192.9	4.2
=	0.0	0.0	193.2	4.2
=	0.0	0.0	193.4	4.2
=	0.0	0.0	193.8	4.2
=	0.0	0.0	194.1	4.2
=	0.0	0.0	194.4	4.2
=	0.0	0.0	194.7	4.2
=	0.0	0.0	195.0	4.2
=	0.0	0.0	195.3	4.2
=	0.0	0.0	195.6	4.2
=	0.0	0.0	195.9	4.2
=	0.0	0.0	196.2	4.2
=	0.0	0.0	196.5	4.2
=	0.0	0.0	196.8	4.2
=	0.0	0.0	197.1	4.2
=	0.0	0.0	197.4	4.2
=	0.0	0.0	197.7	4.2
=	0.0	0.0	198.0	4.2
=	0.0	0.0	198.3	4.2
=	0.0	0.0	198.7	4.1
=	0.0	0.0	199.0	4.1
=	0.0	0.0	199.4	4.1
=	0.0	0.0	199.8	4.1
=	0.0	0.0	200.4	4.1
=	0.0	0.0	200.8	4.1
=	0.0	0.0	201.3	4.1
=	0.0	0.0	201.7	4.1
=	0.0	0.0	202.1	4.1
=	0.0	0.0	202.6	4.1
=	0.0	0.0	203.0	4.1
=	0.0	0.0	203.3	4.0
=	0.0	0.0	203.6	4.0
=	0.0	0.0	204.0	4.0
=	0.0	0.0	204.4	4.0
=	0.0	0.0	204.7	4.0
=	0.0	0.0	205.0	4.0
=	0.0	0.0	205.4	4.0
=	0.0	0.0	205.8	4.0
=	0.0	0.0	206.2	4.0
=	0.0	0.0	206.6	4.0
=	0.0	0.0	207.0	4.0
=	0.0	0.0	207.5	4.0
=	0.0	0.0	207.9	4.0
=	0.0	0.0	208.4	4.0
:EOM # End of Measurement

:EOF # End of File