:MSR 	1	 # No. of measurement in file
:SYS BDS 0   # Beam Data Scanner System
#
# RFA300 ASCII Measurement Dump ( BDS format )
#
# Measurement number 	1
#
%VNR 1.0
%MOD 	RAT
%TYP 	SCN
%SCN 	PRO
%FLD 	ION
%DAT 	10-12-2011
%TIM 	12:00:00
%FSZ 	400	400
%BMT 	ELE	   20.0
%SSD 	950
%BUP 	0
%BRD 	950
%FSH 	1
%ASC 	0
%WEG 	0
%GPO 	0
%CPO 	0
%MEA 	2
%PRD 	0,0
%PTS 	833
%STS 	    0.0	  -236.2	   0.0 # Start Scan values in mm ( X , Y , Z )
%EDS 	    0.0	   236.3	   0.0 # End Scan values in mm ( X , Y , Z )
#
#	  X      Y      Z     Dose
#
=	0.0	-236.2	0.0	2.6
=	0.0	-235.7	0.0	2.6
=	0.0	-235.1	0.0	2.7
=	0.0	-234.5	0.0	2.7
=	0.0	-233.9	0.0	2.8
=	0.0	-233.3	0.0	2.8
=	0.0	-232.7	0.0	2.9
=	0.0	-232.1	0.0	3.0
=	0.0	-231.5	0.0	3.1
=	0.0	-230.9	0.0	3.1
=	0.0	-230.3	0.0	3.2
=	0.0	-229.7	0.0	3.3
=	0.0	-229.1	0.0	3.4
=	0.0	-228.5	0.0	3.5
=	0.0	-227.9	0.0	3.6
=	0.0	-227.3	0.0	3.7
=	0.0	-226.6	0.0	3.8
=	0.0	-226.0	0.0	3.9
=	0.0	-225.5	0.0	4.1
=	0.0	-224.8	0.0	4.2
=	0.0	-224.3	0.0	4.4
=	0.0	-223.7	0.0	4.6
=	0.0	-223.2	0.0	4.7
=	0.0	-222.8	0.0	4.9
=	0.0	-222.4	0.0	5.1
=	0.0	-222.0	0.0	5.2
=	0.0	-221.6	0.0	5.4
=	0.0	-221.1	0.0	5.6
=	0.0	-220.6	0.0	5.9
=	0.0	-220.2	0.0	6.1
=	0.0	-219.6	0.0	6.4
=	0.0	-219.0	0.0	6.8
=	0.0	-218.4	0.0	7.2
=	0.0	-217.8	0.0	7.6
=	0.0	-217.2	0.0	8.1
=	0.0	-216.6	0.0	8.6
=	0.0	-216.0	0.0	9.2
=	0.0	-215.4	0.0	9.8
=	0.0	-214.8	0.0	10.4
=	0.0	-214.1	0.0	11.1
=	0.0	-213.6	0.0	11.8
=	0.0	-213.0	0.0	12.6
=	0.0	-212.4	0.0	13.3
=	0.0	-211.9	0.0	14.1
=	0.0	-211.5	0.0	14.7
=	0.0	-210.9	0.0	15.6
=	0.0	-210.3	0.0	16.6
=	0.0	-209.7	0.0	17.7
=	0.0	-209.2	0.0	18.7
=	0.0	-208.5	0.0	19.9
=	0.0	-207.9	0.0	21.1
=	0.0	-207.3	0.0	22.4
=	0.0	-206.7	0.0	23.7
=	0.0	-206.1	0.0	25.0
=	0.0	-205.5	0.0	26.3
=	0.0	-204.9	0.0	27.6
=	0.0	-204.3	0.0	29.0
=	0.0	-203.7	0.0	30.4
=	0.0	-203.1	0.0	31.7
=	0.0	-202.5	0.0	33.2
=	0.0	-201.9	0.0	34.6
=	0.0	-201.3	0.0	36.0
=	0.0	-200.7	0.0	37.3
=	0.0	-200.3	0.0	38.3
=	0.0	-199.6	0.0	39.7
=	0.0	-199.2	0.0	40.6
=	0.0	-198.6	0.0	41.9
=	0.0	-198.0	0.0	43.1
=	0.0	-197.4	0.0	44.3
=	0.0	-196.8	0.0	45.5
=	0.0	-196.2	0.0	46.6
=	0.0	-195.6	0.0	47.8
=	0.0	-195.0	0.0	48.8
=	0.0	-194.4	0.0	49.8
=	0.0	-193.8	0.0	50.8
=	0.0	-193.2	0.0	51.7
=	0.0	-192.6	0.0	52.6
=	0.0	-192.0	0.0	53.4
=	0.0	-191.4	0.0	54.3
=	0.0	-190.8	0.0	55.1
=	0.0	-190.2	0.0	55.9
=	0.0	-189.6	0.0	56.5
=	0.0	-189.1	0.0	57.1
=	0.0	-188.6	0.0	57.8
=	0.0	-188.1	0.0	58.3
=	0.0	-187.5	0.0	59.0
=	0.0	-186.9	0.0	59.7
=	0.0	-186.3	0.0	60.3
=	0.0	-185.7	0.0	61.0
=	0.0	-185.1	0.0	61.6
=	0.0	-184.5	0.0	62.2
=	0.0	-183.9	0.0	62.8
=	0.0	-183.4	0.0	63.4
=	0.0	-182.9	0.0	63.8
=	0.0	-182.5	0.0	64.3
=	0.0	-182.0	0.0	64.7
=	0.0	-181.5	0.0	65.2
=	0.0	-180.9	0.0	65.8
=	0.0	-180.3	0.0	66.4
=	0.0	-179.7	0.0	66.9
=	0.0	-179.1	0.0	67.4
=	0.0	-178.5	0.0	68.1
=	0.0	-177.9	0.0	68.7
=	0.0	-177.3	0.0	69.1
=	0.0	-176.9	0.0	69.5
=	0.0	-176.5	0.0	69.9
=	0.0	-176.1	0.0	70.2
=	0.0	-175.6	0.0	70.7
=	0.0	-175.0	0.0	71.2
=	0.0	-174.4	0.0	71.8
=	0.0	-173.8	0.0	72.3
=	0.0	-173.2	0.0	72.8
=	0.0	-172.6	0.0	73.3
=	0.0	-172.0	0.0	73.9
=	0.0	-171.4	0.0	74.4
=	0.0	-170.8	0.0	74.9
=	0.0	-170.2	0.0	75.3
=	0.0	-169.6	0.0	75.9
=	0.0	-169.0	0.0	76.4
=	0.0	-168.4	0.0	76.9
=	0.0	-167.8	0.0	77.4
=	0.0	-167.2	0.0	77.9
=	0.0	-166.6	0.0	78.4
=	0.0	-166.2	0.0	78.7
=	0.0	-165.5	0.0	79.3
=	0.0	-165.0	0.0	79.7
=	0.0	-164.4	0.0	80.2
=	0.0	-163.8	0.0	80.6
=	0.0	-163.2	0.0	81.0
=	0.0	-162.8	0.0	81.4
=	0.0	-162.3	0.0	81.8
=	0.0	-161.7	0.0	82.2
=	0.0	-161.2	0.0	82.5
=	0.0	-160.7	0.0	82.9
=	0.0	-160.1	0.0	83.3
=	0.0	-159.5	0.0	83.8
=	0.0	-158.9	0.0	84.3
=	0.0	-158.3	0.0	84.6
=	0.0	-157.7	0.0	85.0
=	0.0	-157.1	0.0	85.5
=	0.0	-156.5	0.0	85.8
=	0.0	-155.9	0.0	86.3
=	0.0	-155.3	0.0	86.6
=	0.0	-154.7	0.0	86.9
=	0.0	-154.3	0.0	87.2
=	0.0	-153.9	0.0	87.5
=	0.0	-153.5	0.0	87.8
=	0.0	-153.0	0.0	88.1
=	0.0	-152.5	0.0	88.5
=	0.0	-152.1	0.0	88.8
=	0.0	-151.6	0.0	89.0
=	0.0	-151.2	0.0	89.2
=	0.0	-150.8	0.0	89.4
=	0.0	-150.2	0.0	89.8
=	0.0	-149.7	0.0	90.1
=	0.0	-149.1	0.0	90.5
=	0.0	-148.6	0.0	90.7
=	0.0	-148.1	0.0	91.0
=	0.0	-147.7	0.0	91.2
=	0.0	-147.3	0.0	91.4
=	0.0	-146.8	0.0	91.7
=	0.0	-146.2	0.0	92.0
=	0.0	-145.6	0.0	92.3
=	0.0	-145.0	0.0	92.6
=	0.0	-144.4	0.0	92.9
=	0.0	-143.7	0.0	93.3
=	0.0	-143.1	0.0	93.6
=	0.0	-142.6	0.0	93.8
=	0.0	-141.9	0.0	94.2
=	0.0	-141.3	0.0	94.5
=	0.0	-140.7	0.0	94.7
=	0.0	-140.3	0.0	94.9
=	0.0	-139.9	0.0	95.1
=	0.0	-139.3	0.0	95.3
=	0.0	-138.7	0.0	95.5
=	0.0	-138.1	0.0	95.8
=	0.0	-137.5	0.0	96.0
=	0.0	-137.0	0.0	96.2
=	0.0	-136.7	0.0	96.4
=	0.0	-136.1	0.0	96.5
=	0.0	-135.6	0.0	96.7
=	0.0	-135.1	0.0	96.9
=	0.0	-134.6	0.0	97.1
=	0.0	-134.2	0.0	97.3
=	0.0	-133.7	0.0	97.4
=	0.0	-133.3	0.0	97.6
=	0.0	-132.8	0.0	97.8
=	0.0	-132.2	0.0	97.9
=	0.0	-131.6	0.0	98.1
=	0.0	-131.0	0.0	98.3
=	0.0	-130.4	0.0	98.5
=	0.0	-129.7	0.0	98.7
=	0.0	-129.1	0.0	98.8
=	0.0	-128.5	0.0	99.0
=	0.0	-128.0	0.0	99.1
=	0.0	-127.5	0.0	99.2
=	0.0	-126.9	0.0	99.4
=	0.0	-126.4	0.0	99.4
=	0.0	-125.9	0.0	99.5
=	0.0	-125.5	0.0	99.7
=	0.0	-125.1	0.0	99.8
=	0.0	-124.7	0.0	99.9
=	0.0	-124.0	0.0	100.0
=	0.0	-123.4	0.0	100.1
=	0.0	-122.9	0.0	100.2
=	0.0	-122.2	0.0	100.3
=	0.0	-121.6	0.0	100.4
=	0.0	-121.0	0.0	100.4
=	0.0	-120.4	0.0	100.5
=	0.0	-119.8	0.0	100.6
=	0.0	-119.0	0.0	100.8
=	0.0	-118.4	0.0	100.8
=	0.0	-117.7	0.0	100.9
=	0.0	-117.1	0.0	101.0
=	0.0	-116.5	0.0	101.1
=	0.0	-115.9	0.0	101.1
=	0.0	-115.3	0.0	101.2
=	0.0	-114.7	0.0	101.2
=	0.0	-114.1	0.0	101.2
=	0.0	-113.5	0.0	101.2
=	0.0	-112.9	0.0	101.3
=	0.0	-112.2	0.0	101.3
=	0.0	-111.3	0.0	101.4
=	0.0	-110.5	0.0	101.5
=	0.0	-109.9	0.0	101.5
=	0.0	-109.3	0.0	101.5
=	0.0	-108.7	0.0	101.5
=	0.0	-108.1	0.0	101.5
=	0.0	-107.7	0.0	101.5
=	0.0	-107.1	0.0	101.5
=	0.0	-106.4	0.0	101.6
=	0.0	-105.9	0.0	101.6
=	0.0	-105.4	0.0	101.6
=	0.0	-104.9	0.0	101.6
=	0.0	-104.4	0.0	101.6
=	0.0	-103.8	0.0	101.6
=	0.0	-103.2	0.0	101.6
=	0.0	-102.7	0.0	101.5
=	0.0	-101.9	0.0	101.5
=	0.0	-101.2	0.0	101.5
=	0.0	-100.6	0.0	101.5
=	0.0	-100.0	0.0	101.4
=	0.0	-99.1	0.0	101.4
=	0.0	-98.6	0.0	101.4
=	0.0	-98.0	0.0	101.4
=	0.0	-97.6	0.0	101.4
=	0.0	-97.2	0.0	101.4
=	0.0	-96.8	0.0	101.4
=	0.0	-96.4	0.0	101.4
=	0.0	-96.0	0.0	101.4
=	0.0	-95.6	0.0	101.4
=	0.0	-95.2	0.0	101.4
=	0.0	-94.7	0.0	101.3
=	0.0	-94.2	0.0	101.3
=	0.0	-93.6	0.0	101.3
=	0.0	-93.1	0.0	101.2
=	0.0	-92.6	0.0	101.2
=	0.0	-92.2	0.0	101.2
=	0.0	-91.8	0.0	101.1
=	0.0	-91.3	0.0	101.1
=	0.0	-90.9	0.0	101.1
=	0.0	-90.3	0.0	101.1
=	0.0	-89.7	0.0	101.0
=	0.0	-89.1	0.0	101.0
=	0.0	-88.5	0.0	100.9
=	0.0	-87.9	0.0	100.9
=	0.0	-87.3	0.0	100.8
=	0.0	-86.7	0.0	100.8
=	0.0	-86.1	0.0	100.8
=	0.0	-85.5	0.0	100.8
=	0.0	-84.9	0.0	100.7
=	0.0	-84.3	0.0	100.7
=	0.0	-83.7	0.0	100.7
=	0.0	-83.1	0.0	100.6
=	0.0	-82.6	0.0	100.6
=	0.0	-82.1	0.0	100.5
=	0.0	-81.4	0.0	100.5
=	0.0	-80.8	0.0	100.5
=	0.0	-80.2	0.0	100.5
=	0.0	-79.6	0.0	100.4
=	0.0	-79.0	0.0	100.4
=	0.0	-78.4	0.0	100.4
=	0.0	-77.8	0.0	100.3
=	0.0	-77.2	0.0	100.3
=	0.0	-76.6	0.0	100.3
=	0.0	-76.0	0.0	100.3
=	0.0	-75.4	0.0	100.2
=	0.0	-74.8	0.0	100.2
=	0.0	-74.3	0.0	100.2
=	0.0	-73.8	0.0	100.2
=	0.0	-73.2	0.0	100.2
=	0.0	-72.6	0.0	100.1
=	0.0	-71.9	0.0	100.1
=	0.0	-71.4	0.0	100.1
=	0.0	-70.7	0.0	100.1
=	0.0	-70.1	0.0	100.0
=	0.0	-69.5	0.0	100.0
=	0.0	-68.9	0.0	100.0
=	0.0	-68.3	0.0	100.0
=	0.0	-67.7	0.0	99.9
=	0.0	-67.1	0.0	99.9
=	0.0	-66.5	0.0	99.9
=	0.0	-66.0	0.0	99.9
=	0.0	-65.7	0.0	99.9
=	0.0	-65.1	0.0	99.9
=	0.0	-64.4	0.0	99.8
=	0.0	-63.7	0.0	99.8
=	0.0	-63.1	0.0	99.8
=	0.0	-62.5	0.0	99.8
=	0.0	-62.0	0.0	99.7
=	0.0	-61.4	0.0	99.7
=	0.0	-60.8	0.0	99.7
=	0.0	-60.2	0.0	99.7
=	0.0	-59.4	0.0	99.7
=	0.0	-58.3	0.0	99.7
=	0.0	-57.1	0.0	99.7
=	0.0	-55.9	0.0	99.7
=	0.0	-55.1	0.0	99.6
=	0.0	-54.0	0.0	99.6
=	0.0	-53.2	0.0	99.6
=	0.0	-52.3	0.0	99.6
=	0.0	-51.1	0.0	99.6
=	0.0	-50.4	0.0	99.6
=	0.0	-49.5	0.0	99.6
=	0.0	-48.6	0.0	99.6
=	0.0	-48.0	0.0	99.5
=	0.0	-47.4	0.0	99.5
=	0.0	-46.8	0.0	99.5
=	0.0	-46.2	0.0	99.5
=	0.0	-45.6	0.0	99.5
=	0.0	-45.0	0.0	99.5
=	0.0	-44.4	0.0	99.5
=	0.0	-43.8	0.0	99.5
=	0.0	-43.2	0.0	99.5
=	0.0	-42.5	0.0	99.5
=	0.0	-42.0	0.0	99.5
=	0.0	-41.5	0.0	99.5
=	0.0	-41.1	0.0	99.5
=	0.0	-40.6	0.0	99.5
=	0.0	-40.1	0.0	99.5
=	0.0	-39.4	0.0	99.5
=	0.0	-38.6	0.0	99.5
=	0.0	-38.0	0.0	99.5
=	0.0	-37.6	0.0	99.5
=	0.0	-37.2	0.0	99.5
=	0.0	-36.8	0.0	99.5
=	0.0	-36.4	0.0	99.5
=	0.0	-35.9	0.0	99.5
=	0.0	-35.4	0.0	99.6
=	0.0	-34.9	0.0	99.6
=	0.0	-34.4	0.0	99.6
=	0.0	-33.8	0.0	99.6
=	0.0	-33.3	0.0	99.6
=	0.0	-32.7	0.0	99.6
=	0.0	-32.2	0.0	99.6
=	0.0	-31.6	0.0	99.6
=	0.0	-31.2	0.0	99.6
=	0.0	-30.7	0.0	99.7
=	0.0	-30.1	0.0	99.7
=	0.0	-29.5	0.0	99.7
=	0.0	-28.9	0.0	99.7
=	0.0	-28.3	0.0	99.7
=	0.0	-27.7	0.0	99.7
=	0.0	-27.1	0.0	99.7
=	0.0	-26.7	0.0	99.7
=	0.0	-26.3	0.0	99.7
=	0.0	-25.8	0.0	99.7
=	0.0	-25.2	0.0	99.7
=	0.0	-24.7	0.0	99.7
=	0.0	-24.2	0.0	99.7
=	0.0	-23.8	0.0	99.7
=	0.0	-23.4	0.0	99.7
=	0.0	-23.0	0.0	99.7
=	0.0	-22.6	0.0	99.7
=	0.0	-22.2	0.0	99.8
=	0.0	-21.8	0.0	99.8
=	0.0	-21.3	0.0	99.8
=	0.0	-20.8	0.0	99.8
=	0.0	-20.2	0.0	99.8
=	0.0	-19.8	0.0	99.8
=	0.0	-19.4	0.0	99.8
=	0.0	-18.9	0.0	99.8
=	0.0	-18.4	0.0	99.8
=	0.0	-18.1	0.0	99.8
=	0.0	-17.6	0.0	99.9
=	0.0	-17.2	0.0	99.9
=	0.0	-16.8	0.0	99.9
=	0.0	-16.4	0.0	99.9
=	0.0	-16.0	0.0	99.9
=	0.0	-15.6	0.0	99.9
=	0.0	-15.2	0.0	99.9
=	0.0	-14.8	0.0	99.9
=	0.0	-14.4	0.0	99.9
=	0.0	-14.0	0.0	99.9
=	0.0	-13.6	0.0	99.9
=	0.0	-13.1	0.0	99.9
=	0.0	-12.6	0.0	99.9
=	0.0	-12.2	0.0	99.9
=	0.0	-11.8	0.0	99.9
=	0.0	-11.4	0.0	99.9
=	0.0	-11.0	0.0	99.9
=	0.0	-10.6	0.0	99.9
=	0.0	-10.2	0.0	99.9
=	0.0	-9.7	0.0	100.0
=	0.0	-9.3	0.0	100.0
=	0.0	-8.9	0.0	100.0
=	0.0	-8.5	0.0	100.0
=	0.0	-8.0	0.0	100.0
=	0.0	-7.6	0.0	100.0
=	0.0	-7.1	0.0	100.0
=	0.0	-6.5	0.0	100.0
=	0.0	-6.0	0.0	100.0
=	0.0	-5.5	0.0	100.0
=	0.0	-5.0	0.0	100.0
=	0.0	-4.3	0.0	100.0
=	0.0	-3.7	0.0	100.0
=	0.0	-3.1	0.0	100.0
=	0.0	-2.5	0.0	100.0
=	0.0	-2.1	0.0	100.0
=	0.0	-1.5	0.0	100.0
=	0.0	-1.0	0.0	100.0
=	0.0	-0.5	0.0	100.0
=	0.0	0.0	0.0	100.0
=	0.0	0.4	0.0	100.0
=	0.0	0.9	0.0	100.0
=	0.0	1.3	0.0	100.0
=	0.0	1.9	0.0	100.0
=	0.0	2.9	0.0	100.0
=	0.0	3.9	0.0	100.0
=	0.0	4.6	0.0	100.0
=	0.0	5.1	0.0	100.0
=	0.0	5.8	0.0	100.0
=	0.0	6.5	0.0	100.0
=	0.0	7.2	0.0	100.0
=	0.0	7.8	0.0	100.0
=	0.0	8.4	0.0	100.0
=	0.0	9.0	0.0	100.0
=	0.0	9.6	0.0	100.0
=	0.0	10.2	0.0	100.0
=	0.0	10.8	0.0	100.0
=	0.0	11.4	0.0	100.0
=	0.0	12.0	0.0	100.0
=	0.0	12.6	0.0	99.9
=	0.0	13.2	0.0	99.9
=	0.0	13.8	0.0	99.9
=	0.0	14.5	0.0	99.9
=	0.0	15.1	0.0	99.9
=	0.0	15.7	0.0	99.9
=	0.0	16.3	0.0	99.9
=	0.0	16.9	0.0	99.9
=	0.0	17.5	0.0	99.9
=	0.0	18.1	0.0	99.9
=	0.0	18.7	0.0	99.8
=	0.0	19.1	0.0	99.8
=	0.0	19.5	0.0	99.8
=	0.0	20.2	0.0	99.8
=	0.0	20.8	0.0	99.8
=	0.0	21.4	0.0	99.8
=	0.0	21.9	0.0	99.8
=	0.0	22.5	0.0	99.8
=	0.0	22.9	0.0	99.7
=	0.0	23.3	0.0	99.7
=	0.0	23.8	0.0	99.7
=	0.0	24.3	0.0	99.7
=	0.0	24.7	0.0	99.7
=	0.0	25.2	0.0	99.7
=	0.0	25.7	0.0	99.7
=	0.0	26.1	0.0	99.7
=	0.0	26.6	0.0	99.7
=	0.0	27.2	0.0	99.7
=	0.0	27.8	0.0	99.7
=	0.0	28.4	0.0	99.7
=	0.0	28.9	0.0	99.7
=	0.0	29.5	0.0	99.7
=	0.0	30.1	0.0	99.7
=	0.0	30.7	0.0	99.7
=	0.0	31.3	0.0	99.7
=	0.0	31.7	0.0	99.7
=	0.0	32.3	0.0	99.7
=	0.0	32.9	0.0	99.7
=	0.0	33.5	0.0	99.6
=	0.0	34.1	0.0	99.6
=	0.0	34.7	0.0	99.6
=	0.0	35.4	0.0	99.6
=	0.0	35.9	0.0	99.6
=	0.0	36.6	0.0	99.6
=	0.0	37.2	0.0	99.6
=	0.0	37.8	0.0	99.6
=	0.0	38.4	0.0	99.6
=	0.0	39.0	0.0	99.6
=	0.0	39.6	0.0	99.6
=	0.0	40.1	0.0	99.6
=	0.0	40.6	0.0	99.6
=	0.0	41.2	0.0	99.6
=	0.0	41.8	0.0	99.6
=	0.0	42.4	0.0	99.6
=	0.0	43.0	0.0	99.6
=	0.0	43.6	0.0	99.6
=	0.0	44.2	0.0	99.6
=	0.0	44.8	0.0	99.6
=	0.0	45.4	0.0	99.6
=	0.0	46.0	0.0	99.6
=	0.0	46.7	0.0	99.6
=	0.0	47.2	0.0	99.6
=	0.0	47.9	0.0	99.6
=	0.0	48.5	0.0	99.6
=	0.0	49.1	0.0	99.6
=	0.0	49.7	0.0	99.6
=	0.0	50.3	0.0	99.6
=	0.0	50.9	0.0	99.6
=	0.0	51.5	0.0	99.6
=	0.0	52.1	0.0	99.6
=	0.0	52.7	0.0	99.6
=	0.0	53.3	0.0	99.7
=	0.0	53.9	0.0	99.7
=	0.0	54.5	0.0	99.7
=	0.0	55.1	0.0	99.7
=	0.0	55.7	0.0	99.7
=	0.0	56.3	0.0	99.7
=	0.0	56.9	0.0	99.8
=	0.0	57.6	0.0	99.8
=	0.0	58.1	0.0	99.8
=	0.0	58.8	0.0	99.8
=	0.0	59.4	0.0	99.8
=	0.0	60.0	0.0	99.8
=	0.0	60.6	0.0	99.8
=	0.0	61.0	0.0	99.9
=	0.0	61.6	0.0	99.9
=	0.0	62.2	0.0	99.9
=	0.0	62.8	0.0	99.9
=	0.0	63.4	0.0	100.0
=	0.0	64.0	0.0	100.0
=	0.0	64.6	0.0	100.0
=	0.0	65.2	0.0	100.0
=	0.0	65.8	0.0	100.0
=	0.0	66.4	0.0	100.0
=	0.0	67.1	0.0	100.1
=	0.0	67.7	0.0	100.1
=	0.0	68.3	0.0	100.1
=	0.0	68.9	0.0	100.1
=	0.0	69.5	0.0	100.2
=	0.0	70.1	0.0	100.2
=	0.0	70.7	0.0	100.2
=	0.0	71.3	0.0	100.2
=	0.0	71.9	0.0	100.2
=	0.0	72.5	0.0	100.2
=	0.0	73.1	0.0	100.2
=	0.0	73.7	0.0	100.3
=	0.0	74.3	0.0	100.3
=	0.0	74.9	0.0	100.3
=	0.0	75.5	0.0	100.3
=	0.0	76.1	0.0	100.4
=	0.0	76.8	0.0	100.4
=	0.0	77.3	0.0	100.4
=	0.0	78.0	0.0	100.5
=	0.0	78.6	0.0	100.5
=	0.0	79.2	0.0	100.5
=	0.0	79.8	0.0	100.6
=	0.0	80.4	0.0	100.6
=	0.0	81.0	0.0	100.6
=	0.0	81.6	0.0	100.7
=	0.0	82.2	0.0	100.7
=	0.0	83.0	0.0	100.7
=	0.0	83.6	0.0	100.8
=	0.0	84.2	0.0	100.9
=	0.0	84.9	0.0	100.9
=	0.0	85.8	0.0	100.9
=	0.0	86.5	0.0	101.0
=	0.0	87.0	0.0	101.0
=	0.0	87.6	0.0	101.0
=	0.0	88.2	0.0	101.1
=	0.0	89.0	0.0	101.1
=	0.0	89.7	0.0	101.1
=	0.0	90.4	0.0	101.2
=	0.0	91.1	0.0	101.2
=	0.0	91.7	0.0	101.2
=	0.0	92.8	0.0	101.3
=	0.0	93.6	0.0	101.3
=	0.0	94.8	0.0	101.4
=	0.0	96.0	0.0	101.4
=	0.0	97.2	0.0	101.4
=	0.0	98.4	0.0	101.4
=	0.0	99.7	0.0	101.5
=	0.0	100.6	0.0	101.5
=	0.0	101.3	0.0	101.5
=	0.0	102.0	0.0	101.6
=	0.0	102.7	0.0	101.6
=	0.0	103.4	0.0	101.6
=	0.0	104.3	0.0	101.6
=	0.0	104.9	0.0	101.6
=	0.0	105.5	0.0	101.6
=	0.0	106.1	0.0	101.6
=	0.0	106.7	0.0	101.6
=	0.0	107.3	0.0	101.5
=	0.0	107.9	0.0	101.5
=	0.0	108.5	0.0	101.5
=	0.0	109.1	0.0	101.5
=	0.0	109.7	0.0	101.5
=	0.0	110.3	0.0	101.4
=	0.0	111.0	0.0	101.4
=	0.0	111.6	0.0	101.4
=	0.0	112.2	0.0	101.4
=	0.0	112.7	0.0	101.3
=	0.0	113.2	0.0	101.3
=	0.0	113.8	0.0	101.3
=	0.0	114.4	0.0	101.2
=	0.0	115.0	0.0	101.1
=	0.0	115.6	0.0	101.1
=	0.0	116.3	0.0	101.0
=	0.0	116.9	0.0	101.0
=	0.0	117.4	0.0	100.9
=	0.0	117.9	0.0	100.8
=	0.0	118.5	0.0	100.7
=	0.0	119.0	0.0	100.7
=	0.0	119.5	0.0	100.6
=	0.0	120.0	0.0	100.5
=	0.0	120.5	0.0	100.4
=	0.0	121.0	0.0	100.3
=	0.0	121.6	0.0	100.2
=	0.0	122.0	0.0	100.2
=	0.0	122.4	0.0	100.1
=	0.0	122.9	0.0	100.0
=	0.0	123.3	0.0	100.0
=	0.0	123.8	0.0	99.9
=	0.0	124.4	0.0	99.7
=	0.0	125.1	0.0	99.6
=	0.0	125.6	0.0	99.5
=	0.0	126.3	0.0	99.3
=	0.0	126.7	0.0	99.2
=	0.0	127.3	0.0	99.0
=	0.0	127.9	0.0	98.9
=	0.0	128.5	0.0	98.7
=	0.0	129.1	0.0	98.6
=	0.0	129.7	0.0	98.4
=	0.0	130.1	0.0	98.3
=	0.0	130.7	0.0	98.2
=	0.0	131.3	0.0	98.0
=	0.0	131.9	0.0	97.7
=	0.0	132.5	0.0	97.6
=	0.0	133.0	0.0	97.4
=	0.0	133.6	0.0	97.2
=	0.0	134.1	0.0	97.0
=	0.0	134.6	0.0	96.8
=	0.0	135.0	0.0	96.7
=	0.0	135.5	0.0	96.5
=	0.0	136.0	0.0	96.3
=	0.0	136.6	0.0	96.1
=	0.0	137.2	0.0	95.9
=	0.0	137.8	0.0	95.6
=	0.0	138.5	0.0	95.3
=	0.0	139.0	0.0	95.1
=	0.0	139.6	0.0	94.8
=	0.0	140.0	0.0	94.7
=	0.0	140.5	0.0	94.5
=	0.0	141.1	0.0	94.2
=	0.0	141.5	0.0	94.0
=	0.0	142.0	0.0	93.7
=	0.0	142.5	0.0	93.5
=	0.0	143.1	0.0	93.2
=	0.0	143.7	0.0	93.0
=	0.0	144.3	0.0	92.6
=	0.0	144.9	0.0	92.4
=	0.0	145.5	0.0	92.0
=	0.0	146.1	0.0	91.7
=	0.0	146.5	0.0	91.5
=	0.0	147.1	0.0	91.1
=	0.0	147.8	0.0	90.8
=	0.0	148.3	0.0	90.5
=	0.0	148.8	0.0	90.3
=	0.0	149.4	0.0	89.9
=	0.0	149.9	0.0	89.6
=	0.0	150.4	0.0	89.3
=	0.0	151.0	0.0	88.9
=	0.0	151.4	0.0	88.7
=	0.0	151.8	0.0	88.4
=	0.0	152.4	0.0	88.1
=	0.0	152.9	0.0	87.8
=	0.0	153.4	0.0	87.4
=	0.0	154.0	0.0	87.0
=	0.0	154.6	0.0	86.6
=	0.0	155.2	0.0	86.3
=	0.0	155.7	0.0	86.0
=	0.0	156.1	0.0	85.6
=	0.0	156.7	0.0	85.2
=	0.0	157.2	0.0	84.9
=	0.0	157.9	0.0	84.5
=	0.0	158.5	0.0	84.1
=	0.0	159.1	0.0	83.6
=	0.0	159.7	0.0	83.2
=	0.0	160.3	0.0	82.8
=	0.0	160.9	0.0	82.4
=	0.0	161.5	0.0	81.9
=	0.0	162.0	0.0	81.5
=	0.0	162.6	0.0	81.1
=	0.0	163.1	0.0	80.6
=	0.0	163.8	0.0	80.2
=	0.0	164.3	0.0	79.7
=	0.0	164.9	0.0	79.2
=	0.0	165.5	0.0	78.8
=	0.0	166.2	0.0	78.3
=	0.0	166.8	0.0	77.8
=	0.0	167.4	0.0	77.3
=	0.0	168.0	0.0	76.9
=	0.0	168.6	0.0	76.4
=	0.0	169.2	0.0	75.9
=	0.0	169.8	0.0	75.4
=	0.0	170.4	0.0	74.9
=	0.0	170.8	0.0	74.5
=	0.0	171.3	0.0	74.1
=	0.0	171.8	0.0	73.7
=	0.0	172.4	0.0	73.1
=	0.0	173.0	0.0	72.6
=	0.0	173.6	0.0	72.0
=	0.0	174.1	0.0	71.7
=	0.0	174.6	0.0	71.2
=	0.0	175.1	0.0	70.8
=	0.0	175.5	0.0	70.4
=	0.0	176.0	0.0	70.0
=	0.0	176.7	0.0	69.4
=	0.0	177.2	0.0	68.9
=	0.0	177.9	0.0	68.3
=	0.0	178.4	0.0	67.7
=	0.0	179.1	0.0	67.2
=	0.0	179.7	0.0	66.6
=	0.0	180.3	0.0	66.0
=	0.0	180.9	0.0	65.5
=	0.0	181.5	0.0	64.9
=	0.0	182.1	0.0	64.4
=	0.0	182.7	0.0	63.7
=	0.0	183.3	0.0	63.1
=	0.0	183.9	0.0	62.6
=	0.0	184.5	0.0	61.9
=	0.0	185.1	0.0	61.3
=	0.0	185.7	0.0	60.7
=	0.0	186.3	0.0	60.1
=	0.0	186.9	0.0	59.4
=	0.0	187.5	0.0	58.7
=	0.0	188.1	0.0	58.0
=	0.0	188.7	0.0	57.4
=	0.0	189.1	0.0	56.9
=	0.0	189.7	0.0	56.2
=	0.0	190.4	0.0	55.4
=	0.0	190.9	0.0	54.7
=	0.0	191.4	0.0	54.1
=	0.0	191.9	0.0	53.4
=	0.0	192.5	0.0	52.5
=	0.0	193.1	0.0	51.7
=	0.0	193.6	0.0	50.9
=	0.0	194.1	0.0	50.1
=	0.0	194.7	0.0	49.2
=	0.0	195.4	0.0	48.2
=	0.0	196.0	0.0	47.1
=	0.0	196.6	0.0	46.1
=	0.0	197.2	0.0	44.9
=	0.0	197.8	0.0	43.8
=	0.0	198.4	0.0	42.6
=	0.0	199.0	0.0	41.4
=	0.0	199.6	0.0	40.1
=	0.0	200.2	0.0	38.9
=	0.0	200.8	0.0	37.5
=	0.0	201.4	0.0	36.2
=	0.0	202.0	0.0	34.7
=	0.0	202.6	0.0	33.4
=	0.0	203.2	0.0	32.0
=	0.0	203.8	0.0	30.7
=	0.0	204.3	0.0	29.7
=	0.0	204.8	0.0	28.5
=	0.0	205.2	0.0	27.6
=	0.0	205.6	0.0	26.7
=	0.0	206.0	0.0	25.8
=	0.0	206.4	0.0	24.9
=	0.0	207.0	0.0	23.7
=	0.0	207.5	0.0	22.7
=	0.0	207.9	0.0	21.9
=	0.0	208.3	0.0	21.0
=	0.0	208.7	0.0	20.2
=	0.0	209.1	0.0	19.4
=	0.0	209.7	0.0	18.4
=	0.0	210.2	0.0	17.5
=	0.0	210.6	0.0	16.7
=	0.0	211.1	0.0	15.9
=	0.0	211.5	0.0	15.3
=	0.0	212.1	0.0	14.4
=	0.0	212.7	0.0	13.5
=	0.0	213.1	0.0	12.9
=	0.0	213.7	0.0	12.1
=	0.0	214.2	0.0	11.5
=	0.0	214.7	0.0	10.9
=	0.0	215.1	0.0	10.4
=	0.0	215.5	0.0	9.9
=	0.0	215.9	0.0	9.5
=	0.0	216.4	0.0	9.1
=	0.0	216.8	0.0	8.8
=	0.0	217.2	0.0	8.4
=	0.0	217.6	0.0	8.1
=	0.0	218.1	0.0	7.7
=	0.0	218.5	0.0	7.3
=	0.0	219.1	0.0	6.9
=	0.0	219.7	0.0	6.5
=	0.0	220.3	0.0	6.2
=	0.0	220.8	0.0	5.9
=	0.0	221.2	0.0	5.7
=	0.0	221.6	0.0	5.5
=	0.0	222.0	0.0	5.3
=	0.0	222.4	0.0	5.1
=	0.0	222.8	0.0	5.0
=	0.0	223.4	0.0	4.8
=	0.0	223.9	0.0	4.6
=	0.0	224.4	0.0	4.4
=	0.0	224.8	0.0	4.3
=	0.0	225.4	0.0	4.1
=	0.0	225.9	0.0	4.0
=	0.0	226.3	0.0	3.9
=	0.0	226.8	0.0	3.8
=	0.0	227.3	0.0	3.7
=	0.0	227.8	0.0	3.6
=	0.0	228.3	0.0	3.5
=	0.0	228.9	0.0	3.4
=	0.0	229.4	0.0	3.3
=	0.0	230.0	0.0	3.2
=	0.0	230.6	0.0	3.2
=	0.0	230.9	0.0	3.1
=	0.0	231.4	0.0	3.0
=	0.0	231.8	0.0	3.0
=	0.0	232.3	0.0	2.9
=	0.0	232.9	0.0	2.9
=	0.0	233.5	0.0	2.8
=	0.0	234.1	0.0	2.8
=	0.0	234.7	0.0	2.7
=	0.0	235.1	0.0	2.7
=	0.0	235.5	0.0	2.6
=	0.0	235.9	0.0	2.6
=	0.0	236.3	0.0	2.6
:EOM # End of Measurement

:EOF # End of File