:MSR 	5	 # No. of measurement in file
:SYS BDS 0   # Beam Data Scanner System
#
# RFA300 ASCII Measurement Dump ( BDS format )
#
# Measurement number 	1
#
%VNR 1.0
%MOD 	RAT
%TYP 	SCN
%SCN 	PRO
%FLD 	ION
%DAT 	02-03-2012
%TIM 	12:00:00
%FSZ 	400	300
%BMT 	PHO	   8.0
%SSD 	1000
%BUP 	0
%BRD 	1000
%FSH 	1
%ASC 	0
%WEG 	30
%GPO 	0
%CPO 	0
%MEA 	6
%PRD 	20,0
%PTS 	939
%STS 	    0.0	  -273.8	   20.0 # Start Scan values in mm ( X , Y , Z )
%EDS 	    0.0	   273.8	   20.0 # End Scan values in mm ( X , Y , Z )
#
#	  X      Y      Z     Dose
#
=	0.0	-273.8	20.0	8.5
=	0.0	-272.9	20.0	8.6
=	0.0	-272.3	20.0	8.6
=	0.0	-271.8	20.0	8.6
=	0.0	-271.3	20.0	8.7
=	0.0	-270.8	20.0	8.7
=	0.0	-270.4	20.0	8.7
=	0.0	-269.9	20.0	8.7
=	0.0	-269.4	20.0	8.8
=	0.0	-268.9	20.0	8.8
=	0.0	-268.4	20.0	8.8
=	0.0	-267.9	20.0	8.9
=	0.0	-267.4	20.0	8.9
=	0.0	-266.9	20.0	8.9
=	0.0	-266.3	20.0	9.0
=	0.0	-265.8	20.0	9.0
=	0.0	-265.3	20.0	9.0
=	0.0	-264.8	20.0	9.0
=	0.0	-264.3	20.0	9.0
=	0.0	-263.8	20.0	9.1
=	0.0	-263.3	20.0	9.1
=	0.0	-262.8	20.0	9.2
=	0.0	-262.3	20.0	9.2
=	0.0	-261.8	20.0	9.2
=	0.0	-261.3	20.0	9.3
=	0.0	-260.8	20.0	9.3
=	0.0	-260.3	20.0	9.3
=	0.0	-259.8	20.0	9.4
=	0.0	-259.3	20.0	9.4
=	0.0	-258.8	20.0	9.4
=	0.0	-258.2	20.0	9.5
=	0.0	-257.7	20.0	9.5
=	0.0	-256.9	20.0	9.6
=	0.0	-255.9	20.0	9.6
=	0.0	-255.4	20.0	9.7
=	0.0	-254.9	20.0	9.7
=	0.0	-254.4	20.0	9.7
=	0.0	-253.9	20.0	9.8
=	0.0	-253.4	20.0	9.8
=	0.0	-252.9	20.0	9.8
=	0.0	-252.3	20.0	9.9
=	0.0	-251.8	20.0	10.0
=	0.0	-251.3	20.0	10.0
=	0.0	-250.8	20.0	10.0
=	0.0	-250.3	20.0	10.0
=	0.0	-249.8	20.0	10.1
=	0.0	-249.3	20.0	10.1
=	0.0	-248.8	20.0	10.2
=	0.0	-248.3	20.0	10.2
=	0.0	-247.8	20.0	10.3
=	0.0	-247.3	20.0	10.3
=	0.0	-246.8	20.0	10.3
=	0.0	-246.3	20.0	10.4
=	0.0	-245.8	20.0	10.4
=	0.0	-245.3	20.0	10.4
=	0.0	-244.8	20.0	10.5
=	0.0	-244.3	20.0	10.5
=	0.0	-243.8	20.0	10.6
=	0.0	-243.3	20.0	10.6
=	0.0	-242.4	20.0	10.6
=	0.0	-241.4	20.0	10.8
=	0.0	-240.3	20.0	10.8
=	0.0	-239.3	20.0	10.9
=	0.0	-238.4	20.0	11.0
=	0.0	-237.3	20.0	11.1
=	0.0	-236.3	20.0	11.2
=	0.0	-235.3	20.0	11.3
=	0.0	-234.3	20.0	11.4
=	0.0	-233.3	20.0	11.5
=	0.0	-232.3	20.0	11.6
=	0.0	-231.3	20.0	11.7
=	0.0	-230.3	20.0	11.8
=	0.0	-229.3	20.0	11.9
=	0.0	-228.3	20.0	12.0
=	0.0	-227.3	20.0	12.2
=	0.0	-226.3	20.0	12.3
=	0.0	-225.3	20.0	12.5
=	0.0	-224.3	20.0	12.6
=	0.0	-223.3	20.0	12.8
=	0.0	-222.3	20.0	12.9
=	0.0	-221.3	20.0	13.1
=	0.0	-220.3	20.0	13.2
=	0.0	-219.3	20.0	13.4
=	0.0	-218.3	20.0	13.6
=	0.0	-217.3	20.0	13.8
=	0.0	-216.2	20.0	14.1
=	0.0	-215.2	20.0	14.4
=	0.0	-214.3	20.0	14.8
=	0.0	-213.2	20.0	15.3
=	0.0	-212.2	20.0	16.0
=	0.0	-211.2	20.0	17.0
=	0.0	-210.2	20.0	18.4
=	0.0	-209.2	20.0	20.6
=	0.0	-208.3	20.0	23.5
=	0.0	-207.7	20.0	25.6
=	0.0	-207.2	20.0	27.9
=	0.0	-206.2	20.0	33.5
=	0.0	-205.2	20.0	40.4
=	0.0	-204.2	20.0	48.3
=	0.0	-203.2	20.0	56.6
=	0.0	-202.2	20.0	64.8
=	0.0	-201.2	20.0	72.4
=	0.0	-200.1	20.0	78.8
=	0.0	-199.2	20.0	83.2
=	0.0	-198.2	20.0	86.2
=	0.0	-197.7	20.0	87.5
=	0.0	-197.2	20.0	88.4
=	0.0	-196.7	20.0	89.2
=	0.0	-195.9	20.0	90.2
=	0.0	-195.2	20.0	90.8
=	0.0	-194.7	20.0	91.2
=	0.0	-194.2	20.0	91.5
=	0.0	-193.7	20.0	91.8
=	0.0	-192.9	20.0	92.1
=	0.0	-192.4	20.0	92.4
=	0.0	-191.9	20.0	92.4
=	0.0	-191.4	20.0	92.6
=	0.0	-190.9	20.0	92.8
=	0.0	-190.1	20.0	93.0
=	0.0	-189.2	20.0	93.2
=	0.0	-188.6	20.0	93.3
=	0.0	-188.1	20.0	93.4
=	0.0	-187.2	20.0	93.6
=	0.0	-186.6	20.0	93.7
=	0.0	-186.1	20.0	93.8
=	0.0	-185.6	20.0	93.9
=	0.0	-184.6	20.0	94.0
=	0.0	-184.1	20.0	94.1
=	0.0	-183.3	20.0	94.2
=	0.0	-182.8	20.0	94.3
=	0.0	-182.1	20.0	94.4
=	0.0	-181.6	20.0	94.4
=	0.0	-181.1	20.0	94.5
=	0.0	-180.5	20.0	94.6
=	0.0	-179.6	20.0	94.7
=	0.0	-179.0	20.0	94.8
=	0.0	-178.1	20.0	94.9
=	0.0	-177.3	20.0	95.0
=	0.0	-176.8	20.0	95.0
=	0.0	-176.3	20.0	95.0
=	0.0	-175.6	20.0	95.1
=	0.0	-174.5	20.0	95.3
=	0.0	-173.5	20.0	95.3
=	0.0	-172.5	20.0	95.4
=	0.0	-171.5	20.0	95.5
=	0.0	-170.5	20.0	95.6
=	0.0	-169.5	20.0	95.7
=	0.0	-168.5	20.0	95.8
=	0.0	-167.5	20.0	95.8
=	0.0	-166.9	20.0	95.9
=	0.0	-166.0	20.0	95.9
=	0.0	-164.9	20.0	96.0
=	0.0	-163.9	20.0	96.1
=	0.0	-162.9	20.0	96.1
=	0.0	-162.1	20.0	96.3
=	0.0	-161.5	20.0	96.3
=	0.0	-161.0	20.0	96.3
=	0.0	-160.6	20.0	96.4
=	0.0	-160.3	20.0	96.4
=	0.0	-159.8	20.0	96.4
=	0.0	-159.3	20.0	96.4
=	0.0	-158.8	20.0	96.4
=	0.0	-158.3	20.0	96.5
=	0.0	-157.8	20.0	96.5
=	0.0	-157.3	20.0	96.5
=	0.0	-156.8	20.0	96.6
=	0.0	-156.2	20.0	96.6
=	0.0	-155.8	20.0	96.7
=	0.0	-155.2	20.0	96.7
=	0.0	-154.8	20.0	96.7
=	0.0	-154.2	20.0	96.8
=	0.0	-153.7	20.0	96.8
=	0.0	-153.3	20.0	96.9
=	0.0	-152.7	20.0	96.9
=	0.0	-152.2	20.0	96.9
=	0.0	-151.7	20.0	96.9
=	0.0	-151.2	20.0	96.9
=	0.0	-150.7	20.0	97.0
=	0.0	-150.2	20.0	97.0
=	0.0	-149.7	20.0	97.0
=	0.0	-149.2	20.0	97.0
=	0.0	-148.7	20.0	97.1
=	0.0	-148.2	20.0	97.1
=	0.0	-147.7	20.0	97.2
=	0.0	-147.2	20.0	97.2
=	0.0	-146.7	20.0	97.2
=	0.0	-146.2	20.0	97.2
=	0.0	-145.6	20.0	97.3
=	0.0	-145.1	20.0	97.3
=	0.0	-144.6	20.0	97.4
=	0.0	-144.1	20.0	97.4
=	0.0	-143.6	20.0	97.4
=	0.0	-143.1	20.0	97.5
=	0.0	-142.6	20.0	97.5
=	0.0	-142.1	20.0	97.5
=	0.0	-141.6	20.0	97.5
=	0.0	-141.1	20.0	97.5
=	0.0	-140.6	20.0	97.6
=	0.0	-140.1	20.0	97.6
=	0.0	-139.6	20.0	97.6
=	0.0	-139.1	20.0	97.7
=	0.0	-138.6	20.0	97.7
=	0.0	-138.1	20.0	97.7
=	0.0	-137.6	20.0	97.7
=	0.0	-137.1	20.0	97.7
=	0.0	-136.6	20.0	97.7
=	0.0	-136.1	20.0	97.8
=	0.0	-135.6	20.0	97.8
=	0.0	-135.1	20.0	97.8
=	0.0	-134.6	20.0	97.9
=	0.0	-134.1	20.0	97.9
=	0.0	-133.6	20.0	97.9
=	0.0	-133.1	20.0	97.9
=	0.0	-132.6	20.0	98.0
=	0.0	-132.0	20.0	98.0
=	0.0	-131.5	20.0	98.0
=	0.0	-131.1	20.0	98.0
=	0.0	-130.6	20.0	98.1
=	0.0	-130.1	20.0	98.1
=	0.0	-129.7	20.0	98.1
=	0.0	-129.3	20.0	98.1
=	0.0	-128.8	20.0	98.1
=	0.0	-128.5	20.0	98.2
=	0.0	-128.1	20.0	98.2
=	0.0	-127.8	20.0	98.2
=	0.0	-127.5	20.0	98.2
=	0.0	-127.2	20.0	98.2
=	0.0	-126.8	20.0	98.3
=	0.0	-126.5	20.0	98.3
=	0.0	-126.1	20.0	98.3
=	0.0	-125.8	20.0	98.3
=	0.0	-125.5	20.0	98.3
=	0.0	-125.1	20.0	98.3
=	0.0	-124.8	20.0	98.4
=	0.0	-124.5	20.0	98.4
=	0.0	-124.1	20.0	98.4
=	0.0	-123.6	20.0	98.4
=	0.0	-123.3	20.0	98.4
=	0.0	-122.8	20.0	98.4
=	0.0	-122.3	20.0	98.5
=	0.0	-121.8	20.0	98.5
=	0.0	-121.3	20.0	98.5
=	0.0	-120.8	20.0	98.5
=	0.0	-120.2	20.0	98.6
=	0.0	-119.7	20.0	98.6
=	0.0	-119.2	20.0	98.6
=	0.0	-118.7	20.0	98.6
=	0.0	-118.2	20.0	98.6
=	0.0	-117.7	20.0	98.6
=	0.0	-117.2	20.0	98.6
=	0.0	-116.7	20.0	98.6
=	0.0	-116.2	20.0	98.6
=	0.0	-115.7	20.0	98.7
=	0.0	-115.2	20.0	98.7
=	0.0	-114.4	20.0	98.7
=	0.0	-113.9	20.0	98.7
=	0.0	-113.5	20.0	98.7
=	0.0	-113.0	20.0	98.8
=	0.0	-112.4	20.0	98.8
=	0.0	-111.9	20.0	98.8
=	0.0	-111.2	20.0	98.8
=	0.0	-110.6	20.0	98.8
=	0.0	-109.7	20.0	98.9
=	0.0	-108.6	20.0	98.9
=	0.0	-107.6	20.0	99.0
=	0.0	-106.6	20.0	99.0
=	0.0	-105.6	20.0	99.0
=	0.0	-104.6	20.0	99.1
=	0.0	-103.6	20.0	99.1
=	0.0	-102.8	20.0	99.1
=	0.0	-102.1	20.0	99.2
=	0.0	-101.1	20.0	99.2
=	0.0	-100.1	20.0	99.2
=	0.0	-99.0	20.0	99.2
=	0.0	-98.0	20.0	99.3
=	0.0	-97.0	20.0	99.3
=	0.0	-96.0	20.0	99.3
=	0.0	-95.5	20.0	99.3
=	0.0	-95.0	20.0	99.3
=	0.0	-94.0	20.0	99.4
=	0.0	-93.0	20.0	99.4
=	0.0	-92.4	20.0	99.4
=	0.0	-91.9	20.0	99.4
=	0.0	-91.4	20.0	99.5
=	0.0	-90.9	20.0	99.5
=	0.0	-90.4	20.0	99.5
=	0.0	-89.5	20.0	99.5
=	0.0	-88.9	20.0	99.5
=	0.0	-88.0	20.0	99.6
=	0.0	-87.0	20.0	99.6
=	0.0	-86.1	20.0	99.6
=	0.0	-85.6	20.0	99.6
=	0.0	-85.0	20.0	99.6
=	0.0	-83.9	20.0	99.7
=	0.0	-83.1	20.0	99.7
=	0.0	-82.7	20.0	99.7
=	0.0	-82.1	20.0	99.7
=	0.0	-81.6	20.0	99.7
=	0.0	-81.1	20.0	99.7
=	0.0	-80.4	20.0	99.8
=	0.0	-79.9	20.0	99.8
=	0.0	-79.3	20.0	99.8
=	0.0	-78.8	20.0	99.8
=	0.0	-78.3	20.0	99.8
=	0.0	-77.9	20.0	99.8
=	0.0	-77.4	20.0	99.8
=	0.0	-76.8	20.0	99.8
=	0.0	-76.3	20.0	99.8
=	0.0	-75.9	20.0	99.8
=	0.0	-75.4	20.0	99.8
=	0.0	-74.8	20.0	99.8
=	0.0	-74.3	20.0	99.8
=	0.0	-73.8	20.0	99.9
=	0.0	-73.3	20.0	99.9
=	0.0	-72.8	20.0	99.9
=	0.0	-72.3	20.0	99.9
=	0.0	-71.8	20.0	99.9
=	0.0	-71.3	20.0	99.9
=	0.0	-70.8	20.0	99.9
=	0.0	-70.3	20.0	99.9
=	0.0	-69.8	20.0	99.9
=	0.0	-69.3	20.0	100.0
=	0.0	-68.8	20.0	100.0
=	0.0	-68.3	20.0	100.0
=	0.0	-67.8	20.0	100.0
=	0.0	-67.3	20.0	99.9
=	0.0	-66.8	20.0	99.9
=	0.0	-66.3	20.0	99.9
=	0.0	-65.9	20.0	100.0
=	0.0	-65.5	20.0	100.0
=	0.0	-65.2	20.0	100.0
=	0.0	-64.9	20.0	100.0
=	0.0	-64.5	20.0	100.0
=	0.0	-64.0	20.0	100.0
=	0.0	-63.5	20.0	100.0
=	0.0	-63.2	20.0	100.0
=	0.0	-62.7	20.0	100.0
=	0.0	-62.3	20.0	100.0
=	0.0	-62.0	20.0	100.0
=	0.0	-61.7	20.0	100.0
=	0.0	-61.3	20.0	100.0
=	0.0	-61.0	20.0	100.0
=	0.0	-60.7	20.0	100.0
=	0.0	-60.2	20.0	100.1
=	0.0	-59.8	20.0	100.0
=	0.0	-59.5	20.0	100.0
=	0.0	-59.0	20.0	100.1
=	0.0	-58.7	20.0	100.1
=	0.0	-58.2	20.0	100.1
=	0.0	-57.8	20.0	100.1
=	0.0	-57.4	20.0	100.1
=	0.0	-57.1	20.0	100.1
=	0.0	-56.8	20.0	100.1
=	0.0	-56.4	20.0	100.1
=	0.0	-56.1	20.0	100.1
=	0.0	-55.8	20.0	100.1
=	0.0	-55.4	20.0	100.1
=	0.0	-55.1	20.0	100.1
=	0.0	-54.7	20.0	100.1
=	0.0	-54.4	20.0	100.1
=	0.0	-53.9	20.0	100.2
=	0.0	-53.6	20.0	100.2
=	0.0	-53.2	20.0	100.2
=	0.0	-52.7	20.0	100.2
=	0.0	-52.4	20.0	100.2
=	0.0	-52.0	20.0	100.2
=	0.0	-51.4	20.0	100.2
=	0.0	-50.9	20.0	100.2
=	0.0	-50.6	20.0	100.2
=	0.0	-50.2	20.0	100.2
=	0.0	-49.7	20.0	100.2
=	0.0	-49.2	20.0	100.2
=	0.0	-48.7	20.0	100.2
=	0.0	-48.2	20.0	100.2
=	0.0	-47.7	20.0	100.2
=	0.0	-47.2	20.0	100.2
=	0.0	-46.7	20.0	100.2
=	0.0	-46.2	20.0	100.2
=	0.0	-45.6	20.0	100.3
=	0.0	-45.1	20.0	100.3
=	0.0	-44.7	20.0	100.3
=	0.0	-44.1	20.0	100.2
=	0.0	-43.6	20.0	100.2
=	0.0	-43.1	20.0	100.2
=	0.0	-42.6	20.0	100.2
=	0.0	-42.1	20.0	100.2
=	0.0	-41.6	20.0	100.2
=	0.0	-41.1	20.0	100.2
=	0.0	-40.6	20.0	100.2
=	0.0	-40.1	20.0	100.2
=	0.0	-39.6	20.0	100.2
=	0.0	-39.1	20.0	100.2
=	0.0	-38.6	20.0	100.2
=	0.0	-38.0	20.0	100.2
=	0.0	-37.5	20.0	100.2
=	0.0	-37.0	20.0	100.2
=	0.0	-36.5	20.0	100.2
=	0.0	-36.2	20.0	100.2
=	0.0	-35.8	20.0	100.2
=	0.0	-35.4	20.0	100.2
=	0.0	-35.0	20.0	100.2
=	0.0	-34.7	20.0	100.2
=	0.0	-34.4	20.0	100.2
=	0.0	-34.0	20.0	100.2
=	0.0	-33.7	20.0	100.2
=	0.0	-33.3	20.0	100.2
=	0.0	-33.0	20.0	100.2
=	0.0	-32.6	20.0	100.2
=	0.0	-32.3	20.0	100.2
=	0.0	-32.0	20.0	100.2
=	0.0	-31.6	20.0	100.2
=	0.0	-31.3	20.0	100.2
=	0.0	-31.0	20.0	100.2
=	0.0	-30.6	20.0	100.2
=	0.0	-30.3	20.0	100.2
=	0.0	-29.8	20.0	100.2
=	0.0	-29.3	20.0	100.2
=	0.0	-29.0	20.0	100.2
=	0.0	-28.6	20.0	100.2
=	0.0	-28.3	20.0	100.2
=	0.0	-27.8	20.0	100.2
=	0.0	-27.2	20.0	100.2
=	0.0	-26.7	20.0	100.2
=	0.0	-26.2	20.0	100.2
=	0.0	-25.9	20.0	100.2
=	0.0	-25.5	20.0	100.2
=	0.0	-25.0	20.0	100.2
=	0.0	-24.5	20.0	100.2
=	0.0	-24.0	20.0	100.2
=	0.0	-23.5	20.0	100.2
=	0.0	-23.0	20.0	100.2
=	0.0	-22.5	20.0	100.2
=	0.0	-22.0	20.0	100.2
=	0.0	-21.5	20.0	100.2
=	0.0	-21.0	20.0	100.1
=	0.0	-20.4	20.0	100.1
=	0.0	-19.9	20.0	100.1
=	0.0	-19.5	20.0	100.1
=	0.0	-19.0	20.0	100.1
=	0.0	-18.7	20.0	100.1
=	0.0	-18.3	20.0	100.1
=	0.0	-17.9	20.0	100.1
=	0.0	-17.4	20.0	100.1
=	0.0	-16.9	20.0	100.1
=	0.0	-16.4	20.0	100.1
=	0.0	-15.9	20.0	100.1
=	0.0	-15.5	20.0	100.1
=	0.0	-15.0	20.0	100.1
=	0.0	-14.4	20.0	100.1
=	0.0	-13.9	20.0	100.1
=	0.0	-13.4	20.0	100.1
=	0.0	-12.9	20.0	100.1
=	0.0	-12.4	20.0	100.1
=	0.0	-11.9	20.0	100.1
=	0.0	-11.4	20.0	100.1
=	0.0	-10.9	20.0	100.1
=	0.0	-10.4	20.0	100.1
=	0.0	-9.7	20.0	100.1
=	0.0	-8.6	20.0	100.1
=	0.0	-8.1	20.0	100.1
=	0.0	-7.6	20.0	100.1
=	0.0	-6.6	20.0	100.1
=	0.0	-6.1	20.0	100.1
=	0.0	-5.1	20.0	100.1
=	0.0	-4.1	20.0	100.1
=	0.0	-3.3	20.0	100.0
=	0.0	-2.6	20.0	100.0
=	0.0	-1.5	20.0	100.0
=	0.0	-0.5	20.0	100.0
=	0.0	0.0	20.0	100.0
=	0.0	0.5	20.0	100.0
=	0.0	1.5	20.0	100.0
=	0.0	2.6	20.0	100.0
=	0.0	3.3	20.0	100.0
=	0.0	4.1	20.0	100.1
=	0.0	5.1	20.0	100.1
=	0.0	6.1	20.0	100.1
=	0.0	6.6	20.0	100.1
=	0.0	7.6	20.0	100.1
=	0.0	8.1	20.0	100.1
=	0.0	8.6	20.0	100.1
=	0.0	9.7	20.0	100.1
=	0.0	10.4	20.0	100.1
=	0.0	10.9	20.0	100.1
=	0.0	11.4	20.0	100.1
=	0.0	11.9	20.0	100.1
=	0.0	12.4	20.0	100.1
=	0.0	12.9	20.0	100.1
=	0.0	13.4	20.0	100.1
=	0.0	13.9	20.0	100.1
=	0.0	14.4	20.0	100.1
=	0.0	15.0	20.0	100.1
=	0.0	15.5	20.0	100.1
=	0.0	15.9	20.0	100.1
=	0.0	16.4	20.0	100.1
=	0.0	16.9	20.0	100.1
=	0.0	17.4	20.0	100.1
=	0.0	17.9	20.0	100.1
=	0.0	18.3	20.0	100.1
=	0.0	18.7	20.0	100.1
=	0.0	19.0	20.0	100.1
=	0.0	19.5	20.0	100.1
=	0.0	19.9	20.0	100.1
=	0.0	20.4	20.0	100.1
=	0.0	21.0	20.0	100.1
=	0.0	21.5	20.0	100.2
=	0.0	22.0	20.0	100.2
=	0.0	22.5	20.0	100.2
=	0.0	23.0	20.0	100.2
=	0.0	23.5	20.0	100.2
=	0.0	24.0	20.0	100.2
=	0.0	24.5	20.0	100.2
=	0.0	25.0	20.0	100.2
=	0.0	25.5	20.0	100.2
=	0.0	25.9	20.0	100.2
=	0.0	26.2	20.0	100.2
=	0.0	26.7	20.0	100.2
=	0.0	27.2	20.0	100.2
=	0.0	27.8	20.0	100.2
=	0.0	28.3	20.0	100.2
=	0.0	28.6	20.0	100.2
=	0.0	29.0	20.0	100.2
=	0.0	29.3	20.0	100.2
=	0.0	29.8	20.0	100.2
=	0.0	30.3	20.0	100.2
=	0.0	30.6	20.0	100.2
=	0.0	31.0	20.0	100.2
=	0.0	31.3	20.0	100.2
=	0.0	31.6	20.0	100.2
=	0.0	32.0	20.0	100.2
=	0.0	32.3	20.0	100.2
=	0.0	32.6	20.0	100.2
=	0.0	33.0	20.0	100.2
=	0.0	33.3	20.0	100.2
=	0.0	33.7	20.0	100.2
=	0.0	34.0	20.0	100.2
=	0.0	34.4	20.0	100.2
=	0.0	34.7	20.0	100.2
=	0.0	35.0	20.0	100.2
=	0.0	35.4	20.0	100.2
=	0.0	35.8	20.0	100.2
=	0.0	36.2	20.0	100.2
=	0.0	36.5	20.0	100.2
=	0.0	37.0	20.0	100.2
=	0.0	37.5	20.0	100.2
=	0.0	38.0	20.0	100.2
=	0.0	38.6	20.0	100.2
=	0.0	39.1	20.0	100.2
=	0.0	39.6	20.0	100.2
=	0.0	40.1	20.0	100.2
=	0.0	40.6	20.0	100.2
=	0.0	41.1	20.0	100.2
=	0.0	41.6	20.0	100.2
=	0.0	42.1	20.0	100.2
=	0.0	42.6	20.0	100.2
=	0.0	43.1	20.0	100.2
=	0.0	43.6	20.0	100.2
=	0.0	44.1	20.0	100.2
=	0.0	44.7	20.0	100.3
=	0.0	45.1	20.0	100.3
=	0.0	45.6	20.0	100.3
=	0.0	46.2	20.0	100.2
=	0.0	46.7	20.0	100.2
=	0.0	47.2	20.0	100.2
=	0.0	47.7	20.0	100.2
=	0.0	48.2	20.0	100.2
=	0.0	48.7	20.0	100.2
=	0.0	49.2	20.0	100.2
=	0.0	49.7	20.0	100.2
=	0.0	50.2	20.0	100.2
=	0.0	50.6	20.0	100.2
=	0.0	50.9	20.0	100.2
=	0.0	51.4	20.0	100.2
=	0.0	52.0	20.0	100.2
=	0.0	52.4	20.0	100.2
=	0.0	52.7	20.0	100.2
=	0.0	53.2	20.0	100.2
=	0.0	53.6	20.0	100.2
=	0.0	53.9	20.0	100.2
=	0.0	54.4	20.0	100.1
=	0.0	54.7	20.0	100.1
=	0.0	55.1	20.0	100.1
=	0.0	55.4	20.0	100.1
=	0.0	55.8	20.0	100.1
=	0.0	56.1	20.0	100.1
=	0.0	56.4	20.0	100.1
=	0.0	56.8	20.0	100.1
=	0.0	57.1	20.0	100.1
=	0.0	57.4	20.0	100.1
=	0.0	57.8	20.0	100.1
=	0.0	58.2	20.0	100.1
=	0.0	58.7	20.0	100.1
=	0.0	59.0	20.0	100.1
=	0.0	59.5	20.0	100.0
=	0.0	59.8	20.0	100.0
=	0.0	60.2	20.0	100.1
=	0.0	60.7	20.0	100.0
=	0.0	61.0	20.0	100.0
=	0.0	61.3	20.0	100.0
=	0.0	61.7	20.0	100.0
=	0.0	62.0	20.0	100.0
=	0.0	62.3	20.0	100.0
=	0.0	62.7	20.0	100.0
=	0.0	63.2	20.0	100.0
=	0.0	63.5	20.0	100.0
=	0.0	64.0	20.0	100.0
=	0.0	64.5	20.0	100.0
=	0.0	64.9	20.0	100.0
=	0.0	65.2	20.0	100.0
=	0.0	65.5	20.0	100.0
=	0.0	65.9	20.0	100.0
=	0.0	66.3	20.0	99.9
=	0.0	66.8	20.0	99.9
=	0.0	67.3	20.0	99.9
=	0.0	67.8	20.0	100.0
=	0.0	68.3	20.0	100.0
=	0.0	68.8	20.0	100.0
=	0.0	69.3	20.0	100.0
=	0.0	69.8	20.0	99.9
=	0.0	70.3	20.0	99.9
=	0.0	70.8	20.0	99.9
=	0.0	71.3	20.0	99.9
=	0.0	71.8	20.0	99.9
=	0.0	72.3	20.0	99.9
=	0.0	72.8	20.0	99.9
=	0.0	73.3	20.0	99.9
=	0.0	73.8	20.0	99.9
=	0.0	74.3	20.0	99.8
=	0.0	74.8	20.0	99.8
=	0.0	75.4	20.0	99.8
=	0.0	75.9	20.0	99.8
=	0.0	76.3	20.0	99.8
=	0.0	76.8	20.0	99.8
=	0.0	77.4	20.0	99.8
=	0.0	77.9	20.0	99.8
=	0.0	78.3	20.0	99.8
=	0.0	78.8	20.0	99.8
=	0.0	79.3	20.0	99.8
=	0.0	79.9	20.0	99.8
=	0.0	80.4	20.0	99.8
=	0.0	81.1	20.0	99.7
=	0.0	81.6	20.0	99.7
=	0.0	82.1	20.0	99.7
=	0.0	82.7	20.0	99.7
=	0.0	83.1	20.0	99.7
=	0.0	83.9	20.0	99.7
=	0.0	85.0	20.0	99.6
=	0.0	85.6	20.0	99.6
=	0.0	86.1	20.0	99.6
=	0.0	87.0	20.0	99.6
=	0.0	88.0	20.0	99.6
=	0.0	88.9	20.0	99.5
=	0.0	89.5	20.0	99.5
=	0.0	90.4	20.0	99.5
=	0.0	90.9	20.0	99.5
=	0.0	91.4	20.0	99.5
=	0.0	91.9	20.0	99.4
=	0.0	92.4	20.0	99.4
=	0.0	93.0	20.0	99.4
=	0.0	94.0	20.0	99.4
=	0.0	95.0	20.0	99.3
=	0.0	95.5	20.0	99.3
=	0.0	96.0	20.0	99.3
=	0.0	97.0	20.0	99.3
=	0.0	98.0	20.0	99.3
=	0.0	99.0	20.0	99.2
=	0.0	100.1	20.0	99.2
=	0.0	101.1	20.0	99.2
=	0.0	102.1	20.0	99.2
=	0.0	102.8	20.0	99.1
=	0.0	103.6	20.0	99.1
=	0.0	104.6	20.0	99.1
=	0.0	105.6	20.0	99.0
=	0.0	106.6	20.0	99.0
=	0.0	107.6	20.0	99.0
=	0.0	108.6	20.0	98.9
=	0.0	109.7	20.0	98.9
=	0.0	110.6	20.0	98.8
=	0.0	111.2	20.0	98.8
=	0.0	111.9	20.0	98.8
=	0.0	112.4	20.0	98.8
=	0.0	113.0	20.0	98.8
=	0.0	113.5	20.0	98.7
=	0.0	113.9	20.0	98.7
=	0.0	114.4	20.0	98.7
=	0.0	115.2	20.0	98.7
=	0.0	115.7	20.0	98.7
=	0.0	116.2	20.0	98.6
=	0.0	116.7	20.0	98.6
=	0.0	117.2	20.0	98.6
=	0.0	117.7	20.0	98.6
=	0.0	118.2	20.0	98.6
=	0.0	118.7	20.0	98.6
=	0.0	119.2	20.0	98.6
=	0.0	119.7	20.0	98.6
=	0.0	120.2	20.0	98.6
=	0.0	120.8	20.0	98.5
=	0.0	121.3	20.0	98.5
=	0.0	121.8	20.0	98.5
=	0.0	122.3	20.0	98.5
=	0.0	122.8	20.0	98.4
=	0.0	123.3	20.0	98.4
=	0.0	123.6	20.0	98.4
=	0.0	124.1	20.0	98.4
=	0.0	124.5	20.0	98.4
=	0.0	124.8	20.0	98.4
=	0.0	125.1	20.0	98.3
=	0.0	125.5	20.0	98.3
=	0.0	125.8	20.0	98.3
=	0.0	126.1	20.0	98.3
=	0.0	126.5	20.0	98.3
=	0.0	126.8	20.0	98.3
=	0.0	127.2	20.0	98.2
=	0.0	127.5	20.0	98.2
=	0.0	127.8	20.0	98.2
=	0.0	128.1	20.0	98.2
=	0.0	128.5	20.0	98.2
=	0.0	128.8	20.0	98.1
=	0.0	129.3	20.0	98.1
=	0.0	129.7	20.0	98.1
=	0.0	130.1	20.0	98.1
=	0.0	130.6	20.0	98.1
=	0.0	131.1	20.0	98.0
=	0.0	131.5	20.0	98.0
=	0.0	132.0	20.0	98.0
=	0.0	132.6	20.0	98.0
=	0.0	133.1	20.0	97.9
=	0.0	133.6	20.0	97.9
=	0.0	134.1	20.0	97.9
=	0.0	134.6	20.0	97.9
=	0.0	135.1	20.0	97.8
=	0.0	135.6	20.0	97.8
=	0.0	136.1	20.0	97.8
=	0.0	136.6	20.0	97.7
=	0.0	137.1	20.0	97.7
=	0.0	137.6	20.0	97.7
=	0.0	138.1	20.0	97.7
=	0.0	138.6	20.0	97.7
=	0.0	139.1	20.0	97.7
=	0.0	139.6	20.0	97.6
=	0.0	140.1	20.0	97.6
=	0.0	140.6	20.0	97.6
=	0.0	141.1	20.0	97.5
=	0.0	141.6	20.0	97.5
=	0.0	142.1	20.0	97.5
=	0.0	142.6	20.0	97.5
=	0.0	143.1	20.0	97.5
=	0.0	143.6	20.0	97.4
=	0.0	144.1	20.0	97.4
=	0.0	144.6	20.0	97.4
=	0.0	145.1	20.0	97.3
=	0.0	145.6	20.0	97.3
=	0.0	146.2	20.0	97.2
=	0.0	146.7	20.0	97.2
=	0.0	147.2	20.0	97.2
=	0.0	147.7	20.0	97.2
=	0.0	148.2	20.0	97.1
=	0.0	148.7	20.0	97.1
=	0.0	149.2	20.0	97.0
=	0.0	149.7	20.0	97.0
=	0.0	150.2	20.0	97.0
=	0.0	150.7	20.0	97.0
=	0.0	151.2	20.0	96.9
=	0.0	151.7	20.0	96.9
=	0.0	152.2	20.0	96.9
=	0.0	152.7	20.0	96.9
=	0.0	153.3	20.0	96.9
=	0.0	153.7	20.0	96.8
=	0.0	154.2	20.0	96.8
=	0.0	154.8	20.0	96.7
=	0.0	155.2	20.0	96.7
=	0.0	155.8	20.0	96.7
=	0.0	156.2	20.0	96.6
=	0.0	156.8	20.0	96.6
=	0.0	157.3	20.0	96.5
=	0.0	157.8	20.0	96.5
=	0.0	158.3	20.0	96.5
=	0.0	158.8	20.0	96.4
=	0.0	159.3	20.0	96.4
=	0.0	159.8	20.0	96.4
=	0.0	160.3	20.0	96.4
=	0.0	160.6	20.0	96.4
=	0.0	161.0	20.0	96.3
=	0.0	161.5	20.0	96.3
=	0.0	162.1	20.0	96.3
=	0.0	162.9	20.0	96.1
=	0.0	163.9	20.0	96.1
=	0.0	164.9	20.0	96.0
=	0.0	166.0	20.0	95.9
=	0.0	166.9	20.0	95.9
=	0.0	167.5	20.0	95.8
=	0.0	168.5	20.0	95.8
=	0.0	169.5	20.0	95.7
=	0.0	170.5	20.0	95.6
=	0.0	171.5	20.0	95.5
=	0.0	172.5	20.0	95.4
=	0.0	173.5	20.0	95.3
=	0.0	174.5	20.0	95.3
=	0.0	175.6	20.0	95.1
=	0.0	176.3	20.0	95.0
=	0.0	176.8	20.0	95.0
=	0.0	177.3	20.0	95.0
=	0.0	178.1	20.0	94.9
=	0.0	179.0	20.0	94.8
=	0.0	179.6	20.0	94.7
=	0.0	180.5	20.0	94.6
=	0.0	181.1	20.0	94.5
=	0.0	181.6	20.0	94.4
=	0.0	182.1	20.0	94.4
=	0.0	182.8	20.0	94.3
=	0.0	183.3	20.0	94.2
=	0.0	184.1	20.0	94.1
=	0.0	184.6	20.0	94.0
=	0.0	185.6	20.0	93.9
=	0.0	186.1	20.0	93.8
=	0.0	186.6	20.0	93.7
=	0.0	187.2	20.0	93.6
=	0.0	188.1	20.0	93.4
=	0.0	188.6	20.0	93.3
=	0.0	189.2	20.0	93.2
=	0.0	190.1	20.0	93.0
=	0.0	190.9	20.0	92.8
=	0.0	191.4	20.0	92.6
=	0.0	191.9	20.0	92.4
=	0.0	192.4	20.0	92.4
=	0.0	192.9	20.0	92.1
=	0.0	193.7	20.0	91.8
=	0.0	194.2	20.0	91.5
=	0.0	194.7	20.0	91.2
=	0.0	195.2	20.0	90.8
=	0.0	195.9	20.0	90.2
=	0.0	196.7	20.0	89.2
=	0.0	197.2	20.0	88.4
=	0.0	197.7	20.0	87.5
=	0.0	198.2	20.0	86.2
=	0.0	199.2	20.0	83.2
=	0.0	200.1	20.0	78.8
=	0.0	201.2	20.0	72.4
=	0.0	202.2	20.0	64.8
=	0.0	203.2	20.0	56.6
=	0.0	204.2	20.0	48.3
=	0.0	205.2	20.0	40.4
=	0.0	206.2	20.0	33.5
=	0.0	207.2	20.0	27.9
=	0.0	207.7	20.0	25.6
=	0.0	208.3	20.0	23.5
=	0.0	209.2	20.0	20.6
=	0.0	210.2	20.0	18.4
=	0.0	211.2	20.0	17.0
=	0.0	212.2	20.0	16.0
=	0.0	213.2	20.0	15.3
=	0.0	214.3	20.0	14.8
=	0.0	215.2	20.0	14.4
=	0.0	216.2	20.0	14.1
=	0.0	217.3	20.0	13.8
=	0.0	218.3	20.0	13.6
=	0.0	219.3	20.0	13.4
=	0.0	220.3	20.0	13.2
=	0.0	221.3	20.0	13.1
=	0.0	222.3	20.0	12.9
=	0.0	223.3	20.0	12.8
=	0.0	224.3	20.0	12.6
=	0.0	225.3	20.0	12.5
=	0.0	226.3	20.0	12.3
=	0.0	227.3	20.0	12.2
=	0.0	228.3	20.0	12.0
=	0.0	229.3	20.0	11.9
=	0.0	230.3	20.0	11.8
=	0.0	231.3	20.0	11.7
=	0.0	232.3	20.0	11.6
=	0.0	233.3	20.0	11.5
=	0.0	234.3	20.0	11.4
=	0.0	235.3	20.0	11.3
=	0.0	236.3	20.0	11.2
=	0.0	237.3	20.0	11.1
=	0.0	238.4	20.0	11.0
=	0.0	239.3	20.0	10.9
=	0.0	240.3	20.0	10.8
=	0.0	241.4	20.0	10.8
=	0.0	242.4	20.0	10.6
=	0.0	243.3	20.0	10.6
=	0.0	243.8	20.0	10.6
=	0.0	244.3	20.0	10.5
=	0.0	244.8	20.0	10.5
=	0.0	245.3	20.0	10.4
=	0.0	245.8	20.0	10.4
=	0.0	246.3	20.0	10.4
=	0.0	246.8	20.0	10.3
=	0.0	247.3	20.0	10.3
=	0.0	247.8	20.0	10.3
=	0.0	248.3	20.0	10.2
=	0.0	248.8	20.0	10.2
=	0.0	249.3	20.0	10.1
=	0.0	249.8	20.0	10.1
=	0.0	250.3	20.0	10.0
=	0.0	250.8	20.0	10.0
=	0.0	251.3	20.0	10.0
=	0.0	251.8	20.0	10.0
=	0.0	252.3	20.0	9.9
=	0.0	252.9	20.0	9.8
=	0.0	253.4	20.0	9.8
=	0.0	253.9	20.0	9.8
=	0.0	254.4	20.0	9.7
=	0.0	254.9	20.0	9.7
=	0.0	255.4	20.0	9.7
=	0.0	255.9	20.0	9.6
=	0.0	256.9	20.0	9.6
=	0.0	257.7	20.0	9.5
=	0.0	258.2	20.0	9.5
=	0.0	258.8	20.0	9.4
=	0.0	259.3	20.0	9.4
=	0.0	259.8	20.0	9.4
=	0.0	260.3	20.0	9.3
=	0.0	260.8	20.0	9.3
=	0.0	261.3	20.0	9.3
=	0.0	261.8	20.0	9.2
=	0.0	262.3	20.0	9.2
=	0.0	262.8	20.0	9.2
=	0.0	263.3	20.0	9.1
=	0.0	263.8	20.0	9.1
=	0.0	264.3	20.0	9.0
=	0.0	264.8	20.0	9.0
=	0.0	265.3	20.0	9.0
=	0.0	265.8	20.0	9.0
=	0.0	266.3	20.0	9.0
=	0.0	266.9	20.0	8.9
=	0.0	267.4	20.0	8.9
=	0.0	267.9	20.0	8.9
=	0.0	268.4	20.0	8.8
=	0.0	268.9	20.0	8.8
=	0.0	269.4	20.0	8.8
=	0.0	269.9	20.0	8.7
=	0.0	270.4	20.0	8.7
=	0.0	270.8	20.0	8.7
=	0.0	271.3	20.0	8.7
=	0.0	271.8	20.0	8.6
=	0.0	272.3	20.0	8.6
=	0.0	272.9	20.0	8.6
=	0.0	273.8	20.0	8.5
:EOM # End of Measurement
#
# RFA300 ASCII Measurement Dump ( BDS format )
#
# Measurement number 	2
#
%VNR 1.0
%MOD 	RAT
%TYP 	SCN
%SCN 	PRO
%FLD 	ION
%DAT 	02-03-2012
%TIM 	12:00:00
%FSZ 	400	300
%BMT 	PHO	   8.0
%SSD 	1000
%BUP 	0
%BRD 	1000
%FSH 	1
%ASC 	0
%WEG 	30
%GPO 	0
%CPO 	0
%MEA 	6
%PRD 	50,0
%PTS 	740
%STS 	    0.0	  -283.2	   50.0 # Start Scan values in mm ( X , Y , Z )
%EDS 	    0.0	   283.0	   50.0 # End Scan values in mm ( X , Y , Z )
#
#	  X      Y      Z     Dose
#
=	0.0	-283.2	50.0	8.3
=	0.0	-282.5	50.0	8.4
=	0.0	-281.8	50.0	8.4
=	0.0	-281.3	50.0	8.5
=	0.0	-280.8	50.0	8.5
=	0.0	-280.2	50.0	8.6
=	0.0	-279.5	50.0	8.6
=	0.0	-278.7	50.0	8.6
=	0.0	-278.0	50.0	8.7
=	0.0	-277.3	50.0	8.7
=	0.0	-276.5	50.0	8.8
=	0.0	-275.7	50.0	8.8
=	0.0	-274.8	50.0	8.9
=	0.0	-273.9	50.0	8.9
=	0.0	-273.0	50.0	9.0
=	0.0	-272.3	50.0	9.0
=	0.0	-271.5	50.0	9.1
=	0.0	-270.8	50.0	9.1
=	0.0	-270.0	50.0	9.2
=	0.0	-269.3	50.0	9.2
=	0.0	-268.6	50.0	9.3
=	0.0	-267.8	50.0	9.3
=	0.0	-267.0	50.0	9.4
=	0.0	-266.3	50.0	9.4
=	0.0	-265.5	50.0	9.5
=	0.0	-264.8	50.0	9.5
=	0.0	-264.0	50.0	9.6
=	0.0	-263.3	50.0	9.7
=	0.0	-262.5	50.0	9.7
=	0.0	-261.8	50.0	9.8
=	0.0	-261.0	50.0	9.8
=	0.0	-260.2	50.0	9.9
=	0.0	-259.5	50.0	10.0
=	0.0	-258.7	50.0	10.0
=	0.0	-258.0	50.0	10.1
=	0.0	-257.2	50.0	10.2
=	0.0	-256.5	50.0	10.2
=	0.0	-255.6	50.0	10.3
=	0.0	-254.4	50.0	10.4
=	0.0	-253.7	50.0	10.5
=	0.0	-252.9	50.0	10.5
=	0.0	-252.1	50.0	10.6
=	0.0	-251.0	50.0	10.7
=	0.0	-250.3	50.0	10.8
=	0.0	-249.5	50.0	10.8
=	0.0	-248.7	50.0	10.9
=	0.0	-248.0	50.0	11.0
=	0.0	-247.2	50.0	11.0
=	0.0	-246.5	50.0	11.1
=	0.0	-245.7	50.0	11.2
=	0.0	-245.0	50.0	11.3
=	0.0	-244.2	50.0	11.3
=	0.0	-243.5	50.0	11.4
=	0.0	-242.7	50.0	11.5
=	0.0	-242.0	50.0	11.6
=	0.0	-241.2	50.0	11.7
=	0.0	-240.5	50.0	11.8
=	0.0	-239.7	50.0	11.8
=	0.0	-239.0	50.0	11.9
=	0.0	-238.2	50.0	12.0
=	0.0	-237.5	50.0	12.1
=	0.0	-236.7	50.0	12.2
=	0.0	-236.0	50.0	12.3
=	0.0	-235.2	50.0	12.4
=	0.0	-234.4	50.0	12.5
=	0.0	-233.6	50.0	12.7
=	0.0	-232.9	50.0	12.8
=	0.0	-232.2	50.0	12.9
=	0.0	-231.4	50.0	13.0
=	0.0	-230.6	50.0	13.2
=	0.0	-229.9	50.0	13.3
=	0.0	-229.1	50.0	13.4
=	0.0	-228.4	50.0	13.6
=	0.0	-227.6	50.0	13.7
=	0.0	-226.9	50.0	13.9
=	0.0	-226.1	50.0	14.0
=	0.0	-225.4	50.0	14.2
=	0.0	-224.9	50.0	14.3
=	0.0	-224.4	50.0	14.4
=	0.0	-223.6	50.0	14.7
=	0.0	-222.9	50.0	14.9
=	0.0	-222.1	50.0	15.1
=	0.0	-221.4	50.0	15.4
=	0.0	-220.6	50.0	15.7
=	0.0	-219.8	50.0	16.1
=	0.0	-219.1	50.0	16.5
=	0.0	-218.4	50.0	17.0
=	0.0	-217.6	50.0	17.8
=	0.0	-216.8	50.0	18.7
=	0.0	-216.1	50.0	19.9
=	0.0	-215.3	50.0	21.4
=	0.0	-214.6	50.0	23.4
=	0.0	-213.8	50.0	25.9
=	0.0	-213.2	50.0	28.4
=	0.0	-212.6	50.0	31.6
=	0.0	-211.8	50.0	36.0
=	0.0	-211.0	50.0	41.0
=	0.0	-210.3	50.0	46.2
=	0.0	-209.5	50.0	52.1
=	0.0	-208.8	50.0	57.8
=	0.0	-208.0	50.0	63.2
=	0.0	-207.3	50.0	68.4
=	0.0	-206.5	50.0	73.2
=	0.0	-205.8	50.0	77.0
=	0.0	-205.0	50.0	80.2
=	0.0	-204.2	50.0	82.5
=	0.0	-203.5	50.0	84.4
=	0.0	-202.8	50.0	85.8
=	0.0	-202.0	50.0	86.8
=	0.0	-201.2	50.0	87.6
=	0.0	-200.5	50.0	88.2
=	0.0	-199.7	50.0	88.8
=	0.0	-198.9	50.0	89.2
=	0.0	-198.2	50.0	89.6
=	0.0	-197.4	50.0	89.9
=	0.0	-196.7	50.0	90.2
=	0.0	-195.9	50.0	90.5
=	0.0	-195.2	50.0	90.7
=	0.0	-194.4	50.0	90.9
=	0.0	-193.7	50.0	91.1
=	0.0	-192.9	50.0	91.3
=	0.0	-192.2	50.0	91.5
=	0.0	-191.4	50.0	91.7
=	0.0	-190.7	50.0	91.8
=	0.0	-189.9	50.0	92.0
=	0.0	-189.4	50.0	92.1
=	0.0	-188.9	50.0	92.2
=	0.0	-188.2	50.0	92.2
=	0.0	-187.4	50.0	92.4
=	0.0	-186.7	50.0	92.5
=	0.0	-185.9	50.0	92.7
=	0.0	-185.2	50.0	92.8
=	0.0	-184.3	50.0	92.9
=	0.0	-183.6	50.0	93.0
=	0.0	-182.9	50.0	93.2
=	0.0	-182.1	50.0	93.3
=	0.0	-181.3	50.0	93.4
=	0.0	-180.6	50.0	93.4
=	0.0	-179.9	50.0	93.5
=	0.0	-179.1	50.0	93.6
=	0.0	-178.3	50.0	93.7
=	0.0	-177.6	50.0	93.8
=	0.0	-176.8	50.0	93.9
=	0.0	-176.1	50.0	94.0
=	0.0	-175.3	50.0	94.1
=	0.0	-174.6	50.0	94.1
=	0.0	-173.8	50.0	94.2
=	0.0	-173.1	50.0	94.3
=	0.0	-172.3	50.0	94.4
=	0.0	-171.6	50.0	94.4
=	0.0	-170.8	50.0	94.5
=	0.0	-170.3	50.0	94.6
=	0.0	-169.6	50.0	94.6
=	0.0	-168.8	50.0	94.7
=	0.0	-168.1	50.0	94.8
=	0.0	-167.5	50.0	94.8
=	0.0	-166.9	50.0	94.9
=	0.0	-166.2	50.0	94.9
=	0.0	-165.4	50.0	95.0
=	0.0	-164.7	50.0	95.0
=	0.0	-163.9	50.0	95.1
=	0.0	-163.1	50.0	95.1
=	0.0	-162.3	50.0	95.2
=	0.0	-161.6	50.0	95.3
=	0.0	-160.8	50.0	95.4
=	0.0	-160.1	50.0	95.4
=	0.0	-159.3	50.0	95.5
=	0.0	-158.6	50.0	95.6
=	0.0	-157.6	50.0	95.6
=	0.0	-156.8	50.0	95.7
=	0.0	-156.0	50.0	95.8
=	0.0	-155.3	50.0	95.8
=	0.0	-154.6	50.0	95.9
=	0.0	-153.7	50.0	95.9
=	0.0	-153.0	50.0	96.0
=	0.0	-152.2	50.0	96.0
=	0.0	-151.5	50.0	96.1
=	0.0	-150.7	50.0	96.1
=	0.0	-150.0	50.0	96.2
=	0.0	-149.2	50.0	96.2
=	0.0	-148.4	50.0	96.3
=	0.0	-147.6	50.0	96.3
=	0.0	-146.9	50.0	96.4
=	0.0	-146.1	50.0	96.5
=	0.0	-145.4	50.0	96.5
=	0.0	-144.6	50.0	96.6
=	0.0	-143.9	50.0	96.6
=	0.0	-143.1	50.0	96.6
=	0.0	-142.3	50.0	96.7
=	0.0	-141.6	50.0	96.7
=	0.0	-140.9	50.0	96.7
=	0.0	-140.1	50.0	96.8
=	0.0	-139.3	50.0	96.8
=	0.0	-138.6	50.0	96.9
=	0.0	-137.8	50.0	97.0
=	0.0	-137.1	50.0	97.0
=	0.0	-136.3	50.0	97.0
=	0.0	-135.6	50.0	97.1
=	0.0	-134.8	50.0	97.1
=	0.0	-134.0	50.0	97.1
=	0.0	-133.2	50.0	97.2
=	0.0	-132.5	50.0	97.2
=	0.0	-131.7	50.0	97.2
=	0.0	-131.0	50.0	97.3
=	0.0	-130.3	50.0	97.3
=	0.0	-129.5	50.0	97.4
=	0.0	-128.7	50.0	97.4
=	0.0	-128.0	50.0	97.5
=	0.0	-127.2	50.0	97.5
=	0.0	-126.5	50.0	97.6
=	0.0	-125.7	50.0	97.6
=	0.0	-124.9	50.0	97.7
=	0.0	-124.2	50.0	97.7
=	0.0	-123.6	50.0	97.7
=	0.0	-122.9	50.0	97.7
=	0.0	-122.2	50.0	97.7
=	0.0	-121.4	50.0	97.8
=	0.0	-120.6	50.0	97.8
=	0.0	-119.9	50.0	97.8
=	0.0	-119.4	50.0	97.8
=	0.0	-118.9	50.0	97.9
=	0.0	-118.1	50.0	97.9
=	0.0	-117.5	50.0	97.9
=	0.0	-117.0	50.0	98.0
=	0.0	-116.5	50.0	98.0
=	0.0	-115.9	50.0	98.0
=	0.0	-115.2	50.0	98.0
=	0.0	-114.7	50.0	98.1
=	0.0	-114.0	50.0	98.1
=	0.0	-113.5	50.0	98.1
=	0.0	-112.8	50.0	98.1
=	0.0	-112.0	50.0	98.2
=	0.0	-111.2	50.0	98.2
=	0.0	-110.5	50.0	98.2
=	0.0	-109.7	50.0	98.2
=	0.0	-108.9	50.0	98.3
=	0.0	-108.2	50.0	98.3
=	0.0	-107.4	50.0	98.3
=	0.0	-106.7	50.0	98.4
=	0.0	-105.9	50.0	98.4
=	0.0	-105.2	50.0	98.5
=	0.0	-104.4	50.0	98.5
=	0.0	-103.7	50.0	98.5
=	0.0	-102.9	50.0	98.6
=	0.0	-102.1	50.0	98.6
=	0.0	-101.4	50.0	98.6
=	0.0	-100.6	50.0	98.6
=	0.0	-99.8	50.0	98.6
=	0.0	-99.1	50.0	98.7
=	0.0	-98.4	50.0	98.7
=	0.0	-97.6	50.0	98.7
=	0.0	-96.8	50.0	98.7
=	0.0	-96.1	50.0	98.8
=	0.0	-95.3	50.0	98.8
=	0.0	-94.6	50.0	98.8
=	0.0	-93.8	50.0	98.9
=	0.0	-93.1	50.0	98.9
=	0.0	-92.3	50.0	98.9
=	0.0	-91.6	50.0	98.9
=	0.0	-91.1	50.0	99.0
=	0.0	-90.5	50.0	99.0
=	0.0	-89.8	50.0	99.0
=	0.0	-89.2	50.0	99.0
=	0.0	-88.7	50.0	99.0
=	0.0	-88.1	50.0	99.0
=	0.0	-87.3	50.0	99.1
=	0.0	-86.5	50.0	99.1
=	0.0	-85.8	50.0	99.1
=	0.0	-85.0	50.0	99.1
=	0.0	-84.2	50.0	99.1
=	0.0	-83.5	50.0	99.1
=	0.0	-82.7	50.0	99.1
=	0.0	-82.0	50.0	99.2
=	0.0	-81.2	50.0	99.2
=	0.0	-80.5	50.0	99.2
=	0.0	-79.7	50.0	99.3
=	0.0	-79.0	50.0	99.3
=	0.0	-78.4	50.0	99.3
=	0.0	-77.7	50.0	99.3
=	0.0	-76.9	50.0	99.3
=	0.0	-76.2	50.0	99.3
=	0.0	-75.5	50.0	99.4
=	0.0	-74.9	50.0	99.4
=	0.0	-74.4	50.0	99.4
=	0.0	-73.7	50.0	99.4
=	0.0	-72.9	50.0	99.5
=	0.0	-72.1	50.0	99.5
=	0.0	-71.4	50.0	99.5
=	0.0	-70.6	50.0	99.5
=	0.0	-69.8	50.0	99.5
=	0.0	-69.1	50.0	99.6
=	0.0	-68.3	50.0	99.6
=	0.0	-67.6	50.0	99.6
=	0.0	-66.8	50.0	99.6
=	0.0	-66.1	50.0	99.6
=	0.0	-65.3	50.0	99.6
=	0.0	-64.6	50.0	99.6
=	0.0	-63.8	50.0	99.6
=	0.0	-63.1	50.0	99.6
=	0.0	-62.3	50.0	99.7
=	0.0	-61.6	50.0	99.7
=	0.0	-60.7	50.0	99.7
=	0.0	-59.9	50.0	99.7
=	0.0	-58.7	50.0	99.8
=	0.0	-57.9	50.0	99.8
=	0.0	-56.5	50.0	99.8
=	0.0	-55.7	50.0	99.8
=	0.0	-54.9	50.0	99.8
=	0.0	-53.9	50.0	99.8
=	0.0	-53.0	50.0	99.8
=	0.0	-52.2	50.0	99.8
=	0.0	-51.5	50.0	99.9
=	0.0	-50.7	50.0	99.9
=	0.0	-50.0	50.0	99.9
=	0.0	-49.2	50.0	99.9
=	0.0	-48.5	50.0	99.9
=	0.0	-47.6	50.0	99.9
=	0.0	-46.9	50.0	100.0
=	0.0	-46.1	50.0	100.0
=	0.0	-45.1	50.0	100.0
=	0.0	-44.1	50.0	100.0
=	0.0	-42.8	50.0	100.0
=	0.0	-41.4	50.0	100.0
=	0.0	-40.6	50.0	100.0
=	0.0	-39.7	50.0	100.0
=	0.0	-38.4	50.0	100.0
=	0.0	-37.3	50.0	100.0
=	0.0	-35.7	50.0	100.0
=	0.0	-34.8	50.0	100.0
=	0.0	-33.7	50.0	100.0
=	0.0	-32.2	50.0	100.0
=	0.0	-30.8	50.0	100.0
=	0.0	-29.7	50.0	100.0
=	0.0	-28.2	50.0	100.0
=	0.0	-26.7	50.0	100.0
=	0.0	-25.2	50.0	100.0
=	0.0	-23.6	50.0	100.0
=	0.0	-22.1	50.0	100.0
=	0.0	-20.6	50.0	100.0
=	0.0	-19.1	50.0	100.0
=	0.0	-17.9	50.0	100.0
=	0.0	-17.2	50.0	100.0
=	0.0	-16.4	50.0	100.0
=	0.0	-15.7	50.0	100.0
=	0.0	-14.9	50.0	100.0
=	0.0	-14.2	50.0	100.0
=	0.0	-13.3	50.0	99.9
=	0.0	-12.6	50.0	99.9
=	0.0	-12.1	50.0	99.9
=	0.0	-11.6	50.0	100.0
=	0.0	-11.0	50.0	100.0
=	0.0	-10.5	50.0	100.0
=	0.0	-10.0	50.0	100.0
=	0.0	-9.4	50.0	100.0
