:MSR 	25	 # No. of measurement in file
:SYS BDS 0   # Beam Data Scanner System
#
# RFA300 ASCII Measurement Dump ( BDS format )
#
# Measurement number 	1
#
%VNR 1.0
%MOD 	RAT
%TYP 	SCN
%SCN 	PRO
%FLD 	ION
%DAT 	02-02-2012
%TIM 	12:00:00
%FSZ 	040	040
%BMT 	PHO	   8.0
%SSD 	1000
%BUP 	0
%BRD 	1000
%FSH 	1
%ASC 	0
%WEG 	30
%GPO 	0
%CPO 	0
%MEA 	6
%PRD 	20,0
%PTS 	616
%STS 	    -70.3	  0.0	   20.0 # Start Scan values in mm ( X , Y , Z )
%EDS 	    70.3	   0.0	   20.0 # End Scan values in mm ( X , Y , Z )
#
#	  X      Y      Z     Dose
#
=	-70.3	0.0	20.0	1.0
=	-70.0	0.0	20.0	1.0
=	-69.5	0.0	20.0	1.0
=	-69.1	0.0	20.0	1.0
=	-68.9	0.0	20.0	1.0
=	-68.7	0.0	20.0	1.0
=	-68.5	0.0	20.0	1.0
=	-68.3	0.0	20.0	1.0
=	-67.9	0.0	20.0	1.0
=	-67.8	0.0	20.0	1.0
=	-67.5	0.0	20.0	1.0
=	-67.3	0.0	20.0	1.0
=	-67.1	0.0	20.0	1.0
=	-66.9	0.0	20.0	1.0
=	-66.6	0.0	20.0	1.0
=	-66.5	0.0	20.0	1.0
=	-66.4	0.0	20.0	1.0
=	-66.3	0.0	20.0	1.0
=	-66.1	0.0	20.0	1.0
=	-65.8	0.0	20.0	1.0
=	-65.6	0.0	20.0	1.0
=	-65.4	0.0	20.0	1.0
=	-65.2	0.0	20.0	1.0
=	-65.1	0.0	20.0	1.0
=	-64.8	0.0	20.0	1.0
=	-64.6	0.0	20.0	1.0
=	-64.5	0.0	20.0	1.0
=	-64.2	0.0	20.0	1.0
=	-64.1	0.0	20.0	1.0
=	-63.8	0.0	20.0	1.0
=	-63.6	0.0	20.0	1.0
=	-63.4	0.0	20.0	1.0
=	-63.1	0.0	20.0	1.0
=	-63.0	0.0	20.0	1.0
=	-62.6	0.0	20.0	1.0
=	-62.2	0.0	20.0	1.1
=	-61.8	0.0	20.0	1.1
=	-61.6	0.0	20.0	1.1
=	-61.4	0.0	20.0	1.1
=	-61.1	0.0	20.0	1.1
=	-61.0	0.0	20.0	1.1
=	-60.6	0.0	20.0	1.1
=	-60.5	0.0	20.0	1.1
=	-60.1	0.0	20.0	1.1
=	-59.7	0.0	20.0	1.1
=	-59.6	0.0	20.0	1.1
=	-59.3	0.0	20.0	1.1
=	-59.1	0.0	20.0	1.1
=	-58.9	0.0	20.0	1.1
=	-58.6	0.0	20.0	1.1
=	-58.5	0.0	20.0	1.1
=	-58.1	0.0	20.0	1.1
=	-57.6	0.0	20.0	1.1
=	-57.2	0.0	20.0	1.1
=	-57.0	0.0	20.0	1.1
=	-56.8	0.0	20.0	1.1
=	-56.6	0.0	20.0	1.2
=	-56.4	0.0	20.0	1.2
=	-56.0	0.0	20.0	1.2
=	-55.6	0.0	20.0	1.2
=	-55.2	0.0	20.0	1.2
=	-55.1	0.0	20.0	1.2
=	-54.8	0.0	20.0	1.2
=	-54.6	0.0	20.0	1.2
=	-54.4	0.0	20.0	1.2
=	-54.1	0.0	20.0	1.2
=	-54.0	0.0	20.0	1.2
=	-53.6	0.0	20.0	1.2
=	-53.2	0.0	20.0	1.2
=	-52.8	0.0	20.0	1.2
=	-52.6	0.0	20.0	1.2
=	-52.4	0.0	20.0	1.3
=	-52.3	0.0	20.0	1.3
=	-52.1	0.0	20.0	1.3
=	-52.0	0.0	20.0	1.3
=	-51.6	0.0	20.0	1.3
=	-51.5	0.0	20.0	1.3
=	-51.2	0.0	20.0	1.3
=	-50.8	0.0	20.0	1.3
=	-50.6	0.0	20.0	1.3
=	-50.3	0.0	20.0	1.3
=	-50.1	0.0	20.0	1.3
=	-49.9	0.0	20.0	1.3
=	-49.6	0.0	20.0	1.3
=	-49.4	0.0	20.0	1.3
=	-49.2	0.0	20.0	1.3
=	-49.0	0.0	20.0	1.3
=	-48.7	0.0	20.0	1.4
=	-48.6	0.0	20.0	1.4
=	-48.3	0.0	20.0	1.4
=	-48.2	0.0	20.0	1.4
=	-47.9	0.0	20.0	1.4
=	-47.8	0.0	20.0	1.4
=	-47.5	0.0	20.0	1.4
=	-47.4	0.0	20.0	1.4
=	-47.1	0.0	20.0	1.4
=	-46.9	0.0	20.0	1.4
=	-46.7	0.0	20.0	1.4
=	-46.5	0.0	20.0	1.4
=	-46.3	0.0	20.0	1.4
=	-46.2	0.0	20.0	1.5
=	-45.9	0.0	20.0	1.5
=	-45.7	0.0	20.0	1.5
=	-45.5	0.0	20.0	1.5
=	-45.3	0.0	20.0	1.5
=	-45.1	0.0	20.0	1.5
=	-44.9	0.0	20.0	1.5
=	-44.7	0.0	20.0	1.5
=	-44.5	0.0	20.0	1.5
=	-44.3	0.0	20.0	1.5
=	-44.1	0.0	20.0	1.5
=	-43.8	0.0	20.0	1.5
=	-43.6	0.0	20.0	1.6
=	-43.4	0.0	20.0	1.6
=	-43.2	0.0	20.0	1.6
=	-43.0	0.0	20.0	1.6
=	-42.9	0.0	20.0	1.6
=	-42.7	0.0	20.0	1.6
=	-42.4	0.0	20.0	1.6
=	-42.2	0.0	20.0	1.6
=	-42.0	0.0	20.0	1.7
=	-41.8	0.0	20.0	1.7
=	-41.7	0.0	20.0	1.7
=	-41.4	0.0	20.0	1.7
=	-41.2	0.0	20.0	1.7
=	-41.0	0.0	20.0	1.7
=	-40.8	0.0	20.0	1.7
=	-40.7	0.0	20.0	1.7
=	-40.4	0.0	20.0	1.7
=	-40.2	0.0	20.0	1.7
=	-40.0	0.0	20.0	1.8
=	-39.8	0.0	20.0	1.8
=	-39.7	0.0	20.0	1.8
=	-39.5	0.0	20.0	1.8
=	-39.4	0.0	20.0	1.8
=	-39.2	0.0	20.0	1.8
=	-39.1	0.0	20.0	1.8
=	-39.0	0.0	20.0	1.8
=	-38.7	0.0	20.0	1.9
=	-38.5	0.0	20.0	1.9
=	-38.3	0.0	20.0	1.9
=	-38.1	0.0	20.0	1.9
=	-37.9	0.0	20.0	1.9
=	-37.7	0.0	20.0	1.9
=	-37.5	0.0	20.0	1.9
=	-37.3	0.0	20.0	2.0
=	-37.1	0.0	20.0	2.0
=	-36.9	0.0	20.0	2.0
=	-36.8	0.0	20.0	2.0
=	-36.6	0.0	20.0	2.0
=	-36.5	0.0	20.0	2.0
=	-36.3	0.0	20.0	2.0
=	-36.2	0.0	20.0	2.1
=	-35.8	0.0	20.0	2.1
=	-35.7	0.0	20.0	2.1
=	-35.4	0.0	20.0	2.2
=	-35.0	0.0	20.0	2.2
=	-34.8	0.0	20.0	2.3
=	-34.6	0.0	20.0	2.3
=	-34.3	0.0	20.0	2.4
=	-34.1	0.0	20.0	2.4
=	-33.8	0.0	20.0	2.4
=	-33.7	0.0	20.0	2.4
=	-33.3	0.0	20.0	2.5
=	-32.9	0.0	20.0	2.6
=	-32.8	0.0	20.0	2.6
=	-32.5	0.0	20.0	2.7
=	-32.3	0.0	20.0	2.7
=	-32.1	0.0	20.0	2.7
=	-31.8	0.0	20.0	2.8
=	-31.6	0.0	20.0	2.9
=	-31.3	0.0	20.0	3.0
=	-30.9	0.0	20.0	3.1
=	-30.8	0.0	20.0	3.1
=	-30.5	0.0	20.0	3.3
=	-30.3	0.0	20.0	3.3
=	-30.1	0.0	20.0	3.4
=	-29.8	0.0	20.0	3.5
=	-29.6	0.0	20.0	3.6
=	-29.3	0.0	20.0	3.8
=	-28.8	0.0	20.0	4.1
=	-28.4	0.0	20.0	4.4
=	-28.2	0.0	20.0	4.6
=	-28.0	0.0	20.0	4.8
=	-27.9	0.0	20.0	4.9
=	-27.7	0.0	20.0	5.0
=	-27.6	0.0	20.0	5.2
=	-27.3	0.0	20.0	5.5
=	-27.2	0.0	20.0	5.6
=	-26.9	0.0	20.0	6.0
=	-26.7	0.0	20.0	6.2
=	-26.6	0.0	20.0	6.3
=	-26.4	0.0	20.0	6.6
=	-26.3	0.0	20.0	6.8
=	-26.2	0.0	20.0	7.1
=	-26.0	0.0	20.0	7.3
=	-25.9	0.0	20.0	7.5
=	-25.7	0.0	20.0	8.0
=	-25.5	0.0	20.0	8.4
=	-25.3	0.0	20.0	9.0
=	-25.1	0.0	20.0	9.6
=	-24.9	0.0	20.0	10.2
=	-24.7	0.0	20.0	10.8
=	-24.4	0.0	20.0	11.8
=	-24.2	0.0	20.0	12.5
=	-24.0	0.0	20.0	13.7
=	-23.8	0.0	20.0	14.6
=	-23.7	0.0	20.0	15.2
=	-23.4	0.0	20.0	17.0
=	-23.2	0.0	20.0	18.2
=	-23.0	0.0	20.0	19.9
=	-22.8	0.0	20.0	21.5
=	-22.7	0.0	20.0	22.4
=	-22.4	0.0	20.0	25.0
=	-22.2	0.0	20.0	26.7
=	-22.0	0.0	20.0	28.9
=	-21.8	0.0	20.0	31.4
=	-21.6	0.0	20.0	32.8
=	-21.3	0.0	20.0	35.9
=	-21.2	0.0	20.0	37.3
=	-21.0	0.0	20.0	40.2
=	-20.8	0.0	20.0	42.2
=	-20.6	0.0	20.0	44.0
=	-20.4	0.0	20.0	46.5
=	-20.2	0.0	20.0	49.0
=	-20.0	0.0	20.0	51.3
=	-19.7	0.0	20.0	55.3
=	-19.2	0.0	20.0	61.3
=	-18.8	0.0	20.0	66.6
=	-18.4	0.0	20.0	71.3
=	-18.2	0.0	20.0	73.1
=	-18.0	0.0	20.0	75.0
=	-17.7	0.0	20.0	77.9
=	-17.6	0.0	20.0	79.2
=	-17.4	0.0	20.0	80.7
=	-17.2	0.0	20.0	83.1
=	-17.1	0.0	20.0	84.2
=	-16.8	0.0	20.0	86.6
=	-16.7	0.0	20.0	87.6
=	-16.4	0.0	20.0	89.4
=	-16.3	0.0	20.0	90.1
=	-16.1	0.0	20.0	91.1
=	-16.0	0.0	20.0	91.8
=	-15.9	0.0	20.0	92.3
=	-15.6	0.0	20.0	93.5
=	-15.4	0.0	20.0	94.2
=	-15.1	0.0	20.0	95.5
=	-15.0	0.0	20.0	96.0
=	-14.6	0.0	20.0	96.9
=	-14.4	0.0	20.0	97.4
=	-14.2	0.0	20.0	98.0
=	-14.0	0.0	20.0	98.6
=	-13.8	0.0	20.0	98.9
=	-13.6	0.0	20.0	99.2
=	-13.4	0.0	20.0	99.3
=	-13.1	0.0	20.0	99.7
=	-12.9	0.0	20.0	99.9
=	-12.6	0.0	20.0	100.4
=	-12.5	0.0	20.0	100.5
=	-12.2	0.0	20.0	100.8
=	-12.0	0.0	20.0	100.9
=	-11.7	0.0	20.0	101.0
=	-11.6	0.0	20.0	101.0
=	-11.5	0.0	20.0	101.1
=	-11.4	0.0	20.0	101.1
=	-11.1	0.0	20.0	101.2
=	-11.0	0.0	20.0	101.2
=	-10.7	0.0	20.0	101.3
=	-10.5	0.0	20.0	101.3
=	-10.3	0.0	20.0	101.3
=	-10.2	0.0	20.0	101.4
=	-9.9	0.0	20.0	101.4
=	-9.8	0.0	20.0	101.4
=	-9.5	0.0	20.0	101.4
=	-9.1	0.0	20.0	101.5
=	-8.9	0.0	20.0	101.5
=	-8.7	0.0	20.0	101.5
=	-8.6	0.0	20.0	101.5
=	-8.3	0.0	20.0	101.5
=	-8.1	0.0	20.0	101.5
=	-8.0	0.0	20.0	101.5
=	-7.7	0.0	20.0	101.5
=	-7.6	0.0	20.0	101.5
=	-7.4	0.0	20.0	101.5
=	-7.1	0.0	20.0	101.4
=	-6.9	0.0	20.0	101.4
=	-6.7	0.0	20.0	101.4
=	-6.6	0.0	20.0	101.4
=	-6.3	0.0	20.0	101.4
=	-6.1	0.0	20.0	101.4
=	-5.9	0.0	20.0	101.4
=	-5.7	0.0	20.0	101.3
=	-5.5	0.0	20.0	101.3
=	-5.2	0.0	20.0	101.3
=	-5.1	0.0	20.0	101.3
=	-4.8	0.0	20.0	101.2
=	-4.6	0.0	20.0	101.2
=	-4.5	0.0	20.0	101.2
=	-4.2	0.0	20.0	101.1
=	-4.1	0.0	20.0	101.1
=	-3.8	0.0	20.0	101.0
=	-3.5	0.0	20.0	100.9
=	-3.4	0.0	20.0	100.9
=	-3.2	0.0	20.0	100.9
=	-3.0	0.0	20.0	100.8
=	-2.8	0.0	20.0	100.8
=	-2.6	0.0	20.0	100.7
=	-2.4	0.0	20.0	100.7
=	-2.1	0.0	20.0	100.6
=	-2.0	0.0	20.0	100.6
=	-1.7	0.0	20.0	100.5
=	-1.6	0.0	20.0	100.4
=	-1.5	0.0	20.0	100.4
=	-1.3	0.0	20.0	100.4
=	-1.2	0.0	20.0	100.3
=	-1.0	0.0	20.0	100.3
=	-0.8	0.0	20.0	100.2
=	-0.5	0.0	20.0	100.2
=	0.0	0.0	20.0	100.0
=	0.4	0.0	20.0	100.0
=	0.5	0.0	20.0	99.9
=	0.8	0.0	20.0	99.9
=	1.0	0.0	20.0	99.9
=	1.2	0.0	20.0	99.9
=	1.5	0.0	20.0	99.8
=	2.0	0.0	20.0	99.7
=	2.4	0.0	20.0	99.6
=	2.6	0.0	20.0	99.6
=	2.8	0.0	20.0	99.5
=	3.1	0.0	20.0	99.4
=	3.2	0.0	20.0	99.4
=	3.6	0.0	20.0	99.3
=	4.0	0.0	20.0	99.1
=	4.5	0.0	20.0	98.9
=	4.6	0.0	20.0	98.8
=	4.8	0.0	20.0	98.7
=	5.1	0.0	20.0	98.6
=	5.3	0.0	20.0	98.5
=	5.6	0.0	20.0	98.4
=	5.7	0.0	20.0	98.4
=	6.1	0.0	20.0	98.3
=	6.5	0.0	20.0	98.2
=	6.6	0.0	20.0	98.2
=	6.9	0.0	20.0	98.1
=	7.1	0.0	20.0	98.0
=	7.3	0.0	20.0	98.0
=	7.6	0.0	20.0	97.9
=	7.7	0.0	20.0	97.9
=	8.1	0.0	20.0	97.7
=	8.5	0.0	20.0	97.6
=	8.9	0.0	20.0	97.3
=	9.1	0.0	20.0	97.1
=	9.3	0.0	20.0	96.9
=	9.6	0.0	20.0	96.8
=	9.8	0.0	20.0	96.8
=	10.1	0.0	20.0	96.6
=	10.6	0.0	20.0	96.3
=	10.9	0.0	20.0	96.0
=	11.2	0.0	20.0	95.7
=	11.3	0.0	20.0	95.6
=	11.7	0.0	20.0	95.3
=	11.8	0.0	20.0	95.1
=	12.1	0.0	20.0	94.8
=	12.2	0.0	20.0	94.6
=	12.5	0.0	20.0	94.3
=	12.6	0.0	20.0	94.2
=	12.9	0.0	20.0	93.9
=	13.1	0.0	20.0	93.6
=	13.3	0.0	20.0	93.2
=	13.5	0.0	20.0	92.9
=	13.6	0.0	20.0	92.6
=	13.8	0.0	20.0	92.3
=	14.2	0.0	20.0	91.5
=	14.3	0.0	20.0	91.1
=	14.7	0.0	20.0	90.1
=	14.8	0.0	20.0	89.7
=	15.1	0.0	20.0	88.9
=	15.2	0.0	20.0	88.5
=	15.5	0.0	20.0	87.2
=	15.7	0.0	20.0	86.6
=	16.0	0.0	20.0	85.1
=	16.1	0.0	20.0	84.3
=	16.4	0.0	20.0	82.9
=	16.5	0.0	20.0	82.1
=	16.6	0.0	20.0	80.9
=	16.7	0.0	20.0	80.1
=	16.9	0.0	20.0	79.2
=	17.2	0.0	20.0	76.9
=	17.6	0.0	20.0	73.2
=	18.0	0.0	20.0	69.5
=	18.1	0.0	20.0	68.2
=	18.4	0.0	20.0	65.4
=	18.6	0.0	20.0	63.0
=	18.8	0.0	20.0	60.9
=	19.1	0.0	20.0	58.1
=	19.2	0.0	20.0	56.3
=	19.6	0.0	20.0	52.4
=	20.0	0.0	20.0	47.2
=	20.4	0.0	20.0	42.5
=	20.5	0.0	20.0	41.3
=	20.8	0.0	20.0	37.9
=	21.1	0.0	20.0	35.7
=	21.2	0.0	20.0	33.9
=	21.5	0.0	20.0	30.5
=	21.7	0.0	20.0	29.0
=	22.0	0.0	20.0	26.5
=	22.1	0.0	20.0	25.5
=	22.5	0.0	20.0	22.3
=	22.9	0.0	20.0	19.0
=	23.3	0.0	20.0	16.3
=	23.4	0.0	20.0	15.7
=	23.7	0.0	20.0	13.9
=	23.9	0.0	20.0	12.9
=	24.1	0.0	20.0	12.0
=	24.4	0.0	20.0	10.8
=	24.5	0.0	20.0	10.4
=	24.9	0.0	20.0	9.3
=	25.1	0.0	20.0	8.7
=	25.3	0.0	20.0	8.1
=	25.4	0.0	20.0	7.9
=	25.7	0.0	20.0	7.2
=	25.9	0.0	20.0	6.8
=	26.2	0.0	20.0	6.4
=	26.4	0.0	20.0	6.1
=	26.6	0.0	20.0	5.9
=	27.0	0.0	20.0	5.4
=	27.4	0.0	20.0	4.9
=	27.8	0.0	20.0	4.6
=	27.9	0.0	20.0	4.4
=	28.2	0.0	20.0	4.2
=	28.4	0.0	20.0	4.0
=	28.6	0.0	20.0	4.0
=	28.9	0.0	20.0	3.7
=	29.4	0.0	20.0	3.5
=	29.8	0.0	20.0	3.3
=	30.0	0.0	20.0	3.2
=	30.2	0.0	20.0	3.1
=	30.4	0.0	20.0	3.0
=	30.6	0.0	20.0	2.9
=	31.0	0.0	20.0	2.8
=	31.4	0.0	20.0	2.7
=	31.9	0.0	20.0	2.6
=	32.0	0.0	20.0	2.5
=	32.3	0.0	20.0	2.5
=	32.5	0.0	20.0	2.4
=	32.7	0.0	20.0	2.4
=	33.0	0.0	20.0	2.3
=	33.1	0.0	20.0	2.3
=	33.5	0.0	20.0	2.3
=	33.9	0.0	20.0	2.2
=	34.0	0.0	20.0	2.2
=	34.3	0.0	20.0	2.1
=	34.5	0.0	20.0	2.1
=	34.7	0.0	20.0	2.1
=	35.1	0.0	20.0	2.0
=	35.2	0.0	20.0	2.0
=	35.5	0.0	20.0	2.0
=	36.0	0.0	20.0	1.9
=	36.4	0.0	20.0	1.9
=	36.6	0.0	20.0	1.9
=	36.8	0.0	20.0	1.9
=	37.1	0.0	20.0	1.8
=	37.2	0.0	20.0	1.8
=	37.5	0.0	20.0	1.8
=	37.6	0.0	20.0	1.8
=	37.9	0.0	20.0	1.7
=	38.0	0.0	20.0	1.7
=	38.4	0.0	20.0	1.7
=	38.8	0.0	20.0	1.7
=	39.0	0.0	20.0	1.7
=	39.2	0.0	20.0	1.7
=	39.5	0.0	20.0	1.6
=	39.6	0.0	20.0	1.6
=	40.0	0.0	20.0	1.6
=	40.4	0.0	20.0	1.6
=	40.8	0.0	20.0	1.5
=	41.0	0.0	20.0	1.5
=	41.2	0.0	20.0	1.5
=	41.3	0.0	20.0	1.5
=	41.5	0.0	20.0	1.5
=	41.6	0.0	20.0	1.5
=	42.0	0.0	20.0	1.5
=	42.1	0.0	20.0	1.5
=	42.4	0.0	20.0	1.5
=	42.5	0.0	20.0	1.5
=	42.8	0.0	20.0	1.4
=	42.9	0.0	20.0	1.4
=	43.2	0.0	20.0	1.4
=	43.3	0.0	20.0	1.4
=	43.5	0.0	20.0	1.4
=	43.6	0.0	20.0	1.4
=	43.8	0.0	20.0	1.4
=	44.0	0.0	20.0	1.4
=	44.1	0.0	20.0	1.4
=	44.4	0.0	20.0	1.4
=	44.6	0.0	20.0	1.4
=	44.9	0.0	20.0	1.4
=	45.0	0.0	20.0	1.4
=	45.3	0.0	20.0	1.4
=	45.4	0.0	20.0	1.4
=	45.5	0.0	20.0	1.3
=	45.7	0.0	20.0	1.3
=	45.8	0.0	20.0	1.3
=	46.0	0.0	20.0	1.3
=	46.2	0.0	20.0	1.3
=	46.5	0.0	20.0	1.3
=	46.6	0.0	20.0	1.3
=	46.9	0.0	20.0	1.3
=	47.0	0.0	20.0	1.3
=	47.3	0.0	20.0	1.3
=	47.5	0.0	20.0	1.3
=	47.7	0.0	20.0	1.3
=	47.9	0.0	20.0	1.3
=	48.0	0.0	20.0	1.3
=	48.3	0.0	20.0	1.2
=	48.5	0.0	20.0	1.2
=	48.7	0.0	20.0	1.2
=	48.9	0.0	20.0	1.2
=	49.1	0.0	20.0	1.2
=	49.4	0.0	20.0	1.2
=	49.5	0.0	20.0	1.2
=	49.7	0.0	20.0	1.2
=	49.9	0.0	20.0	1.2
=	50.1	0.0	20.0	1.2
=	50.3	0.0	20.0	1.2
=	50.5	0.0	20.0	1.2
=	50.7	0.0	20.0	1.2
=	51.0	0.0	20.0	1.2
=	51.2	0.0	20.0	1.2
=	51.3	0.0	20.0	1.2
=	51.5	0.0	20.0	1.1
=	51.7	0.0	20.0	1.1
=	52.0	0.0	20.0	1.1
=	52.2	0.0	20.0	1.1
=	52.4	0.0	20.0	1.1
=	52.5	0.0	20.0	1.1
=	52.8	0.0	20.0	1.1
=	53.0	0.0	20.0	1.1
=	53.2	0.0	20.0	1.1
=	53.4	0.0	20.0	1.1
=	53.6	0.0	20.0	1.1
=	53.8	0.0	20.0	1.1
=	54.0	0.0	20.0	1.1
=	54.2	0.0	20.0	1.1
=	54.4	0.0	20.0	1.1
=	54.6	0.0	20.0	1.1
=	55.0	0.0	20.0	1.1
=	55.1	0.0	20.0	1.1
=	55.4	0.0	20.0	1.1
=	55.6	0.0	20.0	1.0
=	55.8	0.0	20.0	1.0
=	56.0	0.0	20.0	1.0
=	56.1	0.0	20.0	1.0
=	56.2	0.0	20.0	1.0
=	56.5	0.0	20.0	1.0
=	56.7	0.0	20.0	1.0
=	57.0	0.0	20.0	1.0
=	57.2	0.0	20.0	1.0
=	57.4	0.0	20.0	1.0
=	57.6	0.0	20.0	1.0
=	57.7	0.0	20.0	1.0
=	57.8	0.0	20.0	1.0
=	58.1	0.0	20.0	1.0
=	58.2	0.0	20.0	1.0
=	58.5	0.0	20.0	1.0
=	58.6	0.0	20.0	1.0
=	59.0	0.0	20.0	1.0
=	59.5	0.0	20.0	1.0
=	59.8	0.0	20.0	1.0
=	60.0	0.0	20.0	1.0
=	60.3	0.0	20.0	1.0
=	60.5	0.0	20.0	1.0
=	60.7	0.0	20.0	1.0
=	61.0	0.0	20.0	1.0
=	61.1	0.0	20.0	1.0
=	61.4	0.0	20.0	1.0
=	61.5	0.0	20.0	1.0
=	61.8	0.0	20.0	1.0
=	61.9	0.0	20.0	1.0
=	62.1	0.0	20.0	1.0
=	62.3	0.0	20.0	1.0
=	62.5	0.0	20.0	1.0
=	62.7	0.0	20.0	1.0
=	62.9	0.0	20.0	1.0
=	63.1	0.0	20.0	1.0
=	63.3	0.0	20.0	1.0
=	63.5	0.0	20.0	1.0
=	63.7	0.0	20.0	0.9
=	64.0	0.0	20.0	0.9
=	64.1	0.0	20.0	0.9
=	64.3	0.0	20.0	0.9
=	64.5	0.0	20.0	0.9
=	64.8	0.0	20.0	0.9
=	65.0	0.0	20.0	0.9
=	65.2	0.0	20.0	0.9
=	65.4	0.0	20.0	0.9
=	65.6	0.0	20.0	0.9
=	65.8	0.0	20.0	0.9
=	66.0	0.0	20.0	0.9
=	66.2	0.0	20.0	0.9
=	66.4	0.0	20.0	0.9
=	66.6	0.0	20.0	0.9
=	66.9	0.0	20.0	0.9
=	67.0	0.0	20.0	0.9
=	67.4	0.0	20.0	0.9
=	67.8	0.0	20.0	0.9
=	67.9	0.0	20.0	0.9
=	68.2	0.0	20.0	0.9
=	68.4	0.0	20.0	0.9
=	68.7	0.0	20.0	0.9
=	68.9	0.0	20.0	0.9
=	69.1	0.0	20.0	0.9
=	69.3	0.0	20.0	0.9
=	69.4	0.0	20.0	0.9
=	69.9	0.0	20.0	0.9
=	70.3	0.0	20.0	0.9
:EOM # End of Measurement
#
# RFA300 ASCII Measurement Dump ( BDS format )
#
# Measurement number 	2
#
%VNR 1.0
%MOD 	RAT
%TYP 	SCN
%SCN 	PRO
%FLD 	ION
%DAT 	02-02-2012
%TIM 	12:00:00
%FSZ 	040	040
%BMT 	PHO	   8.0
%SSD 	1000
%BUP 	0
%BRD 	1000
%FSH 	1
%ASC 	0
%WEG 	30
%GPO 	0
%CPO 	0
%MEA 	6
%PRD 	50,0
%PTS 	655
%STS 	    -70.8	  0.0	   50.0 # Start Scan values in mm ( X , Y , Z )
%EDS 	    71.0	   0.0	   50.0 # End Scan values in mm ( X , Y , Z )
#
#	  X      Y      Z     Dose
#
=	-70.8	0.0	50.0	1.0
=	-70.6	0.0	50.0	1.1
=	-70.4	0.0	50.0	1.1
=	-70.1	0.0	50.0	1.1
=	-69.9	0.0	50.0	1.1
=	-69.6	0.0	50.0	1.1
=	-69.3	0.0	50.0	1.1
=	-69.1	0.0	50.0	1.1
=	-69.0	0.0	50.0	1.1
=	-68.8	0.0	50.0	1.1
=	-68.7	0.0	50.0	1.1
=	-68.5	0.0	50.0	1.1
=	-68.4	0.0	50.0	1.1
=	-68.1	0.0	50.0	1.1
=	-67.9	0.0	50.0	1.1
=	-67.6	0.0	50.0	1.1
=	-67.5	0.0	50.0	1.1
=	-67.3	0.0	50.0	1.1
=	-67.1	0.0	50.0	1.1
=	-66.9	0.0	50.0	1.1
=	-66.7	0.0	50.0	1.1
=	-66.2	0.0	50.0	1.1
=	-66.1	0.0	50.0	1.1
=	-65.8	0.0	50.0	1.1
=	-65.6	0.0	50.0	1.1
=	-65.5	0.0	50.0	1.1
=	-65.4	0.0	50.0	1.1
=	-65.1	0.0	50.0	1.1
=	-64.9	0.0	50.0	1.1
=	-64.6	0.0	50.0	1.1
=	-64.5	0.0	50.0	1.1
=	-64.2	0.0	50.0	1.1
=	-64.1	0.0	50.0	1.1
=	-63.8	0.0	50.0	1.1
=	-63.6	0.0	50.0	1.1
=	-63.4	0.0	50.0	1.1
=	-63.1	0.0	50.0	1.1
=	-63.0	0.0	50.0	1.1
=	-62.6	0.0	50.0	1.1
=	-62.5	0.0	50.0	1.1
=	-62.1	0.0	50.0	1.1
=	-61.8	0.0	50.0	1.2
=	-61.6	0.0	50.0	1.2
=	-61.3	0.0	50.0	1.2
=	-61.1	0.0	50.0	1.2
=	-60.9	0.0	50.0	1.2
=	-60.6	0.0	50.0	1.2
=	-60.5	0.0	50.0	1.2
=	-60.1	0.0	50.0	1.2
=	-60.0	0.0	50.0	1.2
=	-59.7	0.0	50.0	1.2
=	-59.3	0.0	50.0	1.2
=	-59.1	0.0	50.0	1.2
=	-58.9	0.0	50.0	1.2
=	-58.6	0.0	50.0	1.2
=	-58.4	0.0	50.0	1.2
=	-58.1	0.0	50.0	1.2
=	-58.0	0.0	50.0	1.2
=	-57.6	0.0	50.0	1.2
=	-57.2	0.0	50.0	1.3
=	-56.8	0.0	50.0	1.3
=	-56.6	0.0	50.0	1.3
=	-56.4	0.0	50.0	1.3
=	-56.1	0.0	50.0	1.3
=	-56.0	0.0	50.0	1.3
=	-55.6	0.0	50.0	1.3
=	-55.5	0.0	50.0	1.3
=	-55.2	0.0	50.0	1.3
=	-54.8	0.0	50.0	1.3
=	-54.6	0.0	50.0	1.3
=	-54.3	0.0	50.0	1.3
=	-54.2	0.0	50.0	1.4
=	-53.9	0.0	50.0	1.4
=	-53.7	0.0	50.0	1.4
=	-53.5	0.0	50.0	1.4
=	-53.4	0.0	50.0	1.4
=	-53.2	0.0	50.0	1.4
=	-53.0	0.0	50.0	1.4
=	-52.7	0.0	50.0	1.4
=	-52.6	0.0	50.0	1.4
=	-52.3	0.0	50.0	1.4
=	-52.2	0.0	50.0	1.4
=	-51.9	0.0	50.0	1.4
=	-51.6	0.0	50.0	1.4
=	-51.4	0.0	50.0	1.4
=	-51.1	0.0	50.0	1.4
=	-51.0	0.0	50.0	1.4
=	-50.7	0.0	50.0	1.5
=	-50.6	0.0	50.0	1.5
=	-50.3	0.0	50.0	1.5
=	-49.9	0.0	50.0	1.5
=	-49.7	0.0	50.0	1.5
=	-49.5	0.0	50.0	1.5
=	-49.3	0.0	50.0	1.5
=	-49.1	0.0	50.0	1.6
=	-48.9	0.0	50.0	1.6
=	-48.7	0.0	50.0	1.6
=	-48.5	0.0	50.0	1.6
=	-48.3	0.0	50.0	1.6
=	-48.2	0.0	50.0	1.6
=	-48.1	0.0	50.0	1.6
=	-47.9	0.0	50.0	1.6
=	-47.7	0.0	50.0	1.6
=	-47.4	0.0	50.0	1.6
=	-47.3	0.0	50.0	1.6
=	-47.0	0.0	50.0	1.6
=	-46.8	0.0	50.0	1.7
=	-46.7	0.0	50.0	1.7
=	-46.4	0.0	50.0	1.7
=	-46.2	0.0	50.0	1.7
=	-46.0	0.0	50.0	1.7
=	-45.8	0.0	50.0	1.7
=	-45.6	0.0	50.0	1.7
=	-45.4	0.0	50.0	1.7
=	-45.2	0.0	50.0	1.7
=	-45.0	0.0	50.0	1.8
=	-44.8	0.0	50.0	1.8
=	-44.7	0.0	50.0	1.8
=	-44.4	0.0	50.0	1.8
=	-44.2	0.0	50.0	1.8
=	-44.0	0.0	50.0	1.8
=	-43.8	0.0	50.0	1.8
=	-43.6	0.0	50.0	1.9
=	-43.4	0.0	50.0	1.9
=	-43.2	0.0	50.0	1.9
=	-43.0	0.0	50.0	1.9
=	-42.8	0.0	50.0	1.9
=	-42.7	0.0	50.0	1.9
=	-42.4	0.0	50.0	2.0
=	-42.2	0.0	50.0	2.0
=	-42.0	0.0	50.0	2.0
=	-41.8	0.0	50.0	2.0
=	-41.5	0.0	50.0	2.0
=	-41.4	0.0	50.0	2.0
=	-41.1	0.0	50.0	2.1
=	-40.9	0.0	50.0	2.1
=	-40.7	0.0	50.0	2.1
=	-40.6	0.0	50.0	2.1
=	-40.3	0.0	50.0	2.1
=	-40.1	0.0	50.0	2.1
=	-39.9	0.0	50.0	2.2
=	-39.7	0.0	50.0	2.2
=	-39.6	0.0	50.0	2.2
=	-39.3	0.0	50.0	2.2
=	-39.1	0.0	50.0	2.3
=	-38.9	0.0	50.0	2.3
=	-38.7	0.0	50.0	2.3
=	-38.6	0.0	50.0	2.3
=	-38.3	0.0	50.0	2.3
=	-38.1	0.0	50.0	2.4
=	-37.9	0.0	50.0	2.4
=	-37.7	0.0	50.0	2.4
=	-37.6	0.0	50.0	2.4
=	-37.3	0.0	50.0	2.5
=	-37.1	0.0	50.0	2.5
=	-36.9	0.0	50.0	2.5
=	-36.6	0.0	50.0	2.6
=	-36.5	0.0	50.0	2.6
=	-36.2	0.0	50.0	2.6
=	-36.1	0.0	50.0	2.7
=	-35.8	0.0	50.0	2.7
=	-35.6	0.0	50.0	2.8
=	-35.5	0.0	50.0	2.8
=	-35.2	0.0	50.0	2.8
=	-35.0	0.0	50.0	2.8
=	-34.8	0.0	50.0	2.9
=	-34.5	0.0	50.0	2.9
=	-34.4	0.0	50.0	3.0
=	-34.1	0.0	50.0	3.0
=	-34.0	0.0	50.0	3.1
=	-33.7	0.0	50.0	3.2
=	-33.6	0.0	50.0	3.2
=	-33.5	0.0	50.0	3.3
=	-33.4	0.0	50.0	3.3
=	-33.2	0.0	50.0	3.4
=	-33.0	0.0	50.0	3.4
=	-32.8	0.0	50.0	3.4
=	-32.6	0.0	50.0	3.5
=	-32.5	0.0	50.0	3.5
=	-32.3	0.0	50.0	3.6
=	-32.2	0.0	50.0	3.6
=	-32.0	0.0	50.0	3.7
=	-31.8	0.0	50.0	3.7
=	-31.5	0.0	50.0	3.8
=	-31.4	0.0	50.0	3.9
=	-31.1	0.0	50.0	4.1
=	-31.0	0.0	50.0	4.1
=	-30.7	0.0	50.0	4.3
=	-30.6	0.0	50.0	4.4
=	-30.5	0.0	50.0	4.4
=	-30.3	0.0	50.0	4.5
=	-30.2	0.0	50.0	4.6
=	-30.0	0.0	50.0	4.8
=	-29.8	0.0	50.0	4.9
=	-29.5	0.0	50.0	5.0
=	-29.4	0.0	50.0	5.1
=	-29.1	0.0	50.0	5.3
=	-29.0	0.0	50.0	5.4
=	-28.7	0.0	50.0	5.7
=	-28.5	0.0	50.0	6.0
=	-28.3	0.0	50.0	6.2
=	-28.0	0.0	50.0	6.5
=	-27.9	0.0	50.0	6.7
=	-27.5	0.0	50.0	7.2
=	-27.4	0.0	50.0	7.4
=	-27.0	0.0	50.0	7.9
=	-26.8	0.0	50.0	8.3
=	-26.7	0.0	50.0	8.6
=	-26.5	0.0	50.0	8.9
=	-26.3	0.0	50.0	9.4
=	-26.0	0.0	50.0	10.1
=	-25.9	0.0	50.0	10.5
=	-25.7	0.0	50.0	10.8
=	-25.5	0.0	50.0	11.6
=	-25.3	0.0	50.0	12.4
=	-25.1	0.0	50.0	13.2
=	-24.8	0.0	50.0	14.1
=	-24.6	0.0	50.0	15.1
=	-24.5	0.0	50.0	16.0
=	-24.2	0.0	50.0	17.3
=	-24.1	0.0	50.0	18.2
=	-23.8	0.0	50.0	19.8
=	-23.7	0.0	50.0	20.9
=	-23.4	0.0	50.0	22.6
=	-23.2	0.0	50.0	24.1
=	-23.1	0.0	50.0	25.6
=	-22.9	0.0	50.0	27.3
=	-22.6	0.0	50.0	30.1
=	-22.5	0.0	50.0	31.2
=	-22.2	0.0	50.0	33.9
=	-22.1	0.0	50.0	35.2
=	-21.8	0.0	50.0	38.2
=	-21.6	0.0	50.0	40.0
=	-21.4	0.0	50.0	42.8
=	-21.2	0.0	50.0	44.9
=	-21.1	0.0	50.0	46.4
=	-20.8	0.0	50.0	49.0
=	-20.6	0.0	50.0	52.0
=	-20.5	0.0	50.0	53.2
=	-20.1	0.0	50.0	57.2
=	-19.7	0.0	50.0	62.0
=	-19.6	0.0	50.0	64.2
=	-19.3	0.0	50.0	67.1
=	-19.1	0.0	50.0	69.5
=	-18.9	0.0	50.0	71.2
=	-18.8	0.0	50.0	72.2
=	-18.6	0.0	50.0	74.3
=	-18.2	0.0	50.0	77.4
=	-18.1	0.0	50.0	78.5
=	-17.8	0.0	50.0	81.1
=	-17.7	0.0	50.0	82.1
=	-17.6	0.0	50.0	83.2
=	-17.4	0.0	50.0	84.4
=	-17.3	0.0	50.0	85.4
=	-17.1	0.0	50.0	86.9
=	-16.9	0.0	50.0	88.3
=	-16.7	0.0	50.0	89.6
=	-16.5	0.0	50.0	90.4
=	-16.2	0.0	50.0	91.8
=	-15.8	0.0	50.0	93.5
=	-15.7	0.0	50.0	94.1
=	-15.4	0.0	50.0	95.0
=	-15.3	0.0	50.0	95.4
=	-15.0	0.0	50.0	96.0
=	-14.9	0.0	50.0	96.4
=	-14.7	0.0	50.0	97.0
=	-14.5	0.0	50.0	97.3
=	-14.2	0.0	50.0	97.6
=	-14.1	0.0	50.0	97.9
=	-13.8	0.0	50.0	98.3
=	-13.7	0.0	50.0	98.6
=	-13.4	0.0	50.0	99.0
=	-13.3	0.0	50.0	99.2
=	-13.1	0.0	50.0	99.4
=	-13.0	0.0	50.0	99.5
=	-12.9	0.0	50.0	99.5
=	-12.6	0.0	50.0	99.7
=	-12.5	0.0	50.0	99.8
=	-12.2	0.0	50.0	100.0
=	-12.0	0.0	50.0	100.1
=	-11.8	0.0	50.0	100.2
=	-11.6	0.0	50.0	100.3
=	-11.4	0.0	50.0	100.5
=	-11.2	0.0	50.0	100.6
=	-11.1	0.0	50.0	100.7
=	-11.0	0.0	50.0	100.8
=	-10.8	0.0	50.0	100.9
=	-10.7	0.0	50.0	100.9
=	-10.5	0.0	50.0	100.9
=	-10.4	0.0	50.0	100.9
=	-10.2	0.0	50.0	101.0
=	-10.0	0.0	50.0	101.0
=	-9.7	0.0	50.0	101.0
=	-9.6	0.0	50.0	101.0
=	-9.3	0.0	50.0	101.1
=	-9.2	0.0	50.0	101.1
=	-8.9	0.0	50.0	101.1
=	-8.8	0.0	50.0	101.1
=	-8.5	0.0	50.0	101.2
=	-8.4	0.0	50.0	101.2
=	-8.2	0.0	50.0	101.2
=	-8.1	0.0	50.0	101.2
=	-8.0	0.0	50.0	101.2
=	-7.7	0.0	50.0	101.3
=	-7.3	0.0	50.0	101.3
=	-7.1	0.0	50.0	101.3
=	-7.0	0.0	50.0	101.2
=	-6.9	0.0	50.0	101.2
=	-6.6	0.0	50.0	101.2
=	-6.4	0.0	50.0	101.2
=	-6.2	0.0	50.0	101.2
=	-6.1	0.0	50.0	101.2
=	-5.6	0.0	50.0	101.2
=	-5.2	0.0	50.0	101.2
=	-5.1	0.0	50.0	101.2
=	-4.8	0.0	50.0	101.1
=	-4.7	0.0	50.0	101.1
=	-4.5	0.0	50.0	101.1
=	-4.3	0.0	50.0	101.0
=	-4.1	0.0	50.0	101.0
=	-3.8	0.0	50.0	100.9
=	-3.6	0.0	50.0	100.9
=	-3.5	0.0	50.0	100.8
=	-3.2	0.0	50.0	100.7
=	-3.1	0.0	50.0	100.7
=	-2.8	0.0	50.0	100.7
=	-2.6	0.0	50.0	100.6
=	-2.4	0.0	50.0	100.5
=	-2.1	0.0	50.0	100.5
=	-2.0	0.0	50.0	100.4
=	-1.6	0.0	50.0	100.3
=	-1.2	0.0	50.0	100.3
=	-0.8	0.0	50.0	100.2
=	-0.5	0.0	50.0	100.2
=	-0.4	0.0	50.0	100.1
=	-0.3	0.0	50.0	100.1
=	-0.1	0.0	50.0	100.0
=	0.1	0.0	50.0	100.0
=	0.4	0.0	50.0	99.9
=	0.5	0.0	50.0	99.9
=	0.8	0.0	50.0	99.9
=	1.2	0.0	50.0	99.8
=	1.4	0.0	50.0	99.8
=	1.6	0.0	50.0	99.8
=	1.8	0.0	50.0	99.7
=	2.0	0.0	50.0	99.6
=	2.4	0.0	50.0	99.5
=	2.5	0.0	50.0	99.5
=	2.8	0.0	50.0	99.4
=	3.0	0.0	50.0	99.4
=	3.2	0.0	50.0	99.3
=	3.3	0.0	50.0	99.3
=	3.6	0.0	50.0	99.3
=	3.7	0.0	50.0	99.2
=	4.1	0.0	50.0	99.1
=	4.3	0.0	50.0	99.0
=	4.5	0.0	50.0	99.0
=	4.8	0.0	50.0	98.8
=	5.0	0.0	50.0	98.8
=	5.3	0.0	50.0	98.8
=	5.7	0.0	50.0	98.6
=	6.1	0.0	50.0	98.5
=	6.3	0.0	50.0	98.4
=	6.5	0.0	50.0	98.4
=	6.8	0.0	50.0	98.3
=	7.0	0.0	50.0	98.2
=	7.3	0.0	50.0	98.1
=	7.8	0.0	50.0	98.0
=	8.2	0.0	50.0	97.7
=	8.4	0.0	50.0	97.6
=	8.6	0.0	50.0	97.4
=	8.9	0.0	50.0	97.2
=	9.0	0.0	50.0	97.2
=	9.4	0.0	50.0	97.0
=	9.8	0.0	50.0	96.8
=	10.1	0.0	50.0	96.6
=	10.3	0.0	50.0	96.5
=	10.4	0.0	50.0	96.4
=	10.7	0.0	50.0	96.1
=	10.8	0.0	50.0	96.0
=	11.1	0.0	50.0	95.8
=	11.4	0.0	50.0	95.6
=	11.5	0.0	50.0	95.4
=	11.8	0.0	50.0	95.2
=	12.3	0.0	50.0	94.8
=	12.7	0.0	50.0	94.3
=	12.8	0.0	50.0	94.2
=	13.1	0.0	50.0	93.6
=	13.4	0.0	50.0	93.1
=	13.5	0.0	50.0	93.0
=	13.9	0.0	50.0	92.4
=	14.3	0.0	50.0	91.9
=	14.4	0.0	50.0	91.6
=	14.7	0.0	50.0	90.8
=	14.9	0.0	50.0	90.3
=	15.2	0.0	50.0	89.6
=	15.4	0.0	50.0	88.7
=	15.6	0.0	50.0	88.3
=	15.9	0.0	50.0	87.1
=	16.4	0.0	50.0	85.1
=	16.7	0.0	50.0	83.2
=	16.9	0.0	50.0	82.0
=	17.2	0.0	50.0	80.7
=	17.5	0.0	50.0	78.6
=	17.9	0.0	50.0	75.1
=	18.2	0.0	50.0	72.6
=	18.4	0.0	50.0	70.9
=	18.8	0.0	50.0	67.5
=	19.0	0.0	50.0	65.8
=	19.3	0.0	50.0	62.9
=	19.5	0.0	50.0	60.4
=	19.7	0.0	50.0	58.6
=	20.0	0.0	50.0	54.9
=	20.1	0.0	50.0	53.8
=	20.5	0.0	50.0	49.9
=	20.9	0.0	50.0	45.6
=	21.0	0.0	50.0	44.2
=	21.3	0.0	50.0	41.1
=	21.5	0.0	50.0	38.9
=	21.7	0.0	50.0	37.1
=	22.0	0.0	50.0	33.8
=	22.5	0.0	50.0	29.0
=	22.9	0.0	50.0	25.4
=	23.0	0.0	50.0	24.4
=	23.3	0.0	50.0	22.5
=	23.6	0.0	50.0	20.5
=	23.7	0.0	50.0	19.3
=	24.1	0.0	50.0	17.2
=	24.5	0.0	50.0	14.8
=	24.9	0.0	50.0	13.1
=	25.1	0.0	50.0	12.5
=	25.3	0.0	50.0	11.4
=	25.5	0.0	50.0	10.8
=	25.7	0.0	50.0	10.3
=	26.0	0.0	50.0	9.5
=	26.2	0.0	50.0	9.2
=	26.5	0.0	50.0	8.4
=	26.9	0.0	50.0	7.7
=	27.0	0.0	50.0	7.5
=	27.4	0.0	50.0	7.1
=	27.5	0.0	50.0	6.9
=	27.8	0.0	50.0	6.4
=	28.0	0.0	50.0	6.2
=	28.2	0.0	50.0	5.9
=	28.4	0.0	50.0	5.8
=	28.6	0.0	50.0	5.6
=	28.8	0.0	50.0	5.4
=	29.1	0.0	50.0	5.1
=	29.3	0.0	50.0	4.9
=	29.5	0.0	50.0	4.8
=	29.7	0.0	50.0	4.7
=	29.9	0.0	50.0	4.6
=	30.0	0.0	50.0	4.5
=	30.3	0.0	50.0	4.2
=	30.5	0.0	50.0	4.1
=	30.7	0.0	50.0	4.1
=	30.9	0.0	50.0	4.0
=	31.1	0.0	50.0	3.9
=	31.3	0.0	50.0	3.8
=	31.5	0.0	50.0	3.7
=	31.7	0.0	50.0	3.6
=	31.9	0.0	50.0	3.5
=	32.1	0.0	50.0	3.4
=	32.3	0.0	50.0	3.3
=	32.5	0.0	50.0	3.3
=	32.6	0.0	50.0	3.3
=	32.7	0.0	50.0	3.2
=	32.9	0.0	50.0	3.2
=	33.1	0.0	50.0	3.2
=	33.3	0.0	50.0	3.1
=	33.5	0.0	50.0	3.0
=	33.7	0.0	50.0	2.9
=	34.0	0.0	50.0	2.9
=	34.2	0.0	50.0	2.8
=	34.4	0.0	50.0	2.8
=	34.6	0.0	50.0	2.8
=	34.8	0.0	50.0	2.7
=	35.0	0.0	50.0	2.6
=	35.1	0.0	50.0	2.6
=	35.3	0.0	50.0	2.6
=	35.6	0.0	50.0	2.5
=	35.8	0.0	50.0	2.5
=	36.0	0.0	50.0	2.5
=	36.1	0.0	50.0	2.5
=	36.4	0.0	50.0	2.4
=	36.6	0.0	50.0	2.4
=	36.9	0.0	50.0	2.4
=	37.0	0.0	50.0	2.3
=	37.1	0.0	50.0	2.3
=	37.2	0.0	50.0	2.3
=	37.4	0.0	50.0	2.3
=	37.5	0.0	50.0	2.3
=	37.6	0.0	50.0	2.3
=	37.8	0.0	50.0	2.2
=	38.0	0.0	50.0	2.2
=	38.2	0.0	50.0	2.2
=	38.5	0.0	50.0	2.2
=	38.6	0.0	50.0	2.1
=	38.9	0.0	50.0	2.1
=	39.0	0.0	50.0	2.1
=	39.3	0.0	50.0	2.1
=	39.5	0.0	50.0	2.0
=	39.7	0.0	50.0	2.0
=	39.9	0.0	50.0	2.0
=	40.0	0.0	50.0	2.0
=	40.1	0.0	50.0	2.0
=	40.3	0.0	50.0	2.0
=	40.5	0.0	50.0	1.9
=	40.7	0.0	50.0	1.9
=	40.9	0.0	50.0	1.9
=	41.1	0.0	50.0	1.9
=	41.3	0.0	50.0	1.9
=	41.4	0.0	50.0	1.9
=	41.7	0.0	50.0	1.9
=	41.9	0.0	50.0	1.8
=	42.1	0.0	50.0	1.8
=	42.3	0.0	50.0	1.8
=	42.5	0.0	50.0	1.8
=	42.7	0.0	50.0	1.8
=	43.0	0.0	50.0	1.8
=	43.1	0.0	50.0	1.8
=	43.3	0.0	50.0	1.7
=	43.5	0.0	50.0	1.7
=	43.7	0.0	50.0	1.7
=	43.9	0.0	50.0	1.7
=	44.1	0.0	50.0	1.7
=	44.3	0.0	50.0	1.7
=	44.5	0.0	50.0	1.6
=	44.7	0.0	50.0	1.6
=	44.9	0.0	50.0	1.6
=	45.1	0.0	50.0	1.6
=	45.3	0.0	50.0	1.6
=	45.5	0.0	50.0	1.6
=	45.7	0.0	50.0	1.6
=	46.0	0.0	50.0	1.6
=	46.1	0.0	50.0	1.6
=	46.3	0.0	50.0	1.5
=	46.5	0.0	50.0	1.5
=	46.6	0.0	50.0	1.5
=	46.7	0.0	50.0	1.5
=	46.9	0.0	50.0	1.5
=	47.2	0.0	50.0	1.5
=	47.4	0.0	50.0	1.5
=	47.5	0.0	50.0	1.5
=	47.8	0.0	50.0	1.5
=	48.0	0.0	50.0	1.5
=	48.2	0.0	50.0	1.4
=	48.4	0.0	50.0	1.4
=	48.6	0.0	50.0	1.4
=	48.8	0.0	50.0	1.4
=	49.0	0.0	50.0	1.4
=	49.2	0.0	50.0	1.4
=	49.4	0.0	50.0	1.4
=	49.6	0.0	50.0	1.4
=	49.8	0.0	50.0	1.4
=	50.0	0.0	50.0	1.4
=	50.2	0.0	50.0	1.4
=	50.4	0.0	50.0	1.3
=	50.5	0.0	50.0	1.3
=	50.6	0.0	50.0	1.3
=	50.8	0.0	50.0	1.3
=	51.0	0.0	50.0	1.3
=	51.2	0.0	50.0	1.3
=	51.4	0.0	50.0	1.3
=	51.6	0.0	50.0	1.3
=	51.8	0.0	50.0	1.3
=	51.9	0.0	50.0	1.3
=	52.0	0.0	50.0	1.3
=	52.2	0.0	50.0	1.3
=	52.4	0.0	50.0	1.3
=	52.6	0.0	50.0	1.3
=	52.8	0.0	50.0	1.3
=	53.0	0.0	50.0	1.3
=	53.3	0.0	50.0	1.3
=	53.4	0.0	50.0	1.3
=	53.6	0.0	50.0	1.2
=	53.8	0.0	50.0	1.2
=	54.1	0.0	50.0	1.2
=	54.3	0.0	50.0	1.2
=	54.5	0.0	50.0	1.2
=	54.7	0.0	50.0	1.2
=	54.9	0.0	50.0	1.2
=	55.1	0.0	50.0	1.2
=	55.3	0.0	50.0	1.2
=	55.6	0.0	50.0	1.2
=	55.7	0.0	50.0	1.2
=	55.9	0.0	50.0	1.2
=	56.1	0.0	50.0	1.2
=	56.4	0.0	50.0	1.2
=	56.5	0.0	50.0	1.2
=	56.8	0.0	50.0	1.2
=	56.9	0.0	50.0	1.1
=	57.2	0.0	50.0	1.1
=	57.3	0.0	50.0	1.1
=	57.6	0.0	50.0	1.1
=	57.7	0.0	50.0	1.1
=	57.9	0.0	50.0	1.1
=	58.0	0.0	50.0	1.1
=	58.1	0.0	50.0	1.1
=	58.3	0.0	50.0	1.1
=	58.5	0.0	50.0	1.1
=	58.8	0.0	50.0	1.1
=	58.9	0.0	50.0	1.1
=	59.2	0.0	50.0	1.1
=	59.3	0.0	50.0	1.1
=	59.6	0.0	50.0	1.1
=	59.8	0.0	50.0	1.1
=	60.0	0.0	50.0	1.1
=	60.2	0.0	50.0	1.1
=	60.4	0.0	50.0	1.1
=	60.6	0.0	50.0	1.1
=	60.9	0.0	50.0	1.0
=	61.0	0.0	50.0	1.0
=	61.3	0.0	50.0	1.0
=	61.4	0.0	50.0	1.0
=	61.7	0.0	50.0	1.0
=	62.0	0.0	50.0	1.0
=	62.2	0.0	50.0	1.0
=	62.4	0.0	50.0	1.0
=	62.6	0.0	50.0	1.0
=	62.9	0.0	50.0	1.0
=	63.0	0.0	50.0	1.0
=	63.3	0.0	50.0	1.0
=	63.4	0.0	50.0	1.0
=	63.7	0.0	50.0	1.0
=	63.8	0.0	50.0	1.0
=	64.1	0.0	50.0	1.0
=	64.2	0.0	50.0	1.0
=	64.4	0.0	50.0	1.0
=	64.6	0.0	50.0	1.0
=	64.8	0.0	50.0	1.0
=	64.9	0.0	50.0	1.0
=	65.0	0.0	50.0	1.0
=	65.4	0.0	50.0	1.0
=	65.9	0.0	50.0	1.0
=	66.3	0.0	50.0	0.9
=	66.5	0.0	50.0	0.9
=	66.7	0.0	50.0	0.9
=	67.0	0.0	50.0	0.9
=	67.1	0.0	50.0	0.9
=	67.5	0.0	50.0	0.9
=	67.9	0.0	50.0	0.9
=	68.0	0.0	50.0	0.9
=	68.1	0.0	50.0	0.9
=	68.3	0.0	50.0	0.9
=	68.5	0.0	50.0	0.9
=	68.7	0.0	50.0	0.9
=	69.0	0.0	50.0	0.9
=	69.3	0.0	50.0	0.9
=	69.5	0.0	50.0	0.9
=	69.9	0.0	50.0	0.9
=	70.3	0.0	50.0	0.9
=	70.6	0.0	50.0	0.9
=	70.7	0.0	50.0	0.9
=	71.0	0.0	50.0	0.9
:EOM # End of Measurement
#
# RFA300 ASCII Measurement Dump ( BDS format )
#
# Measurement number 	3
#
%VNR 1.0
%MOD 	RAT
%TYP 	SCN
%SCN 	PRO
%FLD 	ION
%DAT 	02-02-2012
%TIM 	12:00:00
%FSZ 	040	040
%BMT 	PHO	   8.0
%SSD 	1000
%BUP 	0
%BRD 	1000
%FSH 	1
%ASC 	0
%WEG 	30
%GPO 	0
%CPO 	0
%MEA 	6
%PRD 	100,0
%PTS 	631
%STS 	    -72.0	  0.0	   100.0 # Start Scan values in mm ( X , Y , Z )
%EDS 	    72.0	   0.0	   100.0 # End Scan values in mm ( X , Y , Z )
#
#	  X      Y      Z     Dose
#
=	-72.0	0.0	100.0	1.3
=	-71.9	0.0	100.0	1.3
=	-71.7	0.0	100.0	1.3
=	-71.3	0.0	100.0	1.3
=	-71.2	0.0	100.0	1.3
=	-71.0	0.0	100.0	1.3
=	-70.8	0.0	100.0	1.3
=	-70.4	0.0	100.0	1.3
=	-70.0	0.0	100.0	1.3
=	-69.8	0.0	100.0	1.3
=	-69.6	0.0	100.0	1.3
=	-69.3	0.0	100.0	1.3
=	-69.1	0.0	100.0	1.4
=	-68.9	0.0	100.0	1.4
=	-68.8	0.0	100.0	1.4
=	-68.4	0.0	100.0	1.4
=	-67.9	0.0	100.0	1.4
=	-67.6	0.0	100.0	1.4
=	-67.4	0.0	100.0	1.4
=	-67.2	0.0	100.0	1.4
=	-67.0	0.0	100.0	1.4
=	-66.8	0.0	100.0	1.4
=	-66.7	0.0	100.0	1.4
=	-66.6	0.0	100.0	1.4
=	-66.3	0.0	100.0	1.4
=	-66.2	0.0	100.0	1.5
=	-65.9	0.0	100.0	1.5
=	-65.5	0.0	100.0	1.5
=	-65.3	0.0	100.0	1.5
=	-65.2	0.0	100.0	1.5
=	-64.8	0.0	100.0	1.5
=	-64.7	0.0	100.0	1.5
=	-64.5	0.0	100.0	1.5
=	-64.3	0.0	100.0	1.5
=	-64.1	0.0	100.0	1.5
=	-63.9	0.0	100.0	1.5
=	-63.7	0.0	100.0	1.5
=	-63.4	0.0	100.0	1.5
=	-63.3	0.0	100.0	1.5
=	-63.1	0.0	100.0	1.5
=	-62.8	0.0	100.0	1.6
=	-62.7	0.0	100.0	1.6
=	-62.4	0.0	100.0	1.6
=	-62.3	0.0	100.0	1.6
=	-61.9	0.0	100.0	1.6
=	-61.8	0.0	100.0	1.6
=	-61.5	0.0	100.0	1.6
=	-61.4	0.0	100.0	1.6
=	-61.1	0.0	100.0	1.6
=	-60.9	0.0	100.0	1.6
=	-60.7	0.0	100.0	1.6
=	-60.3	0.0	100.0	1.6
=	-60.2	0.0	100.0	1.6
=	-59.8	0.0	100.0	1.6
=	-59.5	0.0	100.0	1.7
=	-59.3	0.0	100.0	1.7
=	-59.0	0.0	100.0	1.7
=	-58.8	0.0	100.0	1.7
=	-58.6	0.0	100.0	1.7
=	-58.3	0.0	100.0	1.7
=	-57.8	0.0	100.0	1.7
=	-57.4	0.0	100.0	1.8
=	-57.0	0.0	100.0	1.8
=	-56.8	0.0	100.0	1.8
=	-56.6	0.0	100.0	1.8
=	-56.3	0.0	100.0	1.8
=	-56.2	0.0	100.0	1.8
=	-55.8	0.0	100.0	1.8
=	-55.4	0.0	100.0	1.9
=	-55.0	0.0	100.0	1.9
=	-54.9	0.0	100.0	1.9
=	-54.5	0.0	100.0	1.9
=	-54.3	0.0	100.0	1.9
=	-54.2	0.0	100.0	1.9
=	-53.8	0.0	100.0	1.9
=	-53.7	0.0	100.0	1.9
=	-53.3	0.0	100.0	2.0
=	-52.9	0.0	100.0	2.0
=	-52.8	0.0	100.0	2.0
=	-52.5	0.0	100.0	2.0
=	-52.3	0.0	100.0	2.0
=	-52.1	0.0	100.0	2.0
=	-51.8	0.0	100.0	2.1
=	-51.7	0.0	100.0	2.1
=	-51.3	0.0	100.0	2.1
=	-50.9	0.0	100.0	2.1
=	-50.8	0.0	100.0	2.1
=	-50.5	0.0	100.0	2.2
=	-50.2	0.0	100.0	2.2
=	-50.0	0.0	100.0	2.2
=	-49.7	0.0	100.0	2.2
