:MSR 	41	 # No. of measurement in file
:SYS BDS 0   # Beam Data Scanner System
#
# RFA300 ASCII Measurement Dump ( BDS format )
#
# Measurement number 	1
#
%VNR 1.0
%MOD 	RAT
%TYP 	SCN
%SCN 	PRO
%FLD 	ION
%DAT 	09-21-2011
%TIM 	12:00:00
%FSZ 	030	030
%BMT 	PHO	   10.0
%SSD 	1000
%BUP 	0
%BRD 	1000
%FSH 	1
%ASC 	0
%WEG 	0
%GPO 	0
%CPO 	0
%MEA 	2
%PRD 	24,0
%PTS 	263
%STS 	    0.0	  -65.5	   24.0 # Start Scan values in mm ( X , Y , Z )
%EDS 	    0.0	   65.5	   24.0 # End Scan values in mm ( X , Y , Z )
#
#	  X      Y      Z     Dose
#
=	0.0	-65.5	24.0	0.6
=	0.0	-65.0	24.0	0.6
=	0.0	-64.5	24.0	0.6
=	0.0	-64.0	24.0	0.6
=	0.0	-63.5	24.0	0.6
=	0.0	-63.0	24.0	0.6
=	0.0	-62.5	24.0	0.6
=	0.0	-62.0	24.0	0.6
=	0.0	-61.5	24.0	0.6
=	0.0	-61.0	24.0	0.6
=	0.0	-60.5	24.0	0.6
=	0.0	-60.0	24.0	0.6
=	0.0	-59.5	24.0	0.6
=	0.0	-59.0	24.0	0.6
=	0.0	-58.5	24.0	0.6
=	0.0	-58.0	24.0	0.7
=	0.0	-57.5	24.0	0.7
=	0.0	-57.0	24.0	0.7
=	0.0	-56.5	24.0	0.7
=	0.0	-56.0	24.0	0.7
=	0.0	-55.5	24.0	0.7
=	0.0	-55.0	24.0	0.7
=	0.0	-54.5	24.0	0.7
=	0.0	-54.0	24.0	0.7
=	0.0	-53.5	24.0	0.7
=	0.0	-53.0	24.0	0.7
=	0.0	-52.5	24.0	0.7
=	0.0	-52.0	24.0	0.7
=	0.0	-51.5	24.0	0.7
=	0.0	-51.0	24.0	0.8
=	0.0	-50.5	24.0	0.8
=	0.0	-50.0	24.0	0.8
=	0.0	-49.5	24.0	0.8
=	0.0	-49.0	24.0	0.8
=	0.0	-48.5	24.0	0.8
=	0.0	-48.0	24.0	0.8
=	0.0	-47.5	24.0	0.8
=	0.0	-47.0	24.0	0.8
=	0.0	-46.5	24.0	0.9
=	0.0	-46.0	24.0	0.9
=	0.0	-45.5	24.0	0.9
=	0.0	-45.0	24.0	0.9
=	0.0	-44.5	24.0	0.9
=	0.0	-44.0	24.0	0.9
=	0.0	-43.5	24.0	0.9
=	0.0	-43.0	24.0	0.9
=	0.0	-42.5	24.0	1.0
=	0.0	-42.0	24.0	1.0
=	0.0	-41.5	24.0	1.0
=	0.0	-41.0	24.0	1.0
=	0.0	-40.5	24.0	1.1
=	0.0	-40.0	24.0	1.1
=	0.0	-39.5	24.0	1.1
=	0.0	-39.0	24.0	1.1
=	0.0	-38.5	24.0	1.1
=	0.0	-38.0	24.0	1.1
=	0.0	-37.5	24.0	1.2
=	0.0	-37.0	24.0	1.2
=	0.0	-36.5	24.0	1.2
=	0.0	-36.0	24.0	1.2
=	0.0	-35.5	24.0	1.3
=	0.0	-35.0	24.0	1.3
=	0.0	-34.5	24.0	1.4
=	0.0	-34.0	24.0	1.4
=	0.0	-33.5	24.0	1.4
=	0.0	-33.0	24.0	1.5
=	0.0	-32.5	24.0	1.5
=	0.0	-32.0	24.0	1.6
=	0.0	-31.5	24.0	1.6
=	0.0	-31.0	24.0	1.7
=	0.0	-30.5	24.0	1.8
=	0.0	-30.0	24.0	1.8
=	0.0	-29.5	24.0	1.9
=	0.0	-29.0	24.0	2.0
=	0.0	-28.5	24.0	2.1
=	0.0	-28.0	24.0	2.2
=	0.0	-27.5	24.0	2.3
=	0.0	-27.0	24.0	2.5
=	0.0	-26.5	24.0	2.6
=	0.0	-26.0	24.0	2.8
=	0.0	-25.5	24.0	3.0
=	0.0	-25.0	24.0	3.3
=	0.0	-24.5	24.0	3.6
=	0.0	-24.0	24.0	3.9
=	0.0	-23.5	24.0	4.3
=	0.0	-23.0	24.0	4.7
=	0.0	-22.5	24.0	5.3
=	0.0	-22.0	24.0	5.9
=	0.0	-21.5	24.0	6.7
=	0.0	-21.0	24.0	7.6
=	0.0	-20.5	24.0	8.8
=	0.0	-20.0	24.0	10.3
=	0.0	-19.5	24.0	12.0
=	0.0	-19.0	24.0	14.3
=	0.0	-18.5	24.0	17.0
=	0.0	-18.0	24.0	20.4
=	0.0	-17.5	24.0	24.7
=	0.0	-17.0	24.0	29.5
=	0.0	-16.5	24.0	34.7
=	0.0	-16.0	24.0	40.3
=	0.0	-15.5	24.0	46.1
=	0.0	-15.0	24.0	52.1
=	0.0	-14.5	24.0	57.8
=	0.0	-14.0	24.0	63.7
=	0.0	-13.5	24.0	69.2
=	0.0	-13.0	24.0	74.5
=	0.0	-12.5	24.0	79.1
=	0.0	-12.0	24.0	83.0
=	0.0	-11.5	24.0	86.4
=	0.0	-11.0	24.0	89.3
=	0.0	-10.5	24.0	91.7
=	0.0	-10.0	24.0	93.2
=	0.0	-9.5	24.0	94.4
=	0.0	-9.0	24.0	95.5
=	0.0	-8.5	24.0	96.4
=	0.0	-8.0	24.0	96.9
=	0.0	-7.5	24.0	97.6
=	0.0	-7.0	24.0	98.0
=	0.0	-6.5	24.0	98.4
=	0.0	-6.0	24.0	98.7
=	0.0	-5.5	24.0	99.0
=	0.0	-5.0	24.0	99.2
=	0.0	-4.5	24.0	99.4
=	0.0	-4.0	24.0	99.6
=	0.0	-3.5	24.0	99.7
=	0.0	-3.0	24.0	99.7
=	0.0	-2.5	24.0	99.8
=	0.0	-2.0	24.0	99.9
=	0.0	-1.5	24.0	99.9
=	0.0	-1.0	24.0	100.0
=	0.0	-0.5	24.0	100.0
=	0.0	0.0	24.0	100.0
=	0.0	0.5	24.0	100.0
=	0.0	1.0	24.0	100.0
=	0.0	1.5	24.0	99.9
=	0.0	2.0	24.0	99.9
=	0.0	2.5	24.0	99.7
=	0.0	3.0	24.0	99.7
=	0.0	3.5	24.0	99.6
=	0.0	4.0	24.0	99.5
=	0.0	4.5	24.0	99.4
=	0.0	5.0	24.0	99.2
=	0.0	5.5	24.0	99.0
=	0.0	6.0	24.0	98.7
=	0.0	6.5	24.0	98.5
=	0.0	7.0	24.0	98.0
=	0.0	7.5	24.0	97.6
=	0.0	8.0	24.0	96.9
=	0.0	8.5	24.0	96.2
=	0.0	9.0	24.0	95.3
=	0.0	9.5	24.0	94.2
=	0.0	10.0	24.0	93.1
=	0.0	10.5	24.0	91.5
=	0.0	11.0	24.0	89.3
=	0.0	11.5	24.0	86.3
=	0.0	12.0	24.0	82.9
=	0.0	12.5	24.0	78.9
=	0.0	13.0	24.0	74.3
=	0.0	13.5	24.0	69.2
=	0.0	14.0	24.0	63.5
=	0.0	14.5	24.0	57.8
=	0.0	15.0	24.0	51.9
=	0.0	15.5	24.0	46.0
=	0.0	16.0	24.0	40.2
=	0.0	16.5	24.0	34.6
=	0.0	17.0	24.0	29.3
=	0.0	17.5	24.0	24.7
=	0.0	18.0	24.0	20.4
=	0.0	18.5	24.0	17.0
=	0.0	19.0	24.0	14.2
=	0.0	19.5	24.0	12.0
=	0.0	20.0	24.0	10.2
=	0.0	20.5	24.0	8.7
=	0.0	21.0	24.0	7.6
=	0.0	21.5	24.0	6.7
=	0.0	22.0	24.0	5.9
=	0.0	22.5	24.0	5.3
=	0.0	23.0	24.0	4.7
=	0.0	23.5	24.0	4.2
=	0.0	24.0	24.0	3.9
=	0.0	24.5	24.0	3.6
=	0.0	25.0	24.0	3.2
=	0.0	25.5	24.0	3.0
=	0.0	26.0	24.0	2.8
=	0.0	26.5	24.0	2.6
=	0.0	27.0	24.0	2.5
=	0.0	27.5	24.0	2.3
=	0.0	28.0	24.0	2.2
=	0.0	28.5	24.0	2.1
=	0.0	29.0	24.0	2.0
=	0.0	29.5	24.0	1.9
=	0.0	30.0	24.0	1.8
=	0.0	30.5	24.0	1.7
=	0.0	31.0	24.0	1.7
=	0.0	31.5	24.0	1.6
=	0.0	32.0	24.0	1.5
=	0.0	32.5	24.0	1.5
=	0.0	33.0	24.0	1.5
=	0.0	33.5	24.0	1.4
=	0.0	34.0	24.0	1.4
=	0.0	34.5	24.0	1.4
=	0.0	35.0	24.0	1.3
=	0.0	35.5	24.0	1.3
=	0.0	36.0	24.0	1.3
=	0.0	36.5	24.0	1.2
=	0.0	37.0	24.0	1.2
=	0.0	37.5	24.0	1.2
=	0.0	38.0	24.0	1.1
=	0.0	38.5	24.0	1.1
=	0.0	39.0	24.0	1.1
=	0.0	39.5	24.0	1.1
=	0.0	40.0	24.0	1.1
=	0.0	40.5	24.0	1.1
=	0.0	41.0	24.0	1.0
=	0.0	41.5	24.0	1.0
=	0.0	42.0	24.0	1.0
=	0.0	42.5	24.0	1.0
=	0.0	43.0	24.0	0.9
=	0.0	43.5	24.0	0.9
=	0.0	44.0	24.0	0.9
=	0.0	44.5	24.0	0.9
=	0.0	45.0	24.0	0.9
=	0.0	45.5	24.0	0.9
=	0.0	46.0	24.0	0.9
=	0.0	46.5	24.0	0.9
=	0.0	47.0	24.0	0.8
=	0.0	47.5	24.0	0.8
=	0.0	48.0	24.0	0.8
=	0.0	48.5	24.0	0.8
=	0.0	49.0	24.0	0.8
=	0.0	49.5	24.0	0.8
=	0.0	50.0	24.0	0.8
=	0.0	50.5	24.0	0.8
=	0.0	51.0	24.0	0.8
=	0.0	51.5	24.0	0.8
=	0.0	52.0	24.0	0.7
=	0.0	52.5	24.0	0.7
=	0.0	53.0	24.0	0.7
=	0.0	53.5	24.0	0.7
=	0.0	54.0	24.0	0.7
=	0.0	54.5	24.0	0.7
=	0.0	55.0	24.0	0.7
=	0.0	55.5	24.0	0.7
=	0.0	56.0	24.0	0.7
=	0.0	56.5	24.0	0.7
=	0.0	57.0	24.0	0.7
=	0.0	57.5	24.0	0.7
=	0.0	58.0	24.0	0.7
=	0.0	58.5	24.0	0.7
=	0.0	59.0	24.0	0.6
=	0.0	59.5	24.0	0.6
=	0.0	60.0	24.0	0.6
=	0.0	60.5	24.0	0.6
=	0.0	61.0	24.0	0.6
=	0.0	61.5	24.0	0.6
=	0.0	62.0	24.0	0.6
=	0.0	62.5	24.0	0.6
=	0.0	63.0	24.0	0.6
=	0.0	63.5	24.0	0.6
=	0.0	64.0	24.0	0.6
=	0.0	64.5	24.0	0.6
=	0.0	65.0	24.0	0.6
=	0.0	65.5	24.0	0.6
:EOM # End of Measurement
#
# RFA300 ASCII Measurement Dump ( BDS format )
#
# Measurement number 	2
#
%VNR 1.0
%MOD 	RAT
%TYP 	SCN
%SCN 	PRO
%FLD 	ION
%DAT 	09-21-2011
%TIM 	12:00:00
%FSZ 	030	030
%BMT 	PHO	   10.0
%SSD 	1000
%BUP 	0
%BRD 	1000
%FSH 	1
%ASC 	0
%WEG 	0
%GPO 	0
%CPO 	0
%MEA 	2
%PRD 	50,0
%PTS 	264
%STS 	    0.0	  -65.6	   50.0 # Start Scan values in mm ( X , Y , Z )
%EDS 	    0.0	   65.4	   50.0 # End Scan values in mm ( X , Y , Z )
#
#	  X      Y      Z     Dose
#
=	0.0	-65.6	50.0	0.6
=	0.0	-65.1	50.0	0.6
=	0.0	-64.6	50.0	0.6
=	0.0	-64.1	50.0	0.6
=	0.0	-63.6	50.0	0.6
=	0.0	-63.1	50.0	0.6
=	0.0	-62.6	50.0	0.6
=	0.0	-62.1	50.0	0.6
=	0.0	-61.6	50.0	0.6
=	0.0	-61.1	50.0	0.6
=	0.0	-60.6	50.0	0.6
=	0.0	-60.1	50.0	0.7
=	0.0	-59.6	50.0	0.7
=	0.0	-59.1	50.0	0.7
=	0.0	-58.6	50.0	0.7
=	0.0	-58.1	50.0	0.7
=	0.0	-57.6	50.0	0.7
=	0.0	-57.1	50.0	0.7
=	0.0	-56.6	50.0	0.7
=	0.0	-56.1	50.0	0.7
=	0.0	-55.6	50.0	0.7
=	0.0	-55.1	50.0	0.7
=	0.0	-54.6	50.0	0.8
=	0.0	-54.1	50.0	0.8
=	0.0	-53.6	50.0	0.8
=	0.0	-53.1	50.0	0.8
=	0.0	-52.6	50.0	0.8
=	0.0	-52.1	50.0	0.8
=	0.0	-51.6	50.0	0.8
=	0.0	-51.1	50.0	0.8
=	0.0	-50.6	50.0	0.8
=	0.0	-50.1	50.0	0.9
=	0.0	-49.6	50.0	0.9
=	0.0	-49.1	50.0	0.9
=	0.0	-48.6	50.0	0.9
=	0.0	-48.1	50.0	0.9
=	0.0	-47.6	50.0	0.9
=	0.0	-47.1	50.0	0.9
=	0.0	-46.6	50.0	1.0
=	0.0	-46.1	50.0	1.0
=	0.0	-45.6	50.0	1.0
=	0.0	-45.1	50.0	1.0
=	0.0	-44.6	50.0	1.0
=	0.0	-44.1	50.0	1.0
=	0.0	-43.6	50.0	1.0
=	0.0	-43.1	50.0	1.1
=	0.0	-42.6	50.0	1.1
=	0.0	-42.1	50.0	1.1
=	0.0	-41.6	50.0	1.1
=	0.0	-41.1	50.0	1.1
=	0.0	-40.6	50.0	1.2
=	0.0	-40.1	50.0	1.2
=	0.0	-39.6	50.0	1.2
=	0.0	-39.1	50.0	1.3
=	0.0	-38.6	50.0	1.3
=	0.0	-38.1	50.0	1.3
=	0.0	-37.6	50.0	1.3
=	0.0	-37.1	50.0	1.4
=	0.0	-36.6	50.0	1.4
=	0.0	-36.1	50.0	1.5
=	0.0	-35.6	50.0	1.5
=	0.0	-35.1	50.0	1.5
=	0.0	-34.6	50.0	1.6
=	0.0	-34.1	50.0	1.6
=	0.0	-33.6	50.0	1.7
=	0.0	-33.1	50.0	1.7
=	0.0	-32.6	50.0	1.8
=	0.0	-32.1	50.0	1.9
=	0.0	-31.6	50.0	2.0
=	0.0	-31.1	50.0	2.1
=	0.0	-30.6	50.0	2.1
=	0.0	-30.1	50.0	2.2
=	0.0	-29.6	50.0	2.3
=	0.0	-29.1	50.0	2.5
=	0.0	-28.6	50.0	2.6
=	0.0	-28.1	50.0	2.8
=	0.0	-27.6	50.0	2.9
=	0.0	-27.1	50.0	3.1
=	0.0	-26.6	50.0	3.3
=	0.0	-26.1	50.0	3.6
=	0.0	-25.6	50.0	3.9
=	0.0	-25.1	50.0	4.2
=	0.0	-24.6	50.0	4.5
=	0.0	-24.1	50.0	4.9
=	0.0	-23.6	50.0	5.4
=	0.0	-23.1	50.0	5.9
=	0.0	-22.6	50.0	6.6
=	0.0	-22.1	50.0	7.4
=	0.0	-21.6	50.0	8.3
=	0.0	-21.1	50.0	9.5
=	0.0	-20.6	50.0	10.8
=	0.0	-20.1	50.0	12.4
=	0.0	-19.6	50.0	14.4
=	0.0	-19.1	50.0	17.0
=	0.0	-18.6	50.0	20.1
=	0.0	-18.1	50.0	23.8
=	0.0	-17.6	50.0	28.2
=	0.0	-17.1	50.0	33.1
=	0.0	-16.6	50.0	38.3
=	0.0	-16.1	50.0	43.7
=	0.0	-15.6	50.0	49.3
=	0.0	-15.1	50.0	55.0
=	0.0	-14.6	50.0	60.6
=	0.0	-14.1	50.0	66.2
=	0.0	-13.6	50.0	71.2
=	0.0	-13.1	50.0	75.9
=	0.0	-12.6	50.0	80.1
=	0.0	-12.1	50.0	83.9
=	0.0	-11.6	50.0	86.9
=	0.0	-11.1	50.0	89.5
=	0.0	-10.6	50.0	91.4
=	0.0	-10.1	50.0	92.9
=	0.0	-9.6	50.0	94.0
=	0.0	-9.1	50.0	95.2
=	0.0	-8.6	50.0	96.0
=	0.0	-8.1	50.0	96.8
=	0.0	-7.6	50.0	97.5
=	0.0	-7.1	50.0	97.9
=	0.0	-6.6	50.0	98.3
=	0.0	-6.1	50.0	98.5
=	0.0	-5.6	50.0	98.7
=	0.0	-5.1	50.0	99.0
=	0.0	-4.6	50.0	99.3
=	0.0	-4.1	50.0	99.5
=	0.0	-3.6	50.0	99.5
=	0.0	-3.1	50.0	99.6
=	0.0	-2.6	50.0	99.8
=	0.0	-2.1	50.0	99.8
=	0.0	-1.6	50.0	99.9
=	0.0	-1.1	50.0	100.0
=	0.0	-0.6	50.0	100.0
=	0.0	-0.1	50.0	100.0
=	0.0	0.0	50.0	100.0
=	0.0	0.4	50.0	100.0
=	0.0	0.9	50.0	100.0
=	0.0	1.4	50.0	100.0
=	0.0	1.9	50.0	99.9
=	0.0	2.4	50.0	99.8
=	0.0	2.9	50.0	99.6
=	0.0	3.4	50.0	99.5
=	0.0	3.9	50.0	99.4
=	0.0	4.4	50.0	99.3
=	0.0	4.9	50.0	99.1
=	0.0	5.4	50.0	98.8
=	0.0	5.9	50.0	98.5
=	0.0	6.4	50.0	98.2
=	0.0	6.9	50.0	97.8
=	0.0	7.4	50.0	97.4
=	0.0	7.9	50.0	96.9
=	0.0	8.4	50.0	96.2
=	0.0	8.9	50.0	95.4
=	0.0	9.4	50.0	94.5
=	0.0	9.9	50.0	93.4
=	0.0	10.4	50.0	91.9
=	0.0	10.9	50.0	90.3
=	0.0	11.4	50.0	88.2
=	0.0	11.9	50.0	85.4
=	0.0	12.4	50.0	82.0
=	0.0	12.9	50.0	77.9
=	0.0	13.4	50.0	73.5
=	0.0	13.9	50.0	68.6
=	0.0	14.4	50.0	63.3
=	0.0	14.9	50.0	57.8
=	0.0	15.4	50.0	52.0
=	0.0	15.9	50.0	46.4
=	0.0	16.4	50.0	40.8
=	0.0	16.9	50.0	35.4
=	0.0	17.4	50.0	30.5
=	0.0	17.9	50.0	25.9
=	0.0	18.4	50.0	21.8
=	0.0	18.9	50.0	18.4
=	0.0	19.4	50.0	15.6
=	0.0	19.9	50.0	13.3
=	0.0	20.4	50.0	11.5
=	0.0	20.9	50.0	10.1
=	0.0	21.4	50.0	8.9
=	0.0	21.9	50.0	7.8
=	0.0	22.4	50.0	7.0
=	0.0	22.9	50.0	6.3
=	0.0	23.4	50.0	5.7
=	0.0	23.9	50.0	5.2
=	0.0	24.4	50.0	4.7
=	0.0	24.9	50.0	4.3
=	0.0	25.4	50.0	4.0
=	0.0	25.9	50.0	3.7
=	0.0	26.4	50.0	3.4
=	0.0	26.9	50.0	3.2
=	0.0	27.4	50.0	3.0
=	0.0	27.9	50.0	2.8
=	0.0	28.4	50.0	2.6
=	0.0	28.9	50.0	2.5
=	0.0	29.4	50.0	2.4
=	0.0	29.9	50.0	2.3
=	0.0	30.4	50.0	2.2
=	0.0	30.9	50.0	2.1
=	0.0	31.4	50.0	2.0
=	0.0	31.9	50.0	1.9
=	0.0	32.4	50.0	1.9
=	0.0	32.9	50.0	1.8
=	0.0	33.4	50.0	1.7
=	0.0	33.9	50.0	1.7
=	0.0	34.4	50.0	1.6
=	0.0	34.9	50.0	1.5
=	0.0	35.4	50.0	1.5
=	0.0	35.9	50.0	1.5
=	0.0	36.4	50.0	1.4
=	0.0	36.9	50.0	1.4
=	0.0	37.4	50.0	1.3
=	0.0	37.9	50.0	1.3
=	0.0	38.4	50.0	1.3
=	0.0	38.9	50.0	1.3
=	0.0	39.4	50.0	1.2
=	0.0	39.9	50.0	1.2
=	0.0	40.4	50.0	1.2
=	0.0	40.9	50.0	1.2
=	0.0	41.4	50.0	1.1
=	0.0	41.9	50.0	1.1
=	0.0	42.4	50.0	1.1
=	0.0	42.9	50.0	1.1
=	0.0	43.4	50.0	1.1
=	0.0	43.9	50.0	1.0
=	0.0	44.4	50.0	1.0
=	0.0	44.9	50.0	1.0
=	0.0	45.4	50.0	1.0
=	0.0	45.9	50.0	1.0
=	0.0	46.4	50.0	1.0
=	0.0	46.9	50.0	0.9
=	0.0	47.4	50.0	0.9
=	0.0	47.9	50.0	0.9
=	0.0	48.4	50.0	0.9
=	0.0	48.9	50.0	0.9
=	0.0	49.4	50.0	0.9
=	0.0	49.9	50.0	0.9
=	0.0	50.4	50.0	0.9
=	0.0	50.9	50.0	0.9
=	0.0	51.4	50.0	0.8
=	0.0	51.9	50.0	0.8
=	0.0	52.4	50.0	0.8
=	0.0	52.9	50.0	0.8
=	0.0	53.4	50.0	0.8
=	0.0	53.9	50.0	0.8
=	0.0	54.4	50.0	0.8
=	0.0	54.9	50.0	0.7
=	0.0	55.4	50.0	0.7
=	0.0	55.9	50.0	0.7
=	0.0	56.4	50.0	0.7
=	0.0	56.9	50.0	0.7
=	0.0	57.4	50.0	0.7
=	0.0	57.9	50.0	0.7
=	0.0	58.4	50.0	0.7
=	0.0	58.9	50.0	0.7
=	0.0	59.4	50.0	0.7
=	0.0	59.9	50.0	0.7
=	0.0	60.4	50.0	0.7
=	0.0	60.9	50.0	0.7
=	0.0	61.4	50.0	0.7
=	0.0	61.9	50.0	0.6
=	0.0	62.4	50.0	0.6
=	0.0	62.9	50.0	0.6
=	0.0	63.4	50.0	0.6
=	0.0	63.9	50.0	0.6
=	0.0	64.4	50.0	0.6
=	0.0	64.9	50.0	0.6
=	0.0	65.4	50.0	0.6
:EOM # End of Measurement
#
# RFA300 ASCII Measurement Dump ( BDS format )
#
# Measurement number 	3
#
%VNR 1.0
%MOD 	RAT
%TYP 	SCN
%SCN 	PRO
%FLD 	ION
%DAT 	09-21-2011
%TIM 	12:00:00
%FSZ 	030	030
%BMT 	PHO	   10.0
%SSD 	1000
%BUP 	0
%BRD 	1000
%FSH 	1
%ASC 	0
%WEG 	0
%GPO 	0
%CPO 	0
%MEA 	2
%PRD 	100,0
%PTS 	268
%STS 	    0.0	  -66.6	   100.0 # Start Scan values in mm ( X , Y , Z )
%EDS 	    0.0	   66.4	   100.0 # End Scan values in mm ( X , Y , Z )
#
#	  X      Y      Z     Dose
#
=	0.0	-66.6	100.0	0.8
=	0.0	-66.1	100.0	0.8
=	0.0	-65.6	100.0	0.8
=	0.0	-65.1	100.0	0.9
=	0.0	-64.6	100.0	0.9
=	0.0	-64.1	100.0	0.9
=	0.0	-63.6	100.0	0.9
=	0.0	-63.1	100.0	0.9
=	0.0	-62.6	100.0	0.9
=	0.0	-62.1	100.0	0.9
=	0.0	-61.6	100.0	0.9
=	0.0	-61.1	100.0	0.9
=	0.0	-60.6	100.0	0.9
=	0.0	-60.1	100.0	0.9
=	0.0	-59.6	100.0	0.9
=	0.0	-59.1	100.0	1.0
=	0.0	-58.6	100.0	1.0
=	0.0	-58.1	100.0	1.0
=	0.0	-57.6	100.0	1.0
=	0.0	-57.1	100.0	1.0
=	0.0	-56.6	100.0	1.0
=	0.0	-56.1	100.0	1.0
=	0.0	-55.6	100.0	1.0
=	0.0	-55.1	100.0	1.0
=	0.0	-54.6	100.0	1.0
=	0.0	-54.1	100.0	1.1
=	0.0	-53.6	100.0	1.1
=	0.0	-53.1	100.0	1.1
=	0.0	-52.6	100.0	1.1
=	0.0	-52.1	100.0	1.1
=	0.0	-51.6	100.0	1.1
=	0.0	-51.1	100.0	1.1
=	0.0	-50.6	100.0	1.2
=	0.0	-50.1	100.0	1.2
=	0.0	-49.6	100.0	1.2
=	0.0	-49.1	100.0	1.3
=	0.0	-48.6	100.0	1.3
=	0.0	-48.1	100.0	1.3
=	0.0	-47.6	100.0	1.3
=	0.0	-47.1	100.0	1.3
=	0.0	-46.6	100.0	1.4
=	0.0	-46.1	100.0	1.4
=	0.0	-45.6	100.0	1.4
=	0.0	-45.1	100.0	1.4
=	0.0	-44.6	100.0	1.5
=	0.0	-44.1	100.0	1.5
=	0.0	-43.6	100.0	1.5
=	0.0	-43.1	100.0	1.6
=	0.0	-42.6	100.0	1.6
=	0.0	-42.1	100.0	1.6
=	0.0	-41.6	100.0	1.6
=	0.0	-41.1	100.0	1.7
=	0.0	-40.6	100.0	1.7
=	0.0	-40.1	100.0	1.7
=	0.0	-39.6	100.0	1.8
=	0.0	-39.1	100.0	1.8
=	0.0	-38.6	100.0	1.9
=	0.0	-38.1	100.0	1.9
=	0.0	-37.6	100.0	1.9
=	0.0	-37.1	100.0	2.0
=	0.0	-36.6	100.0	2.1
=	0.0	-36.1	100.0	2.1
=	0.0	-35.6	100.0	2.2
=	0.0	-35.1	100.0	2.3
=	0.0	-34.6	100.0	2.3
=	0.0	-34.1	100.0	2.4
=	0.0	-33.6	100.0	2.5
=	0.0	-33.1	100.0	2.5
=	0.0	-32.6	100.0	2.6
=	0.0	-32.1	100.0	2.7
=	0.0	-31.6	100.0	2.8
=	0.0	-31.1	100.0	2.9
=	0.0	-30.6	100.0	3.1
=	0.0	-30.1	100.0	3.2
=	0.0	-29.6	100.0	3.3
=	0.0	-29.1	100.0	3.5
=	0.0	-28.6	100.0	3.7
=	0.0	-28.1	100.0	3.9
=	0.0	-27.6	100.0	4.1
=	0.0	-27.1	100.0	4.4
=	0.0	-26.6	100.0	4.7
=	0.0	-26.1	100.0	5.0
=	0.0	-25.6	100.0	5.3
=	0.0	-25.1	100.0	5.8
=	0.0	-24.6	100.0	6.2
=	0.0	-24.1	100.0	6.8
=	0.0	-23.6	100.0	7.4
=	0.0	-23.1	100.0	8.1
=	0.0	-22.6	100.0	9.0
=	0.0	-22.1	100.0	10.1
=	0.0	-21.6	100.0	11.4
=	0.0	-21.1	100.0	12.9
=	0.0	-20.6	100.0	14.8
=	0.0	-20.1	100.0	17.1
=	0.0	-19.6	100.0	19.8
=	0.0	-19.1	100.0	23.1
=	0.0	-18.6	100.0	27.1
=	0.0	-18.1	100.0	31.6
=	0.0	-17.6	100.0	36.4
=	0.0	-17.1	100.0	41.7
=	0.0	-16.6	100.0	47.0
=	0.0	-16.1	100.0	52.4
=	0.0	-15.6	100.0	57.8
=	0.0	-15.1	100.0	63.3
=	0.0	-14.6	100.0	68.5
=	0.0	-14.1	100.0	73.3
=	0.0	-13.6	100.0	77.7
=	0.0	-13.1	100.0	81.6
=	0.0	-12.6	100.0	85.0
=	0.0	-12.1	100.0	87.6
=	0.0	-11.6	100.0	89.8
=	0.0	-11.1	100.0	91.5
=	0.0	-10.6	100.0	92.8
=	0.0	-10.1	100.0	94.0
=	0.0	-9.6	100.0	95.1
=	0.0	-9.1	100.0	95.9
=	0.0	-8.6	100.0	96.5
=	0.0	-8.1	100.0	97.0
=	0.0	-7.6	100.0	97.7
=	0.0	-7.1	100.0	98.0
=	0.0	-6.6	100.0	98.3
=	0.0	-6.1	100.0	98.6
=	0.0	-5.6	100.0	98.8
=	0.0	-5.1	100.0	99.0
=	0.0	-4.6	100.0	99.2
=	0.0	-4.1	100.0	99.4
=	0.0	-3.6	100.0	99.6
=	0.0	-3.1	100.0	99.7
=	0.0	-2.6	100.0	99.8
=	0.0	-2.1	100.0	99.9
=	0.0	-1.6	100.0	99.9
=	0.0	-1.1	100.0	100.0
=	0.0	-0.6	100.0	100.0
=	0.0	-0.1	100.0	100.0
=	0.0	0.0	100.0	100.0
=	0.0	0.4	100.0	100.0
=	0.0	0.9	100.0	100.0
=	0.0	1.4	100.0	99.9
=	0.0	1.9	100.0	99.9
=	0.0	2.4	100.0	99.8
=	0.0	2.9	100.0	99.8
=	0.0	3.4	100.0	99.6
=	0.0	3.9	100.0	99.4
=	0.0	4.4	100.0	99.3
=	0.0	4.9	100.0	99.1
=	0.0	5.4	100.0	98.9
=	0.0	5.9	100.0	98.7
=	0.0	6.4	100.0	98.4
=	0.0	6.9	100.0	98.2
=	0.0	7.4	100.0	97.7
=	0.0	7.9	100.0	97.3
=	0.0	8.4	100.0	96.6
=	0.0	8.9	100.0	96.0
=	0.0	9.4	100.0	95.4
=	0.0	9.9	100.0	94.3
=	0.0	10.4	100.0	93.2
=	0.0	10.9	100.0	91.9
=	0.0	11.4	100.0	90.4
=	0.0	11.9	100.0	88.4
=	0.0	12.4	100.0	85.9
=	0.0	12.9	100.0	83.0
=	0.0	13.4	100.0	79.3
=	0.0	13.9	100.0	75.1
=	0.0	14.4	100.0	70.5
=	0.0	14.9	100.0	65.3
=	0.0	15.4	100.0	60.0
=	0.0	15.9	100.0	54.6
=	0.0	16.4	100.0	49.2
=	0.0	16.9	100.0	43.9
=	0.0	17.4	100.0	38.6
=	0.0	17.9	100.0	33.7
=	0.0	18.4	100.0	29.0
=	0.0	18.9	100.0	24.7
=	0.0	19.4	100.0	21.0
=	0.0	19.9	100.0	18.1
=	0.0	20.4	100.0	15.7
=	0.0	20.9	100.0	13.6
=	0.0	21.4	100.0	11.9
=	0.0	21.9	100.0	10.6
=	0.0	22.4	100.0	9.4
=	0.0	22.9	100.0	8.4
=	0.0	23.4	100.0	7.7
=	0.0	23.9	100.0	7.0
=	0.0	24.4	100.0	6.4
=	0.0	24.9	100.0	5.9
=	0.0	25.4	100.0	5.5
=	0.0	25.9	100.0	5.1
=	0.0	26.4	100.0	4.8
=	0.0	26.9	100.0	4.5
=	0.0	27.4	100.0	4.2
=	0.0	27.9	100.0	4.0
=	0.0	28.4	100.0	3.8
=	0.0	28.9	100.0	3.6
=	0.0	29.4	100.0	3.4
=	0.0	29.9	100.0	3.2
=	0.0	30.4	100.0	3.1
=	0.0	30.9	100.0	3.0
=	0.0	31.4	100.0	2.9
=	0.0	31.9	100.0	2.8
=	0.0	32.4	100.0	2.7
=	0.0	32.9	100.0	2.6
=	0.0	33.4	100.0	2.5
=	0.0	33.9	100.0	2.4
=	0.0	34.4	100.0	2.4
=	0.0	34.9	100.0	2.3
=	0.0	35.4	100.0	2.2
=	0.0	35.9	100.0	2.2
=	0.0	36.4	100.0	2.1
=	0.0	36.9	100.0	2.1
=	0.0	37.4	100.0	2.0
=	0.0	37.9	100.0	2.0
=	0.0	38.4	100.0	1.9
=	0.0	38.9	100.0	1.9
=	0.0	39.4	100.0	1.8
=	0.0	39.9	100.0	1.8
=	0.0	40.4	100.0	1.7
=	0.0	40.9	100.0	1.7
=	0.0	41.4	100.0	1.6
=	0.0	41.9	100.0	1.6
=	0.0	42.4	100.0	1.6
=	0.0	42.9	100.0	1.6
=	0.0	43.4	100.0	1.5
=	0.0	43.9	100.0	1.5
=	0.0	44.4	100.0	1.5
=	0.0	44.9	100.0	1.5
=	0.0	45.4	100.0	1.4
=	0.0	45.9	100.0	1.4
=	0.0	46.4	100.0	1.4
=	0.0	46.9	100.0	1.4
=	0.0	47.4	100.0	1.3
=	0.0	47.9	100.0	1.3
=	0.0	48.4	100.0	1.3
=	0.0	48.9	100.0	1.3
=	0.0	49.4	100.0	1.3
=	0.0	49.9	100.0	1.2
=	0.0	50.4	100.0	1.2
=	0.0	50.9	100.0	1.2
=	0.0	51.4	100.0	1.2
=	0.0	51.9	100.0	1.1
=	0.0	52.4	100.0	1.1
=	0.0	52.9	100.0	1.1
=	0.0	53.4	100.0	1.1
=	0.0	53.9	100.0	1.1
=	0.0	54.4	100.0	1.1
=	0.0	54.9	100.0	1.0
=	0.0	55.4	100.0	1.0
=	0.0	55.9	100.0	1.0
=	0.0	56.4	100.0	1.0
=	0.0	56.9	100.0	1.0
=	0.0	57.4	100.0	1.0
=	0.0	57.9	100.0	1.0
=	0.0	58.4	100.0	1.0
=	0.0	58.9	100.0	1.0
=	0.0	59.4	100.0	1.0
=	0.0	59.9	100.0	0.9
=	0.0	60.4	100.0	0.9
=	0.0	60.9	100.0	0.9
=	0.0	61.4	100.0	0.9
=	0.0	61.9	100.0	0.9
=	0.0	62.4	100.0	0.9
=	0.0	62.9	100.0	0.9
=	0.0	63.4	100.0	0.9
=	0.0	63.9	100.0	0.9
=	0.0	64.4	100.0	0.8
=	0.0	64.9	100.0	0.8
=	0.0	65.4	100.0	0.8
=	0.0	65.9	100.0	0.8
=	0.0	66.4	100.0	0.8
:EOM # End of Measurement
#
# RFA300 ASCII Measurement Dump ( BDS format )
#
# Measurement number 	4
#
%VNR 1.0
%MOD 	RAT
%TYP 	SCN
%SCN 	PRO
%FLD 	ION
%DAT 	09-21-2011
%TIM 	12:00:00
%FSZ 	030	030
%BMT 	PHO	   10.0
%SSD 	1000
%BUP 	0
%BRD 	1000
%FSH 	1
%ASC 	0
%WEG 	0
%GPO 	0
%CPO 	0
%MEA 	2
%PRD 	200,0
%PTS 	272
%STS 	    0.0	  -67.6	   200.0 # Start Scan values in mm ( X , Y , Z )
%EDS 	    0.0	   67.4	   200.0 # End Scan values in mm ( X , Y , Z )
#
#	  X      Y      Z     Dose
#
=	0.0	-67.6	200.0	1.3
=	0.0	-67.1	200.0	1.3
=	0.0	-66.6	200.0	1.3
=	0.0	-66.1	200.0	1.3
=	0.0	-65.6	200.0	1.4
=	0.0	-65.1	200.0	1.4
=	0.0	-64.6	200.0	1.4
=	0.0	-64.1	200.0	1.4
=	0.0	-63.6	200.0	1.4
=	0.0	-63.1	200.0	1.4
=	0.0	-62.6	200.0	1.4
=	0.0	-62.1	200.0	1.5
=	0.0	-61.6	200.0	1.5
=	0.0	-61.1	200.0	1.5
=	0.0	-60.6	200.0	1.5
=	0.0	-60.1	200.0	1.5
=	0.0	-59.6	200.0	1.5
=	0.0	-59.1	200.0	1.6
=	0.0	-58.6	200.0	1.6
=	0.0	-58.1	200.0	1.6
=	0.0	-57.6	200.0	1.6
=	0.0	-57.1	200.0	1.7
=	0.0	-56.6	200.0	1.7
=	0.0	-56.1	200.0	1.7
=	0.0	-55.6	200.0	1.7
=	0.0	-55.1	200.0	1.7
=	0.0	-54.6	200.0	1.8
=	0.0	-54.1	200.0	1.8
=	0.0	-53.6	200.0	1.8
=	0.0	-53.1	200.0	1.8
=	0.0	-52.6	200.0	1.8
=	0.0	-52.1	200.0	1.9
=	0.0	-51.6	200.0	1.9
=	0.0	-51.1	200.0	1.9
=	0.0	-50.6	200.0	2.0
=	0.0	-50.1	200.0	2.0
=	0.0	-49.6	200.0	2.0
=	0.0	-49.1	200.0	2.0
=	0.0	-48.6	200.0	2.1
=	0.0	-48.1	200.0	2.1
=	0.0	-47.6	200.0	2.1
=	0.0	-47.1	200.0	2.2
=	0.0	-46.6	200.0	2.2
=	0.0	-46.1	200.0	2.3
=	0.0	-45.6	200.0	2.3
=	0.0	-45.1	200.0	2.4
=	0.0	-44.6	200.0	2.4
=	0.0	-44.1	200.0	2.4
=	0.0	-43.6	200.0	2.5
=	0.0	-43.1	200.0	2.5
=	0.0	-42.6	200.0	2.5
=	0.0	-42.1	200.0	2.6
=	0.0	-41.6	200.0	2.6
=	0.0	-41.1	200.0	2.6
=	0.0	-40.6	200.0	2.7
=	0.0	-40.1	200.0	2.7
=	0.0	-39.6	200.0	2.8
=	0.0	-39.1	200.0	2.9
=	0.0	-38.6	200.0	2.9
=	0.0	-38.1	200.0	3.0
=	0.0	-37.6	200.0	3.0
=	0.0	-37.1	200.0	3.1
=	0.0	-36.6	200.0	3.2
=	0.0	-36.1	200.0	3.3
=	0.0	-35.6	200.0	3.4
=	0.0	-35.1	200.0	3.5
=	0.0	-34.6	200.0	3.5
=	0.0	-34.1	200.0	3.6
=	0.0	-33.6	200.0	3.7
=	0.0	-33.1	200.0	3.9
=	0.0	-32.6	200.0	4.0
=	0.0	-32.1	200.0	4.1
=	0.0	-31.6	200.0	4.2
=	0.0	-31.1	200.0	4.4
=	0.0	-30.6	200.0	4.6
=	0.0	-30.1	200.0	4.8
=	0.0	-29.6	200.0	5.0
=	0.0	-29.1	200.0	5.4
=	0.0	-28.6	200.0	5.6
=	0.0	-28.1	200.0	5.9
=	0.0	-27.6	200.0	6.2
=	0.0	-27.1	200.0	6.6
=	0.0	-26.6	200.0	7.0
=	0.0	-26.1	200.0	7.5
=	0.0	-25.6	200.0	8.1
=	0.0	-25.1	200.0	8.8
=	0.0	-24.6	200.0	9.6
=	0.0	-24.1	200.0	10.5
=	0.0	-23.6	200.0	11.6
=	0.0	-23.1	200.0	12.8
=	0.0	-22.6	200.0	14.4
=	0.0	-22.1	200.0	16.3
=	0.0	-21.6	200.0	18.5
=	0.0	-21.1	200.0	21.1
=	0.0	-20.6	200.0	24.4
=	0.0	-20.1	200.0	28.2
=	0.0	-19.6	200.0	32.3
=	0.0	-19.1	200.0	36.9
=	0.0	-18.6	200.0	41.9
=	0.0	-18.1	200.0	47.1
=	0.0	-17.6	200.0	52.4
=	0.0	-17.1	200.0	57.6
=	0.0	-16.6	200.0	62.7
=	0.0	-16.1	200.0	67.5
=	0.0	-15.6	200.0	72.1
=	0.0	-15.1	200.0	76.3
=	0.0	-14.6	200.0	80.2
=	0.0	-14.1	200.0	83.5
=	0.0	-13.6	200.0	86.3
=	0.0	-13.1	200.0	88.7
=	0.0	-12.6	200.0	90.5
=	0.0	-12.1	200.0	91.9
=	0.0	-11.6	200.0	93.2
=	0.0	-11.1	200.0	94.2
=	0.0	-10.6	200.0	95.3
=	0.0	-10.1	200.0	96.0
=	0.0	-9.6	200.0	96.6
=	0.0	-9.1	200.0	97.2
=	0.0	-8.6	200.0	97.7
=	0.0	-8.1	200.0	98.1
=	0.0	-7.6	200.0	98.4
=	0.0	-7.1	200.0	98.7
=	0.0	-6.6	200.0	98.9
=	0.0	-6.1	200.0	99.1
=	0.0	-5.6	200.0	99.3
=	0.0	-5.1	200.0	99.5
=	0.0	-4.6	200.0	99.5
=	0.0	-4.1	200.0	99.6
=	0.0	-3.6	200.0	99.7
=	0.0	-3.1	200.0	99.7
=	0.0	-2.6	200.0	99.8
=	0.0	-2.1	200.0	99.9
=	0.0	-1.6	200.0	100.0
=	0.0	-1.1	200.0	100.0
=	0.0	-0.6	200.0	100.0
=	0.0	-0.1	200.0	100.0
=	0.0	0.0	200.0	100.0
=	0.0	0.4	200.0	100.0
=	0.0	0.9	200.0	100.0
=	0.0	1.4	200.0	99.9
=	0.0	1.9	200.0	99.9
=	0.0	2.4	200.0	99.9
=	0.0	2.9	200.0	99.8
=	0.0	3.4	200.0	99.7
=	0.0	3.9	200.0	99.7
=	0.0	4.4	200.0	99.6
=	0.0	4.9	200.0	99.4
=	0.0	5.4	200.0	99.2
=	0.0	5.9	200.0	99.0
=	0.0	6.4	200.0	98.8
=	0.0	6.9	200.0	98.6
=	0.0	7.4	200.0	98.3
=	0.0	7.9	200.0	97.9
=	0.0	8.4	200.0	97.6
=	0.0	8.9	200.0	97.3
=	0.0	9.4	200.0	96.7
=	0.0	9.9	200.0	96.1
=	0.0	10.4	200.0	95.5
=	0.0	10.9	200.0	94.6
=	0.0	11.4	200.0	93.5
=	0.0	11.9	200.0	92.4
=	0.0	12.4	200.0	91.0
=	0.0	12.9	200.0	89.4
=	0.0	13.4	200.0	87.2
=	0.0	13.9	200.0	84.7
=	0.0	14.4	200.0	81.7
=	0.0	14.9	200.0	78.1
=	0.0	15.4	200.0	74.0
=	0.0	15.9	200.0	69.7
=	0.0	16.4	200.0	65.0
=	0.0	16.9	200.0	59.9
=	0.0	17.4	200.0	54.7
=	0.0	17.9	200.0	49.4
=	0.0	18.4	200.0	44.1
=	0.0	18.9	200.0	39.2
=	0.0	19.4	200.0	34.4
=	0.0	19.9	200.0	30.0
=	0.0	20.4	200.0	26.1
=	0.0	20.9	200.0	22.6
=	0.0	21.4	200.0	19.7
=	0.0	21.9	200.0	17.3
=	0.0	22.4	200.0	15.2
=	0.0	22.9	200.0	13.5
=	0.0	23.4	200.0	12.1
=	0.0	23.9	200.0	10.9
=	0.0	24.4	200.0	10.0
=	0.0	24.9	200.0	9.1
=	0.0	25.4	200.0	8.3
=	0.0	25.9	200.0	7.7
=	0.0	26.4	200.0	7.2
=	0.0	26.9	200.0	6.8
=	0.0	27.4	200.0	6.4
=	0.0	27.9	200.0	6.0
=	0.0	28.4	200.0	5.7
=	0.0	28.9	200.0	5.4
=	0.0	29.4	200.0	5.1
=	0.0	29.9	200.0	4.9
=	0.0	30.4	200.0	4.7
=	0.0	30.9	200.0	4.5
=	0.0	31.4	200.0	4.3
=	0.0	31.9	200.0	4.3
=	0.0	32.4	200.0	4.1
=	0.0	32.9	200.0	3.9
=	0.0	33.4	200.0	3.8
=	0.0	33.9	200.0	3.7
=	0.0	34.4	200.0	3.6
=	0.0	34.9	200.0	3.5
=	0.0	35.4	200.0	3.4
=	0.0	35.9	200.0	3.3
=	0.0	36.4	200.0	3.3
=	0.0	36.9	200.0	3.2
=	0.0	37.4	200.0	3.1
=	0.0	37.9	200.0	3.0
=	0.0	38.4	200.0	2.9
=	0.0	38.9	200.0	2.9
=	0.0	39.4	200.0	2.8
=	0.0	39.9	200.0	2.8
=	0.0	40.4	200.0	2.7
=	0.0	40.9	200.0	2.6
=	0.0	41.4	200.0	2.6
=	0.0	41.9	200.0	2.5
=	0.0	42.4	200.0	2.5
=	0.0	42.9	200.0	2.5
=	0.0	43.4	200.0	2.4
=	0.0	43.9	200.0	2.4
=	0.0	44.4	200.0	2.4
=	0.0	44.9	200.0	2.3
=	0.0	45.4	200.0	2.3
=	0.0	45.9	200.0	2.2
=	0.0	46.4	200.0	2.2
=	0.0	46.9	200.0	2.1
=	0.0	47.4	200.0	2.1
=	0.0	47.9	200.0	2.1
=	0.0	48.4	200.0	2.1
=	0.0	48.9	200.0	2.0
=	0.0	49.4	200.0	2.0
=	0.0	49.9	200.0	2.0
=	0.0	50.4	200.0	2.0
=	0.0	50.9	200.0	2.0
=	0.0	51.4	200.0	1.9
=	0.0	51.9	200.0	1.9
=	0.0	52.4	200.0	1.9
=	0.0	52.9	200.0	1.8
=	0.0	53.4	200.0	1.8
=	0.0	53.9	200.0	1.8
=	0.0	54.4	200.0	1.8
=	0.0	54.9	200.0	1.7
=	0.0	55.4	200.0	1.7
=	0.0	55.9	200.0	1.7
=	0.0	56.4	200.0	1.7
=	0.0	56.9	200.0	1.7
=	0.0	57.4	200.0	1.6
=	0.0	57.9	200.0	1.6
=	0.0	58.4	200.0	1.6
=	0.0	58.9	200.0	1.6
=	0.0	59.4	200.0	1.5
=	0.0	59.9	200.0	1.5
=	0.0	60.4	200.0	1.5
=	0.0	60.9	200.0	1.5
=	0.0	61.4	200.0	1.5
=	0.0	61.9	200.0	1.5
=	0.0	62.4	200.0	1.4
=	0.0	62.9	200.0	1.4
=	0.0	63.4	200.0	1.4
=	0.0	63.9	200.0	1.4
=	0.0	64.4	200.0	1.4
=	0.0	64.9	200.0	1.3
=	0.0	65.4	200.0	1.3
=	0.0	65.9	200.0	1.3
=	0.0	66.4	200.0	1.3
=	0.0	66.9	200.0	1.3
=	0.0	67.4	200.0	1.3
:EOM # End of Measurement
#
# RFA300 ASCII Measurement Dump ( BDS format )
#
# Measurement number 	5
#
%VNR 1.0
%MOD 	RAT
%TYP 	SCN
%SCN 	PRO
%FLD 	ION
%DAT 	09-21-2011
%TIM 	12:00:00
%FSZ 	030	030
%BMT 	PHO	   10.0
%SSD 	1000
%BUP 	0
%BRD 	1000
%FSH 	1
%ASC 	0
%WEG 	0
%GPO 	0
%CPO 	0
%MEA 	2
%PRD 	300,0
%PTS 	279
%STS 	    0.0	  -69.3	   300.0 # Start Scan values in mm ( X , Y , Z )
%EDS 	    0.0	   69.2	   300.0 # End Scan values in mm ( X , Y , Z )
#
#	  X      Y      Z     Dose
#
=	0.0	-69.3	300.0	1.6
=	0.0	-68.8	300.0	1.7
=	0.0	-68.3	300.0	1.7
=	0.0	-67.8	300.0	1.7
=	0.0	-67.3	300.0	1.8
=	0.0	-66.8	300.0	1.8
=	0.0	-66.3	300.0	1.8
=	0.0	-65.8	300.0	1.8
=	0.0	-65.3	300.0	1.9
=	0.0	-64.8	300.0	1.9
=	0.0	-64.3	300.0	1.9
=	0.0	-63.8	300.0	2.0
=	0.0	-63.3	300.0	2.0
=	0.0	-62.8	300.0	2.0
=	0.0	-62.3	300.0	2.0
=	0.0	-61.8	300.0	2.1
=	0.0	-61.3	300.0	2.1
=	0.0	-60.8	300.0	2.1
=	0.0	-60.3	300.0	2.1
=	0.0	-59.8	300.0	2.1
=	0.0	-59.3	300.0	2.1
=	0.0	-58.8	300.0	2.2
=	0.0	-58.3	300.0	2.2
=	0.0	-57.8	300.0	2.3
=	0.0	-57.3	300.0	2.3
=	0.0	-56.8	300.0	2.3
=	0.0	-56.3	300.0	2.3
=	0.0	-55.8	300.0	2.3
=	0.0	-55.3	300.0	2.4
=	0.0	-54.8	300.0	2.4
=	0.0	-54.3	300.0	2.4
=	0.0	-53.8	300.0	2.4
=	0.0	-53.3	300.0	2.4
=	0.0	-52.8	300.0	2.4
=	0.0	-52.3	300.0	2.5
=	0.0	-51.8	300.0	2.5
=	0.0	-51.3	300.0	2.6
=	0.0	-50.8	300.0	2.6
=	0.0	-50.3	300.0	2.7
=	0.0	-49.8	300.0	2.7
=	0.0	-49.3	300.0	2.7
=	0.0	-48.8	300.0	2.8
=	0.0	-48.3	300.0	2.8
=	0.0	-47.8	300.0	2.9
=	0.0	-47.3	300.0	2.9
=	0.0	-46.8	300.0	3.0
=	0.0	-46.3	300.0	3.0
=	0.0	-45.8	300.0	3.1
=	0.0	-45.3	300.0	3.1
=	0.0	-44.8	300.0	3.2
=	0.0	-44.3	300.0	3.2
=	0.0	-43.8	300.0	3.2
=	0.0	-43.3	300.0	3.3
=	0.0	-42.8	300.0	3.3
=	0.0	-42.3	300.0	3.4
=	0.0	-41.8	300.0	3.4
=	0.0	-41.3	300.0	3.5
=	0.0	-40.8	300.0	3.5
=	0.0	-40.3	300.0	3.6
=	0.0	-39.8	300.0	3.6
=	0.0	-39.3	300.0	3.7
=	0.0	-38.8	300.0	3.9
=	0.0	-38.3	300.0	3.9
=	0.0	-37.8	300.0	4.0
=	0.0	-37.3	300.0	4.1
=	0.0	-36.8	300.0	4.1
=	0.0	-36.3	300.0	4.2
=	0.0	-35.8	300.0	4.3
=	0.0	-35.3	300.0	4.4
=	0.0	-34.8	300.0	4.5
=	0.0	-34.3	300.0	4.7
=	0.0	-33.8	300.0	4.8
=	0.0	-33.3	300.0	5.0
=	0.0	-32.8	300.0	5.2
=	0.0	-32.3	300.0	5.3
=	0.0	-31.8	300.0	5.6
=	0.0	-31.3	300.0	5.8
=	0.0	-30.8	300.0	6.0
=	0.0	-30.3	300.0	6.3
=	0.0	-29.8	300.0	6.6
=	0.0	-29.3	300.0	7.0
=	0.0	-28.8	300.0	7.3
=	0.0	-28.3	300.0	7.8
=	0.0	-27.8	300.0	8.4
=	0.0	-27.3	300.0	8.8
=	0.0	-26.8	300.0	9.5
=	0.0	-26.3	300.0	10.4
=	0.0	-25.8	300.0	11.1
=	0.0	-25.3	300.0	12.2
=	0.0	-24.8	300.0	13.5
=	0.0	-24.3	300.0	14.9
=	0.0	-23.8	300.0	16.6
=	0.0	-23.3	300.0	18.6
=	0.0	-22.8	300.0	21.0
=	0.0	-22.3	300.0	24.0
=	0.0	-21.8	300.0	27.4
=	0.0	-21.3	300.0	31.2
=	0.0	-20.8	300.0	35.5
=	0.0	-20.3	300.0	40.3
=	0.0	-19.8	300.0	45.0
=	0.0	-19.3	300.0	49.9
=	0.0	-18.8	300.0	55.0
=	0.0	-18.3	300.0	60.0
=	0.0	-17.8	300.0	64.9
=	0.0	-17.3	300.0	69.7
=	0.0	-16.8	300.0	73.9
=	0.0	-16.3	300.0	77.6
=	0.0	-15.8	300.0	81.2
=	0.0	-15.3	300.0	84.4
=	0.0	-14.8	300.0	86.6
=	0.0	-14.3	300.0	88.6
=	0.0	-13.8	300.0	90.3
=	0.0	-13.3	300.0	91.7
=	0.0	-12.8	300.0	92.9
=	0.0	-12.3	300.0	93.9
=	0.0	-11.8	300.0	94.9
=	0.0	-11.3	300.0	95.5
=	0.0	-10.8	300.0	96.1
=	0.0	-10.3	300.0	96.6
=	0.0	-9.8	300.0	97.2
=	0.0	-9.3	300.0	97.8
=	0.0	-8.8	300.0	98.0
=	0.0	-8.3	300.0	98.3
=	0.0	-7.8	300.0	98.6
=	0.0	-7.3	300.0	98.8
=	0.0	-6.8	300.0	99.1
=	0.0	-6.3	300.0	99.2
=	0.0	-5.8	300.0	99.3
=	0.0	-5.3	300.0	99.4
=	0.0	-4.8	300.0	99.5
=	0.0	-4.3	300.0	99.6
=	0.0	-3.8	300.0	99.7
=	0.0	-3.3	300.0	99.7
=	0.0	-2.8	300.0	99.8
=	0.0	-2.3	300.0	99.9
=	0.0	-1.8	300.0	99.9
=	0.0	-1.3	300.0	100.0
=	0.0	-0.8	300.0	100.0
=	0.0	-0.3	300.0	100.0
=	0.0	0.0	300.0	100.0
=	0.0	0.2	300.0	100.0
=	0.0	0.7	300.0	100.0
=	0.0	1.2	300.0	99.9
=	0.0	1.7	300.0	99.9
=	0.0	2.2	300.0	99.8
=	0.0	2.7	300.0	99.7
=	0.0	3.2	300.0	99.7
=	0.0	3.7	300.0	99.6
=	0.0	4.2	300.0	99.5
=	0.0	4.7	300.0	99.4
=	0.0	5.2	300.0	99.3
=	0.0	5.7	300.0	99.2
=	0.0	6.2	300.0	99.1
=	0.0	6.7	300.0	99.0
=	0.0	7.2	300.0	98.8
=	0.0	7.7	300.0	98.6
=	0.0	8.2	300.0	98.3
=	0.0	8.7	300.0	97.9
=	0.0	9.2	300.0	97.7
=	0.0	9.7	300.0	97.4
=	0.0	10.2	300.0	96.8
=	0.0	10.7	300.0	96.2
=	0.0	11.2	300.0	95.4
=	0.0	11.7	300.0	94.8
=	0.0	12.2	300.0	94.0
=	0.0	12.7	300.0	93.2
=	0.0	13.2	300.0	91.9
=	0.0	13.7	300.0	90.6
=	0.0	14.2	300.0	89.0
=	0.0	14.7	300.0	86.9
=	0.0	15.2	300.0	84.6
=	0.0	15.7	300.0	81.7
=	0.0	16.2	300.0	78.4
=	0.0	16.7	300.0	74.8
=	0.0	17.2	300.0	70.8
=	0.0	17.7	300.0	66.2
=	0.0	18.2	300.0	61.4
=	0.0	18.7	300.0	56.5
=	0.0	19.2	300.0	51.4
=	0.0	19.7	300.0	46.3
=	0.0	20.2	300.0	41.5
=	0.0	20.7	300.0	36.7
=	0.0	21.2	300.0	32.2
=	0.0	21.7	300.0	28.4
=	0.0	22.2	300.0	24.9
=	0.0	22.7	300.0	21.8
=	0.0	23.2	300.0	19.1
=	0.0	23.7	300.0	16.9
=	0.0	24.2	300.0	15.2
=	0.0	24.7	300.0	13.7
=	0.0	25.2	300.0	12.4
=	0.0	25.7	300.0	11.3
=	0.0	26.2	300.0	10.5
=	0.0	26.7	300.0	9.6
=	0.0	27.2	300.0	8.9
=	0.0	27.7	300.0	8.4
=	0.0	28.2	300.0	7.9
=	0.0	28.7	300.0	7.4
=	0.0	29.2	300.0	7.1
=	0.0	29.7	300.0	6.6
=	0.0	30.2	300.0	6.4
=	0.0	30.7	300.0	6.1
=	0.0	31.2	300.0	5.7
=	0.0	31.7	300.0	5.6
=	0.0	32.2	300.0	5.4
=	0.0	32.7	300.0	5.2
=	0.0	33.2	300.0	5.0
=	0.0	33.7	300.0	4.9
=	0.0	34.2	300.0	4.7
=	0.0	34.7	300.0	4.5
=	0.0	35.2	300.0	4.4
=	0.0	35.7	300.0	4.3
=	0.0	36.2	300.0	4.2
=	0.0	36.7	300.0	4.2
=	0.0	37.2	300.0	4.1
=	0.0	37.7	300.0	4.0
=	0.0	38.2	300.0	3.9
=	0.0	38.7	300.0	3.8
=	0.0	39.2	300.0	3.7
=	0.0	39.7	300.0	3.7
=	0.0	40.2	300.0	3.6
=	0.0	40.7	300.0	3.6
