:MSR 	8	 # No. of measurement in file
:SYS BDS 0   # Beam Data Scanner System
#
# RFA300 ASCII Measurement Dump ( BDS format )
#
# Measurement number 	1
#
%VNR 1.0
%MOD 	RAT
%TYP 	SCN
%SCN 	DPT
%FLD 	ION
%DAT 	09-21-2011
%TIM 	12:00:00
%FSZ 	030	030
%BMT 	PHO	   10.0
%SSD 	1000
%BUP 	0
%BRD 	1000
%FSH 	1
%ASC 	0
%WEG 	0
%GPO 	0
%CPO 	0
%MEA 	1
%PRD 	0,0
%PTS 	928
%STS 	    0.0	  0.0	   0.0 # Start Scan values in mm ( X , Y , Z )
%EDS 	    0.0	   0.0	   347.9 # End Scan values in mm ( X , Y , Z )
#
#	  X      Y      Z     Dose
#
=	0.0	0.0	0.0	30.0
=	0.0	0.0	0.2	30.7
=	0.0	0.0	0.5	32.0
=	0.0	0.0	1.0	34.2
=	0.0	0.0	1.4	36.4
=	0.0	0.0	1.8	39.4
=	0.0	0.0	2.1	43.2
=	0.0	0.0	2.6	47.5
=	0.0	0.0	3.0	51.3
=	0.0	0.0	3.2	53.5
=	0.0	0.0	3.6	56.5
=	0.0	0.0	4.0	59.3
=	0.0	0.0	4.4	62.6
=	0.0	0.0	4.8	65.4
=	0.0	0.0	5.2	67.8
=	0.0	0.0	5.6	70.1
=	0.0	0.0	6.1	72.2
=	0.0	0.0	6.5	74.4
=	0.0	0.0	6.9	76.4
=	0.0	0.0	7.3	78.0
=	0.0	0.0	7.7	79.7
=	0.0	0.0	8.1	81.3
=	0.0	0.0	8.5	82.7
=	0.0	0.0	8.9	83.9
=	0.0	0.0	9.3	85.2
=	0.0	0.0	9.7	86.4
=	0.0	0.0	10.1	87.5
=	0.0	0.0	10.5	88.7
=	0.0	0.0	10.9	89.8
=	0.0	0.0	11.3	90.7
=	0.0	0.0	11.8	91.5
=	0.0	0.0	12.2	92.2
=	0.0	0.0	12.6	93.0
=	0.0	0.0	13.0	93.8
=	0.0	0.0	13.4	94.3
=	0.0	0.0	13.7	94.9
=	0.0	0.0	14.1	95.5
=	0.0	0.0	14.6	96.1
=	0.0	0.0	15.0	96.5
=	0.0	0.0	15.4	96.9
=	0.0	0.0	15.8	97.4
=	0.0	0.0	16.1	97.6
=	0.0	0.0	16.4	97.7
=	0.0	0.0	16.6	97.9
=	0.0	0.0	16.9	98.2
=	0.0	0.0	17.2	98.5
=	0.0	0.0	17.6	98.6
=	0.0	0.0	18.0	98.8
=	0.0	0.0	18.3	98.9
=	0.0	0.0	18.6	99.1
=	0.0	0.0	18.9	99.2
=	0.0	0.0	19.3	99.4
=	0.0	0.0	19.6	99.5
=	0.0	0.0	19.9	99.6
=	0.0	0.0	20.1	99.6
=	0.0	0.0	20.4	99.7
=	0.0	0.0	20.7	99.8
=	0.0	0.0	20.9	99.8
=	0.0	0.0	21.2	99.8
=	0.0	0.0	21.5	99.9
=	0.0	0.0	21.9	99.9
=	0.0	0.0	22.2	100.0
=	0.0	0.0	22.4	100.0
=	0.0	0.0	22.8	100.0
=	0.0	0.0	23.1	100.0
=	0.0	0.0	23.5	100.0
=	0.0	0.0	23.9	99.9
=	0.0	0.0	24.3	99.9
=	0.0	0.0	24.6	99.9
=	0.0	0.0	24.9	99.9
=	0.0	0.0	25.2	99.9
=	0.0	0.0	25.5	99.8
=	0.0	0.0	25.7	99.8
=	0.0	0.0	26.1	99.7
=	0.0	0.0	26.5	99.7
=	0.0	0.0	27.0	99.7
=	0.0	0.0	27.2	99.6
=	0.0	0.0	27.5	99.5
=	0.0	0.0	27.8	99.5
=	0.0	0.0	28.1	99.3
=	0.0	0.0	28.4	99.2
=	0.0	0.0	28.7	99.1
=	0.0	0.0	29.0	99.1
=	0.0	0.0	29.4	99.0
=	0.0	0.0	29.7	98.8
=	0.0	0.0	29.9	98.7
=	0.0	0.0	30.2	98.6
=	0.0	0.0	30.6	98.5
=	0.0	0.0	31.1	98.3
=	0.0	0.0	31.4	98.2
=	0.0	0.0	31.9	98.0
=	0.0	0.0	32.2	97.9
=	0.0	0.0	32.7	97.8
=	0.0	0.0	33.0	97.7
=	0.0	0.0	33.3	97.5
=	0.0	0.0	33.7	97.4
=	0.0	0.0	34.1	97.2
=	0.0	0.0	34.5	97.1
=	0.0	0.0	34.9	97.0
=	0.0	0.0	35.1	96.8
=	0.0	0.0	35.4	96.6
=	0.0	0.0	35.7	96.5
=	0.0	0.0	36.0	96.4
=	0.0	0.0	36.2	96.3
=	0.0	0.0	36.5	96.2
=	0.0	0.0	36.9	96.1
=	0.0	0.0	37.3	95.9
=	0.0	0.0	37.6	95.7
=	0.0	0.0	37.9	95.7
=	0.0	0.0	38.1	95.5
=	0.0	0.0	38.4	95.4
=	0.0	0.0	38.8	95.2
=	0.0	0.0	39.1	95.1
=	0.0	0.0	39.3	95.0
=	0.0	0.0	39.8	94.8
=	0.0	0.0	40.2	94.6
=	0.0	0.0	40.5	94.5
=	0.0	0.0	40.8	94.4
=	0.0	0.0	41.1	94.2
=	0.0	0.0	41.4	94.1
=	0.0	0.0	41.7	93.9
=	0.0	0.0	42.0	93.8
=	0.0	0.0	42.3	93.7
=	0.0	0.0	42.5	93.6
=	0.0	0.0	42.9	93.3
=	0.0	0.0	43.2	93.2
=	0.0	0.0	43.5	93.1
=	0.0	0.0	43.8	93.0
=	0.0	0.0	44.1	92.8
=	0.0	0.0	44.5	92.6
=	0.0	0.0	44.9	92.4
=	0.0	0.0	45.3	92.2
=	0.0	0.0	45.7	92.1
=	0.0	0.0	46.2	91.9
=	0.0	0.0	46.6	91.6
=	0.0	0.0	46.9	91.5
=	0.0	0.0	47.2	91.3
=	0.0	0.0	47.6	91.1
=	0.0	0.0	48.0	91.0
=	0.0	0.0	48.4	90.8
=	0.0	0.0	48.7	90.7
=	0.0	0.0	49.0	90.6
=	0.0	0.0	49.4	90.4
=	0.0	0.0	49.8	90.1
=	0.0	0.0	50.2	89.9
=	0.0	0.0	50.6	89.7
=	0.0	0.0	51.1	89.5
=	0.0	0.0	51.5	89.3
=	0.0	0.0	51.9	89.2
=	0.0	0.0	52.3	89.1
=	0.0	0.0	52.7	88.9
=	0.0	0.0	53.1	88.7
=	0.0	0.0	53.5	88.5
=	0.0	0.0	53.9	88.3
=	0.0	0.0	54.3	88.1
=	0.0	0.0	54.7	88.0
=	0.0	0.0	55.1	87.8
=	0.0	0.0	55.4	87.6
=	0.0	0.0	55.7	87.5
=	0.0	0.0	56.0	87.4
=	0.0	0.0	56.4	87.2
=	0.0	0.0	56.8	87.1
=	0.0	0.0	57.1	87.0
=	0.0	0.0	57.5	86.8
=	0.0	0.0	57.9	86.6
=	0.0	0.0	58.3	86.4
=	0.0	0.0	58.6	86.2
=	0.0	0.0	59.1	86.1
=	0.0	0.0	59.5	85.9
=	0.0	0.0	60.0	85.7
=	0.0	0.0	60.4	85.5
=	0.0	0.0	60.7	85.4
=	0.0	0.0	61.1	85.3
=	0.0	0.0	61.6	85.1
=	0.0	0.0	62.0	84.8
=	0.0	0.0	62.2	84.7
=	0.0	0.0	62.6	84.6
=	0.0	0.0	63.0	84.5
=	0.0	0.0	63.5	84.2
=	0.0	0.0	63.9	83.9
=	0.0	0.0	64.3	83.7
=	0.0	0.0	64.7	83.6
=	0.0	0.0	65.1	83.5
=	0.0	0.0	65.4	83.3
=	0.0	0.0	65.7	83.2
=	0.0	0.0	66.1	83.1
=	0.0	0.0	66.5	83.0
=	0.0	0.0	66.8	82.8
=	0.0	0.0	67.0	82.7
=	0.0	0.0	67.3	82.5
=	0.0	0.0	67.6	82.4
=	0.0	0.0	68.0	82.3
=	0.0	0.0	68.4	82.1
=	0.0	0.0	68.8	82.0
=	0.0	0.0	69.2	81.8
=	0.0	0.0	69.6	81.6
=	0.0	0.0	70.0	81.4
=	0.0	0.0	70.4	81.3
=	0.0	0.0	70.9	81.2
=	0.0	0.0	71.3	81.1
=	0.0	0.0	71.7	80.9
=	0.0	0.0	72.1	80.7
=	0.0	0.0	72.5	80.4
=	0.0	0.0	72.9	80.2
=	0.0	0.0	73.3	80.1
=	0.0	0.0	73.7	79.9
=	0.0	0.0	74.1	79.8
=	0.0	0.0	74.6	79.7
=	0.0	0.0	74.8	79.6
=	0.0	0.0	75.2	79.3
=	0.0	0.0	75.6	79.1
=	0.0	0.0	76.0	78.9
=	0.0	0.0	76.4	78.7
=	0.0	0.0	76.8	78.6
=	0.0	0.0	77.2	78.5
=	0.0	0.0	77.7	78.3
=	0.0	0.0	78.1	78.2
=	0.0	0.0	78.5	78.1
=	0.0	0.0	78.9	77.9
=	0.0	0.0	79.2	77.8
=	0.0	0.0	79.4	77.6
=	0.0	0.0	79.9	77.4
=	0.0	0.0	80.3	77.2
=	0.0	0.0	80.7	77.1
=	0.0	0.0	80.9	77.1
=	0.0	0.0	81.2	77.0
=	0.0	0.0	81.5	77.0
=	0.0	0.0	81.9	76.8
=	0.0	0.0	82.2	76.7
=	0.0	0.0	82.5	76.5
=	0.0	0.0	82.9	76.3
=	0.0	0.0	83.3	76.1
=	0.0	0.0	83.8	76.0
=	0.0	0.0	84.2	75.9
=	0.0	0.0	84.6	75.7
=	0.0	0.0	85.0	75.4
=	0.0	0.0	85.3	75.3
=	0.0	0.0	85.6	75.2
=	0.0	0.0	85.9	75.1
=	0.0	0.0	86.1	75.0
=	0.0	0.0	86.4	74.9
=	0.0	0.0	86.7	74.8
=	0.0	0.0	86.9	74.7
=	0.0	0.0	87.3	74.5
=	0.0	0.0	87.7	74.4
=	0.0	0.0	88.1	74.2
=	0.0	0.0	88.6	74.1
=	0.0	0.0	89.0	74.0
=	0.0	0.0	89.4	73.8
=	0.0	0.0	89.8	73.6
=	0.0	0.0	90.2	73.5
=	0.0	0.0	90.6	73.3
=	0.0	0.0	91.0	73.1
=	0.0	0.0	91.5	73.0
=	0.0	0.0	91.9	72.8
=	0.0	0.0	92.2	72.8
=	0.0	0.0	92.5	72.7
=	0.0	0.0	92.8	72.6
=	0.0	0.0	93.0	72.5
=	0.0	0.0	93.3	72.4
=	0.0	0.0	93.7	72.3
=	0.0	0.0	94.0	72.2
=	0.0	0.0	94.2	72.1
=	0.0	0.0	94.5	72.0
=	0.0	0.0	94.9	71.9
=	0.0	0.0	95.2	71.8
=	0.0	0.0	95.4	71.6
=	0.0	0.0	95.7	71.5
=	0.0	0.0	96.0	71.4
=	0.0	0.0	96.3	71.3
=	0.0	0.0	96.6	71.2
=	0.0	0.0	96.9	71.1
=	0.0	0.0	97.3	70.9
=	0.0	0.0	97.5	70.8
=	0.0	0.0	97.8	70.7
=	0.0	0.0	98.1	70.6
=	0.0	0.0	98.5	70.4
=	0.0	0.0	98.9	70.3
=	0.0	0.0	99.2	70.2
=	0.0	0.0	99.6	70.0
=	0.0	0.0	100.0	69.9
=	0.0	0.0	100.4	69.8
=	0.0	0.0	100.8	69.7
=	0.0	0.0	101.2	69.6
=	0.0	0.0	101.6	69.4
=	0.0	0.0	101.9	69.3
=	0.0	0.0	102.2	69.1
=	0.0	0.0	102.6	69.0
=	0.0	0.0	103.0	68.8
=	0.0	0.0	103.4	68.7
=	0.0	0.0	103.9	68.5
=	0.0	0.0	104.1	68.5
=	0.0	0.0	104.4	68.3
=	0.0	0.0	104.9	68.1
=	0.0	0.0	105.3	68.0
=	0.0	0.0	105.7	67.9
=	0.0	0.0	106.1	67.8
=	0.0	0.0	106.5	67.5
=	0.0	0.0	106.9	67.4
=	0.0	0.0	107.3	67.3
=	0.0	0.0	107.8	67.1
=	0.0	0.0	108.2	66.9
=	0.0	0.0	108.6	66.8
=	0.0	0.0	109.0	66.7
=	0.0	0.0	109.4	66.6
=	0.0	0.0	109.8	66.5
=	0.0	0.0	110.2	66.4
=	0.0	0.0	110.6	66.3
=	0.0	0.0	111.0	66.1
=	0.0	0.0	111.4	66.0
=	0.0	0.0	111.7	65.9
=	0.0	0.0	112.1	65.7
=	0.0	0.0	112.5	65.5
=	0.0	0.0	112.9	65.4
=	0.0	0.0	113.3	65.3
=	0.0	0.0	113.7	65.2
=	0.0	0.0	114.1	65.0
=	0.0	0.0	114.5	64.8
=	0.0	0.0	114.9	64.6
=	0.0	0.0	115.4	64.5
=	0.0	0.0	115.7	64.4
=	0.0	0.0	116.2	64.3
=	0.0	0.0	116.6	64.2
=	0.0	0.0	117.0	64.1
=	0.0	0.0	117.4	64.0
=	0.0	0.0	117.8	63.8
=	0.0	0.0	118.2	63.7
=	0.0	0.0	118.6	63.6
=	0.0	0.0	119.0	63.5
=	0.0	0.0	119.4	63.4
=	0.0	0.0	119.7	63.2
=	0.0	0.0	120.0	63.1
=	0.0	0.0	120.3	63.0
=	0.0	0.0	120.7	62.9
=	0.0	0.0	121.2	62.8
=	0.0	0.0	121.5	62.6
=	0.0	0.0	121.9	62.4
=	0.0	0.0	122.3	62.3
=	0.0	0.0	122.7	62.2
=	0.0	0.0	123.2	62.0
=	0.0	0.0	123.6	61.9
=	0.0	0.0	124.0	61.8
=	0.0	0.0	124.4	61.6
=	0.0	0.0	124.8	61.5
=	0.0	0.0	125.2	61.4
=	0.0	0.0	125.6	61.2
=	0.0	0.0	126.0	61.1
=	0.0	0.0	126.4	61.0
=	0.0	0.0	126.7	60.9
=	0.0	0.0	127.1	60.8
=	0.0	0.0	127.5	60.8
=	0.0	0.0	127.9	60.6
=	0.0	0.0	128.3	60.5
=	0.0	0.0	128.7	60.2
=	0.0	0.0	129.1	60.1
=	0.0	0.0	129.5	60.1
=	0.0	0.0	129.9	60.0
=	0.0	0.0	130.4	59.9
=	0.0	0.0	130.7	59.8
=	0.0	0.0	131.1	59.7
=	0.0	0.0	131.5	59.5
=	0.0	0.0	131.9	59.4
=	0.0	0.0	132.4	59.2
=	0.0	0.0	132.8	59.1
=	0.0	0.0	133.2	59.0
=	0.0	0.0	133.6	58.8
=	0.0	0.0	134.0	58.6
=	0.0	0.0	134.4	58.5
=	0.0	0.0	134.8	58.3
=	0.0	0.0	135.3	58.2
=	0.0	0.0	135.7	58.1
=	0.0	0.0	136.1	58.1
=	0.0	0.0	136.5	58.0
=	0.0	0.0	136.9	57.9
=	0.0	0.0	137.3	57.7
=	0.0	0.0	137.6	57.7
=	0.0	0.0	137.9	57.6
=	0.0	0.0	138.1	57.5
=	0.0	0.0	138.4	57.3
=	0.0	0.0	138.8	57.2
=	0.0	0.0	139.1	57.1
=	0.0	0.0	139.4	57.1
=	0.0	0.0	139.7	57.0
=	0.0	0.0	140.1	56.9
=	0.0	0.0	140.3	56.8
=	0.0	0.0	140.7	56.8
=	0.0	0.0	141.0	56.7
=	0.0	0.0	141.2	56.6
=	0.0	0.0	141.6	56.5
=	0.0	0.0	142.0	56.4
=	0.0	0.0	142.4	56.3
=	0.0	0.0	142.7	56.2
=	0.0	0.0	143.0	56.2
=	0.0	0.0	143.3	56.1
=	0.0	0.0	143.5	56.0
=	0.0	0.0	143.8	55.8
=	0.0	0.0	144.1	55.7
=	0.0	0.0	144.4	55.6
=	0.0	0.0	144.6	55.5
=	0.0	0.0	144.9	55.4
=	0.0	0.0	145.2	55.3
=	0.0	0.0	145.4	55.2
=	0.0	0.0	145.7	55.2
=	0.0	0.0	146.0	55.1
=	0.0	0.0	146.3	55.1
=	0.0	0.0	146.7	55.0
=	0.0	0.0	147.1	54.9
=	0.0	0.0	147.5	54.8
=	0.0	0.0	147.9	54.6
=	0.0	0.0	148.4	54.5
=	0.0	0.0	148.8	54.5
=	0.0	0.0	149.2	54.4
=	0.0	0.0	149.6	54.3
=	0.0	0.0	150.0	54.1
=	0.0	0.0	150.4	54.0
=	0.0	0.0	150.8	53.9
=	0.0	0.0	151.2	53.7
=	0.0	0.0	151.6	53.6
=	0.0	0.0	152.0	53.5
=	0.0	0.0	152.4	53.4
=	0.0	0.0	152.9	53.4
=	0.0	0.0	153.3	53.3
=	0.0	0.0	153.7	53.2
=	0.0	0.0	154.1	53.0
=	0.0	0.0	154.5	52.8
=	0.0	0.0	154.9	52.8
=	0.0	0.0	155.3	52.7
=	0.0	0.0	155.7	52.6
=	0.0	0.0	156.1	52.4
=	0.0	0.0	156.6	52.4
=	0.0	0.0	157.0	52.2
=	0.0	0.0	157.4	52.1
=	0.0	0.0	157.8	52.0
=	0.0	0.0	158.2	51.9
=	0.0	0.0	158.6	51.9
=	0.0	0.0	159.0	51.8
=	0.0	0.0	159.4	51.7
=	0.0	0.0	159.8	51.6
=	0.0	0.0	160.0	51.5
=	0.0	0.0	160.3	51.4
=	0.0	0.0	160.7	51.4
=	0.0	0.0	161.1	51.2
=	0.0	0.0	161.5	51.1
=	0.0	0.0	161.9	51.0
=	0.0	0.0	162.3	50.9
=	0.0	0.0	162.7	50.8
=	0.0	0.0	163.1	50.7
=	0.0	0.0	163.5	50.6
=	0.0	0.0	163.9	50.5
=	0.0	0.0	164.3	50.4
=	0.0	0.0	164.7	50.3
=	0.0	0.0	165.1	50.1
=	0.0	0.0	165.5	50.0
=	0.0	0.0	165.9	49.9
=	0.0	0.0	166.3	49.9
=	0.0	0.0	166.7	49.7
=	0.0	0.0	167.2	49.6
=	0.0	0.0	167.5	49.6
=	0.0	0.0	167.9	49.5
=	0.0	0.0	168.4	49.3
=	0.0	0.0	168.8	49.2
=	0.0	0.0	169.0	49.1
=	0.0	0.0	169.4	49.0
=	0.0	0.0	169.7	49.0
=	0.0	0.0	170.0	48.9
=	0.0	0.0	170.4	48.8
=	0.0	0.0	170.9	48.6
=	0.0	0.0	171.3	48.5
=	0.0	0.0	171.7	48.4
=	0.0	0.0	172.1	48.4
=	0.0	0.0	172.5	48.3
=	0.0	0.0	172.9	48.2
=	0.0	0.0	173.3	48.2
=	0.0	0.0	173.8	48.1
=	0.0	0.0	174.2	47.9
=	0.0	0.0	174.6	47.8
=	0.0	0.0	175.0	47.7
=	0.0	0.0	175.4	47.6
=	0.0	0.0	175.7	47.6
=	0.0	0.0	176.0	47.5
=	0.0	0.0	176.4	47.4
=	0.0	0.0	176.6	47.3
=	0.0	0.0	176.9	47.2
=	0.0	0.0	177.2	47.1
=	0.0	0.0	177.5	47.1
=	0.0	0.0	177.8	47.0
=	0.0	0.0	178.1	47.0
=	0.0	0.0	178.3	47.0
=	0.0	0.0	178.6	46.9
=	0.0	0.0	178.8	46.8
=	0.0	0.0	179.1	46.8
=	0.0	0.0	179.4	46.7
=	0.0	0.0	179.7	46.6
=	0.0	0.0	179.9	46.5
=	0.0	0.0	180.3	46.4
=	0.0	0.0	180.7	46.3
=	0.0	0.0	181.1	46.2
=	0.0	0.0	181.5	46.2
=	0.0	0.0	181.9	46.1
=	0.0	0.0	182.4	46.0
=	0.0	0.0	182.8	45.9
=	0.0	0.0	183.2	45.8
=	0.0	0.0	183.6	45.7
=	0.0	0.0	184.0	45.7
=	0.0	0.0	184.4	45.6
=	0.0	0.0	184.8	45.5
=	0.0	0.0	185.2	45.4
=	0.0	0.0	185.6	45.3
=	0.0	0.0	186.0	45.2
=	0.0	0.0	186.4	45.1
=	0.0	0.0	186.7	45.0
=	0.0	0.0	187.0	45.0
=	0.0	0.0	187.4	44.9
=	0.0	0.0	187.8	44.8
=	0.0	0.0	188.3	44.7
=	0.0	0.0	188.7	44.6
=	0.0	0.0	189.1	44.5
=	0.0	0.0	189.5	44.4
=	0.0	0.0	190.0	44.3
=	0.0	0.0	190.2	44.3
=	0.0	0.0	190.6	44.2
=	0.0	0.0	191.0	44.1
=	0.0	0.0	191.4	44.0
=	0.0	0.0	191.8	43.9
=	0.0	0.0	192.2	43.8
=	0.0	0.0	192.6	43.7
=	0.0	0.0	193.0	43.6
=	0.0	0.0	193.4	43.6
=	0.0	0.0	193.8	43.5
=	0.0	0.0	194.2	43.4
=	0.0	0.0	194.7	43.3
=	0.0	0.0	195.1	43.1
=	0.0	0.0	195.5	43.0
=	0.0	0.0	195.9	43.0
=	0.0	0.0	196.3	42.9
=	0.0	0.0	196.7	42.9
=	0.0	0.0	196.9	42.8
=	0.0	0.0	197.3	42.6
=	0.0	0.0	197.7	42.6
=	0.0	0.0	198.1	42.5
=	0.0	0.0	198.5	42.4
=	0.0	0.0	198.8	42.3
=	0.0	0.0	199.2	42.3
=	0.0	0.0	199.4	42.2
=	0.0	0.0	199.8	42.1
=	0.0	0.0	200.2	42.0
=	0.0	0.0	200.6	42.0
=	0.0	0.0	201.0	41.9
=	0.0	0.0	201.4	41.8
=	0.0	0.0	201.8	41.7
=	0.0	0.0	202.2	41.7
=	0.0	0.0	202.6	41.6
=	0.0	0.0	203.0	41.5
=	0.0	0.0	203.5	41.4
=	0.0	0.0	203.8	41.3
=	0.0	0.0	204.2	41.2
=	0.0	0.0	204.7	41.1
=	0.0	0.0	205.1	41.0
=	0.0	0.0	205.4	41.0
=	0.0	0.0	205.7	40.9
=	0.0	0.0	206.1	40.8
=	0.0	0.0	206.5	40.7
=	0.0	0.0	206.9	40.6
=	0.0	0.0	207.3	40.5
=	0.0	0.0	207.6	40.5
=	0.0	0.0	208.0	40.4
=	0.0	0.0	208.4	40.4
=	0.0	0.0	208.8	40.3
=	0.0	0.0	209.2	40.2
=	0.0	0.0	209.6	40.1
=	0.0	0.0	210.0	40.0
=	0.0	0.0	210.4	40.0
=	0.0	0.0	210.8	39.9
=	0.0	0.0	211.3	39.8
=	0.0	0.0	211.7	39.7
=	0.0	0.0	212.1	39.7
=	0.0	0.0	212.5	39.6
=	0.0	0.0	212.9	39.5
=	0.0	0.0	213.3	39.4
=	0.0	0.0	213.7	39.4
=	0.0	0.0	214.1	39.3
=	0.0	0.0	214.4	39.2
=	0.0	0.0	214.7	39.2
=	0.0	0.0	215.2	39.1
=	0.0	0.0	215.6	39.0
=	0.0	0.0	216.0	39.0
=	0.0	0.0	216.4	38.9
=	0.0	0.0	216.8	38.8
=	0.0	0.0	217.2	38.7
=	0.0	0.0	217.6	38.6
=	0.0	0.0	218.0	38.5
=	0.0	0.0	218.4	38.4
=	0.0	0.0	218.8	38.3
=	0.0	0.0	219.3	38.3
=	0.0	0.0	219.7	38.2
=	0.0	0.0	220.1	38.1
=	0.0	0.0	220.5	38.1
=	0.0	0.0	220.9	38.0
=	0.0	0.0	221.3	37.9
=	0.0	0.0	221.7	37.9
=	0.0	0.0	222.1	37.8
=	0.0	0.0	222.6	37.7
=	0.0	0.0	222.9	37.6
=	0.0	0.0	223.4	37.5
=	0.0	0.0	223.8	37.4
=	0.0	0.0	224.2	37.3
=	0.0	0.0	224.6	37.3
=	0.0	0.0	225.0	37.2
=	0.0	0.0	225.4	37.2
=	0.0	0.0	225.8	37.1
=	0.0	0.0	226.2	37.0
=	0.0	0.0	226.7	36.9
=	0.0	0.0	227.0	36.8
=	0.0	0.0	227.4	36.8
=	0.0	0.0	227.9	36.7
=	0.0	0.0	228.1	36.6
=	0.0	0.0	228.5	36.6
=	0.0	0.0	228.8	36.5
=	0.0	0.0	229.1	36.4
=	0.0	0.0	229.5	36.4
=	0.0	0.0	230.0	36.3
=	0.0	0.0	230.4	36.3
=	0.0	0.0	230.8	36.2
=	0.0	0.0	231.2	36.1
=	0.0	0.0	231.6	36.0
=	0.0	0.0	232.0	35.9
=	0.0	0.0	232.4	35.8
=	0.0	0.0	232.8	35.8
=	0.0	0.0	233.2	35.7
=	0.0	0.0	233.6	35.7
=	0.0	0.0	234.0	35.6
=	0.0	0.0	234.5	35.6
=	0.0	0.0	234.9	35.5
=	0.0	0.0	235.3	35.4
=	0.0	0.0	235.7	35.3
=	0.0	0.0	236.1	35.3
=	0.0	0.0	236.4	35.2
=	0.0	0.0	236.7	35.2
=	0.0	0.0	237.0	35.1
=	0.0	0.0	237.4	35.0
=	0.0	0.0	237.8	35.0
=	0.0	0.0	238.2	35.0
=	0.0	0.0	238.6	34.9
=	0.0	0.0	239.0	34.8
=	0.0	0.0	239.4	34.7
=	0.0	0.0	239.8	34.7
=	0.0	0.0	240.2	34.6
=	0.0	0.0	240.6	34.5
=	0.0	0.0	241.0	34.4
=	0.0	0.0	241.4	34.3
=	0.0	0.0	241.8	34.3
=	0.0	0.0	242.2	34.2
=	0.0	0.0	242.7	34.2
=	0.0	0.0	243.0	34.1
=	0.0	0.0	243.4	34.0
=	0.0	0.0	243.9	34.0
=	0.0	0.0	244.1	33.9
=	0.0	0.0	244.5	33.9
=	0.0	0.0	244.9	33.8
=	0.0	0.0	245.3	33.7
=	0.0	0.0	245.7	33.6
=	0.0	0.0	246.1	33.6
=	0.0	0.0	246.6	33.5
=	0.0	0.0	246.9	33.5
=	0.0	0.0	247.4	33.4
=	0.0	0.0	247.7	33.4
=	0.0	0.0	248.2	33.3
=	0.0	0.0	248.6	33.2
=	0.0	0.0	249.0	33.1
=	0.0	0.0	249.4	33.1
=	0.0	0.0	249.8	33.0
=	0.0	0.0	250.2	32.9
=	0.0	0.0	250.6	32.9
=	0.0	0.0	251.0	32.8
=	0.0	0.0	251.4	32.7
=	0.0	0.0	251.7	32.7
=	0.0	0.0	252.0	32.6
=	0.0	0.0	252.5	32.5
=	0.0	0.0	252.9	32.4
=	0.0	0.0	253.3	32.4
=	0.0	0.0	253.7	32.3
=	0.0	0.0	254.0	32.3
=	0.0	0.0	254.3	32.2
=	0.0	0.0	254.5	32.2
=	0.0	0.0	254.9	32.1
=	0.0	0.0	255.3	32.1
=	0.0	0.0	255.7	32.0
=	0.0	0.0	256.1	31.9
=	0.0	0.0	256.5	31.9
=	0.0	0.0	256.8	31.9
=	0.0	0.0	257.2	31.8
=	0.0	0.0	257.6	31.8
=	0.0	0.0	258.0	31.7
=	0.0	0.0	258.4	31.7
=	0.0	0.0	258.8	31.6
=	0.0	0.0	259.2	31.6
=	0.0	0.0	259.6	31.5
=	0.0	0.0	260.0	31.4
=	0.0	0.0	260.4	31.4
=	0.0	0.0	260.8	31.3
=	0.0	0.0	261.2	31.3
=	0.0	0.0	261.6	31.2
=	0.0	0.0	262.1	31.1
=	0.0	0.0	262.4	31.0
=	0.0	0.0	262.9	31.0
=	0.0	0.0	263.3	30.9
=	0.0	0.0	263.7	30.9
=	0.0	0.0	264.1	30.8
=	0.0	0.0	264.5	30.8
=	0.0	0.0	265.0	30.7
=	0.0	0.0	265.4	30.7
=	0.0	0.0	265.8	30.6
=	0.0	0.0	266.2	30.5
=	0.0	0.0	266.5	30.5
=	0.0	0.0	266.8	30.4
=	0.0	0.0	267.1	30.4
=	0.0	0.0	267.4	30.4
=	0.0	0.0	267.6	30.3
=	0.0	0.0	267.9	30.2
=	0.0	0.0	268.2	30.2
=	0.0	0.0	268.6	30.2
=	0.0	0.0	269.0	30.1
=	0.0	0.0	269.4	30.0
=	0.0	0.0	269.9	29.9
=	0.0	0.0	270.2	29.9
=	0.0	0.0	270.7	29.8
=	0.0	0.0	271.0	29.8
=	0.0	0.0	271.3	29.8
=	0.0	0.0	271.5	29.7
=	0.0	0.0	271.8	29.7
=	0.0	0.0	272.1	29.7
=	0.0	0.0	272.5	29.6
=	0.0	0.0	272.8	29.5
=	0.0	0.0	273.1	29.5
=	0.0	0.0	273.6	29.4
=	0.0	0.0	274.0	29.4
=	0.0	0.0	274.4	29.3
=	0.0	0.0	274.8	29.3
=	0.0	0.0	275.2	29.2
=	0.0	0.0	275.6	29.2
=	0.0	0.0	276.0	29.1
=	0.0	0.0	276.5	29.1
=	0.0	0.0	276.9	29.0
=	0.0	0.0	277.3	28.9
=	0.0	0.0	277.7	28.9
=	0.0	0.0	278.1	28.8
=	0.0	0.0	278.5	28.7
=	0.0	0.0	278.9	28.7
=	0.0	0.0	279.3	28.6
=	0.0	0.0	279.7	28.6
=	0.0	0.0	280.1	28.5
=	0.0	0.0	280.6	28.5
=	0.0	0.0	281.0	28.4
=	0.0	0.0	281.4	28.4
=	0.0	0.0	281.8	28.3
=	0.0	0.0	282.2	28.3
=	0.0	0.0	282.6	28.2
=	0.0	0.0	282.8	28.1
=	0.0	0.0	283.2	28.1
=	0.0	0.0	283.6	28.0
=	0.0	0.0	284.0	28.0
=	0.0	0.0	284.4	28.0
=	0.0	0.0	284.7	27.9
=	0.0	0.0	285.0	27.9
=	0.0	0.0	285.3	27.9
=	0.0	0.0	285.7	27.8
=	0.0	0.0	286.0	27.8
=	0.0	0.0	286.3	27.7
=	0.0	0.0	286.7	27.7
=	0.0	0.0	287.1	27.6
=	0.0	0.0	287.5	27.5
=	0.0	0.0	287.9	27.5
=	0.0	0.0	288.4	27.4
=	0.0	0.0	288.8	27.4
=	0.0	0.0	289.2	27.3
=	0.0	0.0	289.6	27.3
=	0.0	0.0	290.0	27.2
=	0.0	0.0	290.4	27.2
=	0.0	0.0	290.8	27.1
=	0.0	0.0	291.2	27.0
=	0.0	0.0	291.6	27.0
=	0.0	0.0	292.0	26.9
=	0.0	0.0	292.4	26.9
=	0.0	0.0	292.8	26.8
=	0.0	0.0	293.2	26.8
=	0.0	0.0	293.6	26.8
=	0.0	0.0	293.8	26.7
=	0.0	0.0	294.1	26.7
=	0.0	0.0	294.5	26.7
=	0.0	0.0	295.0	26.6
=	0.0	0.0	295.4	26.5
=	0.0	0.0	295.7	26.5
=	0.0	0.0	296.2	26.4
=	0.0	0.0	296.6	26.3
=	0.0	0.0	297.0	26.3
=	0.0	0.0	297.4	26.3
=	0.0	0.0	297.8	26.2
=	0.0	0.0	298.2	26.1
=	0.0	0.0	298.7	26.1
=	0.0	0.0	299.0	26.0
=	0.0	0.0	299.5	26.0
=	0.0	0.0	299.8	26.0
=	0.0	0.0	300.2	25.9
=	0.0	0.0	300.5	25.9
=	0.0	0.0	300.8	25.9
=	0.0	0.0	301.2	25.8
=	0.0	0.0	301.6	25.7
=	0.0	0.0	302.1	25.7
=	0.0	0.0	302.5	25.7
=	0.0	0.0	302.9	25.6
=	0.0	0.0	303.3	25.5
=	0.0	0.0	303.7	25.5
=	0.0	0.0	304.1	25.4
=	0.0	0.0	304.5	25.4
=	0.0	0.0	304.8	25.3
=	0.0	0.0	305.1	25.3
=	0.0	0.0	305.5	25.3
=	0.0	0.0	305.9	25.2
=	0.0	0.0	306.3	25.2
=	0.0	0.0	306.6	25.2
=	0.0	0.0	307.1	25.1
=	0.0	0.0	307.5	25.1
=	0.0	0.0	307.9	25.0
=	0.0	0.0	308.3	25.0
=	0.0	0.0	308.7	24.9
=	0.0	0.0	309.1	24.8
=	0.0	0.0	309.5	24.8
=	0.0	0.0	309.9	24.7
=	0.0	0.0	310.3	24.7
=	0.0	0.0	310.7	24.6
=	0.0	0.0	311.2	24.6
=	0.0	0.0	311.5	24.5
=	0.0	0.0	312.0	24.5
=	0.0	0.0	312.3	24.5
=	0.0	0.0	312.8	24.4
=	0.0	0.0	313.2	24.4
=	0.0	0.0	313.6	24.3
=	0.0	0.0	313.9	24.3
=	0.0	0.0	314.2	24.2
=	0.0	0.0	314.6	24.1
=	0.0	0.0	315.0	24.1
=	0.0	0.0	315.5	24.1
=	0.0	0.0	315.8	24.0
=	0.0	0.0	316.2	24.0
=	0.0	0.0	316.7	23.9
=	0.0	0.0	317.0	23.9
=	0.0	0.0	317.4	23.8
=	0.0	0.0	317.8	23.8
=	0.0	0.0	318.1	23.8
=	0.0	0.0	318.5	23.8
=	0.0	0.0	318.9	23.7
=	0.0	0.0	319.3	23.7
=	0.0	0.0	319.7	23.7
=	0.0	0.0	320.1	23.6
=	0.0	0.0	320.5	23.6
=	0.0	0.0	320.8	23.6
=	0.0	0.0	321.0	23.5
=	0.0	0.0	321.3	23.4
=	0.0	0.0	321.6	23.4
=	0.0	0.0	321.8	23.4
=	0.0	0.0	322.2	23.3
=	0.0	0.0	322.6	23.3
=	0.0	0.0	323.0	23.2
=	0.0	0.0	323.4	23.2
=	0.0	0.0	323.8	23.2
=	0.0	0.0	324.2	23.1
=	0.0	0.0	324.6	23.1
=	0.0	0.0	325.0	23.1
=	0.0	0.0	325.4	23.0
=	0.0	0.0	325.8	23.0
=	0.0	0.0	326.2	22.9
=	0.0	0.0	326.6	22.9
=	0.0	0.0	327.1	22.8
=	0.0	0.0	327.5	22.8
=	0.0	0.0	327.9	22.7
=	0.0	0.0	328.3	22.7
=	0.0	0.0	328.7	22.6
=	0.0	0.0	329.1	22.6
=	0.0	0.0	329.5	22.6
=	0.0	0.0	329.9	22.5
=	0.0	0.0	330.3	22.5
=	0.0	0.0	330.7	22.5
=	0.0	0.0	331.1	22.4
=	0.0	0.0	331.5	22.4
=	0.0	0.0	331.9	22.3
=	0.0	0.0	332.3	22.3
=	0.0	0.0	332.7	22.2
=	0.0	0.0	333.1	22.2
=	0.0	0.0	333.5	22.1
=	0.0	0.0	333.9	22.1
=	0.0	0.0	334.3	22.1
=	0.0	0.0	334.8	22.0
=	0.0	0.0	335.2	22.0
=	0.0	0.0	335.6	21.9
=	0.0	0.0	336.0	21.9
=	0.0	0.0	336.4	21.8
=	0.0	0.0	336.8	21.8
=	0.0	0.0	337.2	21.8
=	0.0	0.0	337.6	21.7
=	0.0	0.0	338.0	21.7
=	0.0	0.0	338.3	21.7
=	0.0	0.0	338.7	21.6
=	0.0	0.0	339.1	21.6
=	0.0	0.0	339.5	21.5
=	0.0	0.0	339.9	21.5
=	0.0	0.0	340.2	21.5
=	0.0	0.0	340.5	21.4
=	0.0	0.0	340.8	21.4
=	0.0	0.0	341.0	21.4
=	0.0	0.0	341.3	21.4
=	0.0	0.0	341.6	21.3
=	0.0	0.0	341.9	21.3
=	0.0	0.0	342.3	21.3
=	0.0	0.0	342.7	21.2
=	0.0	0.0	343.0	21.2
=	0.0	0.0	343.4	21.1
=	0.0	0.0	343.8	21.1
=	0.0	0.0	344.3	21.0
=	0.0	0.0	344.7	21.0
=	0.0	0.0	345.0	20.9
=	0.0	0.0	345.4	20.9
=	0.0	0.0	345.7	20.9
=	0.0	0.0	346.0	20.9
=	0.0	0.0	346.3	20.9
=	0.0	0.0	346.8	20.8
=	0.0	0.0	347.0	20.8
=	0.0	0.0	347.4	20.7
=	0.0	0.0	347.9	20.7
:EOM # End of Measurement
#
# RFA300 ASCII Measurement Dump ( BDS format )
#
# Measurement number 	2
#
%VNR 1.0
%MOD 	RAT
%TYP 	SCN
%SCN 	DPT
%FLD 	ION
%DAT 	09-21-2011
%TIM 	12:00:00
%FSZ 	040	040
%BMT 	PHO	   10.0
%SSD 	1000
%BUP 	0
%BRD 	1000
%FSH 	1
%ASC 	0
%WEG 	0
%GPO 	0
%CPO 	0
%MEA 	1
%PRD 	0,0
%PTS 	937
%STS 	    0.0	  0.0	   0.0 # Start Scan values in mm ( X , Y , Z )
%EDS 	    0.0	   0.0	   348.1 # End Scan values in mm ( X , Y , Z )
#
#	  X      Y      Z     Dose
#
=	0.0	0.0	0.0	30.7
=	0.0	0.0	0.3	31.8
=	0.0	0.0	0.7	33.5
=	0.0	0.0	1.1	35.7
=	0.0	0.0	1.5	38.3
=	0.0	0.0	1.9	41.9
=	0.0	0.0	2.4	45.8
=	0.0	0.0	2.8	49.6
=	0.0	0.0	3.2	53.3
=	0.0	0.0	3.6	56.4
=	0.0	0.0	4.0	59.5
=	0.0	0.0	4.4	62.5
=	0.0	0.0	4.6	64.2
=	0.0	0.0	4.9	66.1
=	0.0	0.0	5.2	67.5
=	0.0	0.0	5.5	69.5
=	0.0	0.0	5.9	71.3
=	0.0	0.0	6.1	72.5
=	0.0	0.0	6.4	74.0
=	0.0	0.0	6.7	75.3
=	0.0	0.0	7.0	76.6
=	0.0	0.0	7.3	77.9
=	0.0	0.0	7.7	79.5
=	0.0	0.0	8.1	81.0
=	0.0	0.0	8.5	82.6
=	0.0	0.0	8.8	83.6
=	0.0	0.0	9.1	84.4
=	0.0	0.0	9.3	85.2
=	0.0	0.0	9.6	85.9
=	0.0	0.0	9.9	86.7
=	0.0	0.0	10.2	87.7
=	0.0	0.0	10.6	88.6
=	0.0	0.0	10.8	89.2
=	0.0	0.0	11.1	89.8
=	0.0	0.0	11.5	90.7
=	0.0	0.0	11.9	91.4
=	0.0	0.0	12.2	91.9
=	0.0	0.0	12.5	92.5
=	0.0	0.0	12.8	93.1
=	0.0	0.0	13.0	93.5
=	0.0	0.0	13.3	94.0
=	0.0	0.0	13.7	94.5
=	0.0	0.0	13.9	94.9
=	0.0	0.0	14.2	95.3
=	0.0	0.0	14.5	95.6
=	0.0	0.0	14.8	95.9
=	0.0	0.0	15.0	96.2
=	0.0	0.0	15.3	96.5
=	0.0	0.0	15.6	96.8
=	0.0	0.0	15.9	97.1
=	0.0	0.0	16.2	97.3
=	0.0	0.0	16.5	97.5
=	0.0	0.0	16.8	97.8
=	0.0	0.0	17.1	98.1
=	0.0	0.0	17.4	98.4
=	0.0	0.0	17.8	98.5
=	0.0	0.0	18.2	98.7
=	0.0	0.0	18.7	99.1
=	0.0	0.0	19.1	99.2
=	0.0	0.0	19.4	99.4
=	0.0	0.0	19.7	99.5
=	0.0	0.0	20.1	99.6
=	0.0	0.0	20.5	99.7
=	0.0	0.0	20.9	99.8
=	0.0	0.0	21.3	99.8
=	0.0	0.0	21.7	99.9
=	0.0	0.0	22.1	99.9
=	0.0	0.0	22.5	100.0
=	0.0	0.0	22.9	100.0
=	0.0	0.0	23.3	100.0
=	0.0	0.0	23.7	100.0
=	0.0	0.0	24.1	100.0
=	0.0	0.0	24.4	99.9
=	0.0	0.0	24.7	99.9
=	0.0	0.0	25.1	99.9
=	0.0	0.0	25.6	99.8
=	0.0	0.0	26.0	99.8
=	0.0	0.0	26.4	99.8
=	0.0	0.0	26.7	99.7
=	0.0	0.0	27.2	99.7
=	0.0	0.0	27.6	99.6
=	0.0	0.0	27.8	99.5
=	0.0	0.0	28.2	99.5
=	0.0	0.0	28.6	99.4
=	0.0	0.0	29.0	99.2
=	0.0	0.0	29.4	99.1
=	0.0	0.0	29.7	99.0
=	0.0	0.0	30.0	98.9
=	0.0	0.0	30.4	98.9
=	0.0	0.0	30.9	98.8
=	0.0	0.0	31.2	98.7
=	0.0	0.0	31.6	98.5
=	0.0	0.0	32.1	98.2
=	0.0	0.0	32.5	98.1
=	0.0	0.0	32.9	97.9
=	0.0	0.0	33.2	97.8
=	0.0	0.0	33.6	97.7
=	0.0	0.0	34.1	97.6
=	0.0	0.0	34.5	97.4
=	0.0	0.0	34.9	97.1
=	0.0	0.0	35.3	96.9
=	0.0	0.0	35.7	96.8
=	0.0	0.0	36.1	96.6
=	0.0	0.0	36.5	96.5
=	0.0	0.0	36.9	96.4
=	0.0	0.0	37.3	96.2
=	0.0	0.0	37.7	96.1
=	0.0	0.0	38.1	95.8
=	0.0	0.0	38.5	95.6
=	0.0	0.0	38.9	95.5
=	0.0	0.0	39.3	95.4
=	0.0	0.0	39.8	95.2
=	0.0	0.0	40.2	95.0
=	0.0	0.0	40.6	94.7
=	0.0	0.0	41.0	94.6
=	0.0	0.0	41.4	94.4
=	0.0	0.0	41.8	94.2
=	0.0	0.0	42.2	94.1
=	0.0	0.0	42.7	93.9
=	0.0	0.0	43.0	93.7
=	0.0	0.0	43.4	93.5
=	0.0	0.0	43.7	93.4
=	0.0	0.0	44.0	93.3
=	0.0	0.0	44.4	93.0
=	0.0	0.0	44.8	92.9
=	0.0	0.0	45.1	92.8
=	0.0	0.0	45.5	92.6
=	0.0	0.0	45.9	92.5
=	0.0	0.0	46.3	92.3
=	0.0	0.0	46.6	92.2
=	0.0	0.0	46.8	92.1
=	0.0	0.0	47.1	91.9
=	0.0	0.0	47.5	91.6
=	0.0	0.0	47.9	91.5
=	0.0	0.0	48.3	91.4
=	0.0	0.0	48.8	91.3
=	0.0	0.0	49.2	91.0
=	0.0	0.0	49.6	90.8
=	0.0	0.0	50.0	90.6
=	0.0	0.0	50.4	90.5
=	0.0	0.0	50.8	90.3
=	0.0	0.0	51.2	90.1
=	0.0	0.0	51.6	89.9
=	0.0	0.0	52.0	89.8
=	0.0	0.0	52.4	89.6
=	0.0	0.0	52.7	89.5
=	0.0	0.0	52.9	89.4
=	0.0	0.0	53.3	89.3
=	0.0	0.0	53.7	89.1
=	0.0	0.0	54.1	88.8
=	0.0	0.0	54.5	88.6
=	0.0	0.0	54.9	88.5
=	0.0	0.0	55.3	88.5
=	0.0	0.0	55.8	88.2
=	0.0	0.0	56.2	88.0
=	0.0	0.0	56.6	87.7
=	0.0	0.0	57.0	87.6
=	0.0	0.0	57.3	87.5
=	0.0	0.0	57.7	87.4
=	0.0	0.0	58.1	87.2
=	0.0	0.0	58.6	87.0
=	0.0	0.0	58.9	86.9
=	0.0	0.0	59.4	86.7
=	0.0	0.0	59.8	86.4
=	0.0	0.0	60.3	86.2
=	0.0	0.0	60.7	86.0
=	0.0	0.0	61.1	85.8
=	0.0	0.0	61.5	85.6
=	0.0	0.0	61.9	85.5
=	0.0	0.0	62.3	85.3
=	0.0	0.0	62.7	85.2
=	0.0	0.0	63.1	85.0
=	0.0	0.0	63.5	84.8
=	0.0	0.0	63.9	84.7
=	0.0	0.0	64.4	84.5
=	0.0	0.0	64.8	84.4
=	0.0	0.0	65.2	84.2
=	0.0	0.0	65.6	84.0
=	0.0	0.0	66.0	83.8
=	0.0	0.0	66.4	83.6
=	0.0	0.0	66.8	83.5
=	0.0	0.0	67.2	83.3
=	0.0	0.0	67.7	83.1
=	0.0	0.0	68.1	82.9
=	0.0	0.0	68.5	82.8
=	0.0	0.0	68.9	82.6
=	0.0	0.0	69.3	82.5
=	0.0	0.0	69.7	82.3
=	0.0	0.0	70.1	82.1
=	0.0	0.0	70.5	82.0
=	0.0	0.0	71.0	81.8
=	0.0	0.0	71.4	81.7
=	0.0	0.0	71.8	81.6
=	0.0	0.0	72.2	81.4
=	0.0	0.0	72.6	81.1
=	0.0	0.0	73.0	80.9
=	0.0	0.0	73.4	80.7
=	0.0	0.0	73.8	80.6
=	0.0	0.0	74.2	80.4
=	0.0	0.0	74.7	80.2
=	0.0	0.0	75.1	80.1
=	0.0	0.0	75.5	80.0
=	0.0	0.0	75.9	79.8
=	0.0	0.0	76.3	79.6
=	0.0	0.0	76.7	79.4
=	0.0	0.0	77.1	79.3
=	0.0	0.0	77.5	79.2
=	0.0	0.0	78.0	79.0
=	0.0	0.0	78.4	78.8
=	0.0	0.0	78.8	78.7
=	0.0	0.0	79.2	78.5
=	0.0	0.0	79.6	78.4
=	0.0	0.0	80.0	78.2
=	0.0	0.0	80.4	78.1
=	0.0	0.0	80.6	78.0
=	0.0	0.0	80.9	77.9
=	0.0	0.0	81.2	77.8
=	0.0	0.0	81.5	77.7
=	0.0	0.0	81.8	77.5
=	0.0	0.0	82.0	77.4
=	0.0	0.0	82.3	77.3
=	0.0	0.0	82.6	77.2
=	0.0	0.0	82.9	77.1
=	0.0	0.0	83.3	77.0
=	0.0	0.0	83.5	76.9
=	0.0	0.0	83.8	76.7
=	0.0	0.0	84.1	76.6
=	0.0	0.0	84.4	76.5
=	0.0	0.0	84.7	76.4
=	0.0	0.0	85.0	76.1
=	0.0	0.0	85.4	76.0
=	0.0	0.0	85.8	75.9
=	0.0	0.0	86.2	75.9
=	0.0	0.0	86.6	75.7
=	0.0	0.0	87.1	75.6
=	0.0	0.0	87.5	75.4
=	0.0	0.0	87.9	75.2
=	0.0	0.0	88.3	75.0
=	0.0	0.0	88.7	74.9
=	0.0	0.0	89.1	74.7
=	0.0	0.0	89.5	74.5
=	0.0	0.0	89.9	74.4
=	0.0	0.0	90.3	74.2
=	0.0	0.0	90.7	74.1
=	0.0	0.0	91.2	73.9
=	0.0	0.0	91.6	73.8
=	0.0	0.0	91.9	73.6
=	0.0	0.0	92.3	73.5
=	0.0	0.0	92.7	73.3
=	0.0	0.0	93.0	73.2
=	0.0	0.0	93.3	73.1
=	0.0	0.0	93.6	73.0
=	0.0	0.0	94.0	72.8
=	0.0	0.0	94.4	72.7
=	0.0	0.0	94.8	72.6
=	0.0	0.0	95.2	72.4
=	0.0	0.0	95.6	72.3
=	0.0	0.0	96.0	72.0
=	0.0	0.0	96.4	71.9
=	0.0	0.0	96.9	71.7
=	0.0	0.0	97.3	71.6
=	0.0	0.0	97.7	71.5
=	0.0	0.0	98.1	71.3
=	0.0	0.0	98.5	71.3
=	0.0	0.0	98.9	71.1
=	0.0	0.0	99.4	70.9
=	0.0	0.0	99.8	70.8
=	0.0	0.0	100.2	70.6
=	0.0	0.0	100.6	70.5
=	0.0	0.0	101.0	70.3
=	0.0	0.0	101.4	70.2
=	0.0	0.0	101.8	70.1
=	0.0	0.0	102.2	69.9
=	0.0	0.0	102.6	69.7
=	0.0	0.0	103.1	69.6
=	0.0	0.0	103.5	69.5
=	0.0	0.0	103.9	69.4
=	0.0	0.0	104.2	69.2
=	0.0	0.0	104.5	69.0
=	0.0	0.0	104.9	68.9
=	0.0	0.0	105.3	68.7
=	0.0	0.0	105.7	68.6
=	0.0	0.0	106.1	68.5
=	0.0	0.0	106.5	68.4
=	0.0	0.0	106.9	68.2
=	0.0	0.0	107.3	68.1
=	0.0	0.0	107.8	68.0
=	0.0	0.0	108.2	67.8
=	0.0	0.0	108.6	67.6
=	0.0	0.0	109.0	67.5
=	0.0	0.0	109.4	67.5
=	0.0	0.0	109.8	67.4
=	0.0	0.0	110.2	67.2
=	0.0	0.0	110.6	67.0
=	0.0	0.0	111.0	66.8
=	0.0	0.0	111.4	66.7
=	0.0	0.0	111.8	66.7
=	0.0	0.0	112.2	66.5
=	0.0	0.0	112.6	66.4
=	0.0	0.0	113.0	66.2
=	0.0	0.0	113.5	66.1
=	0.0	0.0	113.9	66.0
=	0.0	0.0	114.3	65.9
=	0.0	0.0	114.7	65.8
=	0.0	0.0	115.1	65.5
=	0.0	0.0	115.5	65.3
=	0.0	0.0	115.9	65.3
=	0.0	0.0	116.3	65.1
=	0.0	0.0	116.7	65.1
=	0.0	0.0	117.1	65.0
=	0.0	0.0	117.6	64.8
=	0.0	0.0	118.0	64.6
=	0.0	0.0	118.4	64.5
=	0.0	0.0	118.8	64.3
=	0.0	0.0	119.2	64.1
=	0.0	0.0	119.6	64.0
=	0.0	0.0	120.0	63.9
=	0.0	0.0	120.4	63.8
=	0.0	0.0	120.8	63.6
=	0.0	0.0	121.2	63.5
=	0.0	0.0	121.6	63.4
=	0.0	0.0	121.9	63.3
=	0.0	0.0	122.2	63.2
=	0.0	0.0	122.4	63.2
=	0.0	0.0	122.7	63.1
=	0.0	0.0	123.0	63.0
=	0.0	0.0	123.3	62.9
=	0.0	0.0	123.5	62.8
=	0.0	0.0	123.9	62.6
=	0.0	0.0	124.3	62.5
=	0.0	0.0	124.6	62.4
=	0.0	0.0	124.9	62.3
=	0.0	0.0	125.3	62.2
=	0.0	0.0	125.8	62.1
=	0.0	0.0	126.2	62.0
=	0.0	0.0	126.5	61.8
=	0.0	0.0	126.8	61.8
=	0.0	0.0	127.0	61.7
=	0.0	0.0	127.4	61.6
=	0.0	0.0	127.7	61.4
=	0.0	0.0	128.0	61.4
=	0.0	0.0	128.3	61.3
=	0.0	0.0	128.6	61.2
=	0.0	0.0	128.8	61.2
=	0.0	0.0	129.1	61.1
=	0.0	0.0	129.4	61.0
=	0.0	0.0	129.7	60.9
=	0.0	0.0	130.1	60.8
=	0.0	0.0	130.5	60.6
=	0.0	0.0	130.9	60.5
=	0.0	0.0	131.2	60.4
=	0.0	0.0	131.5	60.3
=	0.0	0.0	131.9	60.2
=	0.0	0.0	132.2	60.1
=	0.0	0.0	132.5	60.0
=	0.0	0.0	132.9	59.9
=	0.0	0.0	133.1	59.8
=	0.0	0.0	133.5	59.7
=	0.0	0.0	133.8	59.7
=	0.0	0.0	134.1	59.6
=	0.0	0.0	134.5	59.5
=	0.0	0.0	135.0	59.3
=	0.0	0.0	135.4	59.2
=	0.0	0.0	135.8	59.0
=	0.0	0.0	136.2	58.9
=	0.0	0.0	136.6	58.8
=	0.0	0.0	137.0	58.7
=	0.0	0.0	137.4	58.5
=	0.0	0.0	137.9	58.4
=	0.0	0.0	138.3	58.3
=	0.0	0.0	138.7	58.1
=	0.0	0.0	139.1	58.0
=	0.0	0.0	139.5	57.9
=	0.0	0.0	139.9	57.7
=	0.0	0.0	140.3	57.6
=	0.0	0.0	140.6	57.6
=	0.0	0.0	140.9	57.5
=	0.0	0.0	141.2	57.4
=	0.0	0.0	141.5	57.4
=	0.0	0.0	141.7	57.3
=	0.0	0.0	142.0	57.2
=	0.0	0.0	142.4	57.1
=	0.0	0.0	142.8	57.0
=	0.0	0.0	143.2	56.9
=	0.0	0.0	143.5	56.8
=	0.0	0.0	143.8	56.7
=	0.0	0.0	144.1	56.6
=	0.0	0.0	144.5	56.5
=	0.0	0.0	144.8	56.4
=	0.0	0.0	145.2	56.3
=	0.0	0.0	145.4	56.3
=	0.0	0.0	145.8	56.1
=	0.0	0.0	146.2	56.0
=	0.0	0.0	146.6	55.9
=	0.0	0.0	146.9	55.8
=	0.0	0.0	147.2	55.8
=	0.0	0.0	147.5	55.7
=	0.0	0.0	147.8	55.5
=	0.0	0.0	148.0	55.4
=	0.0	0.0	148.3	55.4
=	0.0	0.0	148.7	55.3
=	0.0	0.0	149.0	55.2
=	0.0	0.0	149.3	55.2
=	0.0	0.0	149.5	55.0
=	0.0	0.0	149.8	54.9
=	0.0	0.0	150.2	54.8
=	0.0	0.0	150.6	54.7
=	0.0	0.0	151.0	54.7
=	0.0	0.0	151.4	54.6
=	0.0	0.0	151.8	54.4
=	0.0	0.0	152.3	54.2
=	0.0	0.0	152.7	54.2
=	0.0	0.0	153.1	54.1
=	0.0	0.0	153.5	54.0
=	0.0	0.0	153.9	53.9
=	0.0	0.0	154.3	53.8
=	0.0	0.0	154.7	53.7
=	0.0	0.0	155.1	53.6
=	0.0	0.0	155.5	53.5
=	0.0	0.0	155.9	53.3
=	0.0	0.0	156.3	53.2
=	0.0	0.0	156.7	53.0
=	0.0	0.0	157.2	53.0
=	0.0	0.0	157.6	52.9
=	0.0	0.0	157.9	52.8
=	0.0	0.0	158.4	52.7
=	0.0	0.0	158.8	52.6
=	0.0	0.0	159.2	52.5
=	0.0	0.0	159.4	52.5
=	0.0	0.0	159.8	52.4
=	0.0	0.0	160.2	52.3
=	0.0	0.0	160.6	52.2
=	0.0	0.0	161.1	52.0
=	0.0	0.0	161.4	51.9
=	0.0	0.0	161.8	51.8
=	0.0	0.0	162.3	51.6
=	0.0	0.0	162.7	51.6
=	0.0	0.0	163.1	51.5
=	0.0	0.0	163.5	51.4
=	0.0	0.0	163.9	51.2
=	0.0	0.0	164.3	51.1
=	0.0	0.0	164.7	51.1
=	0.0	0.0	165.2	50.9
=	0.0	0.0	165.5	50.8
=	0.0	0.0	165.9	50.7
=	0.0	0.0	166.3	50.6
=	0.0	0.0	166.7	50.5
=	0.0	0.0	167.1	50.4
=	0.0	0.0	167.5	50.3
=	0.0	0.0	168.0	50.2
=	0.0	0.0	168.4	50.1
=	0.0	0.0	168.8	50.0
=	0.0	0.0	169.2	49.9
=	0.0	0.0	169.6	49.8
=	0.0	0.0	170.0	49.7
=	0.0	0.0	170.4	49.6
=	0.0	0.0	170.8	49.6
=	0.0	0.0	171.2	49.4
=	0.0	0.0	171.7	49.3
=	0.0	0.0	172.1	49.2
=	0.0	0.0	172.4	49.1
=	0.0	0.0	172.7	49.0
=	0.0	0.0	173.1	49.0
=	0.0	0.0	173.5	48.9
=	0.0	0.0	173.9	48.7
=	0.0	0.0	174.2	48.7
=	0.0	0.0	174.5	48.6
=	0.0	0.0	174.8	48.6
=	0.0	0.0	175.1	48.5
=	0.0	0.0	175.3	48.5
=	0.0	0.0	175.7	48.4
=	0.0	0.0	176.1	48.3
=	0.0	0.0	176.5	48.2
=	0.0	0.0	176.9	48.1
=	0.0	0.0	177.1	48.0
=	0.0	0.0	177.5	48.0
=	0.0	0.0	177.9	47.8
=	0.0	0.0	178.3	47.7
=	0.0	0.0	178.6	47.6
=	0.0	0.0	178.9	47.5
