:MSR 	5	 # No. of measurement in file
:SYS BDS 0   # Beam Data Scanner System
#
# RFA300 ASCII Measurement Dump ( BDS format )
#
# Measurement number 	1
#
%VNR 1.0
%MOD 	RAT
%TYP 	SCN
%SCN 	DIA
%FLD 	ION
%DAT 	10-13-2011
%TIM 	12:00:00
%FSZ 	400	400
%BMT 	PHO	   10.0
%SSD 	1000
%BUP 	0
%BRD 	1000
%FSH 	1
%ASC 	0
%WEG 	0
%GPO 	0
%CPO 	0
%MEA 	2
%PRD 	24,0
%PTS 	721
%STS 	    254.6	  -254.6	   24.0 # Start Scan values in mm ( X , Y , Z )
%EDS 	    -254.5	   254.5	   24.0 # End Scan values in mm ( X , Y , Z )
#
#	  X      Y      Z     Dose
#
=	254.6	-254.6	24.0	1.9
=	253.9	-253.9	24.0	1.9
=	253.2	-253.2	24.0	1.9
=	252.5	-252.5	24.0	2.0
=	251.8	-251.8	24.0	2.0
=	251.1	-251.1	24.0	2.0
=	250.4	-250.4	24.0	2.0
=	249.7	-249.7	24.0	2.1
=	249.0	-249.0	24.0	2.1
=	248.3	-248.3	24.0	2.1
=	247.6	-247.6	24.0	2.1
=	246.8	-246.8	24.0	2.2
=	246.1	-246.1	24.0	2.2
=	245.4	-245.4	24.0	2.2
=	244.7	-244.7	24.0	2.2
=	244.0	-244.0	24.0	2.3
=	243.3	-243.3	24.0	2.3
=	242.6	-242.6	24.0	2.3
=	241.9	-241.9	24.0	2.4
=	241.2	-241.2	24.0	2.4
=	240.5	-240.5	24.0	2.4
=	239.8	-239.8	24.0	2.5
=	239.1	-239.1	24.0	2.5
=	238.4	-238.4	24.0	2.6
=	237.7	-237.7	24.0	2.6
=	236.9	-236.9	24.0	2.6
=	236.2	-236.2	24.0	2.7
=	235.5	-235.5	24.0	2.8
=	234.8	-234.8	24.0	2.8
=	234.1	-234.1	24.0	2.8
=	233.4	-233.4	24.0	2.9
=	232.7	-232.7	24.0	2.9
=	232.0	-232.0	24.0	3.0
=	231.3	-231.3	24.0	3.1
=	230.6	-230.6	24.0	3.1
=	229.9	-229.9	24.0	3.2
=	229.2	-229.2	24.0	3.2
=	228.5	-228.5	24.0	3.3
=	227.8	-227.8	24.0	3.4
=	227.0	-227.0	24.0	3.4
=	226.3	-226.3	24.0	3.5
=	225.6	-225.6	24.0	3.6
=	224.9	-224.9	24.0	3.6
=	224.2	-224.2	24.0	3.7
=	223.5	-223.5	24.0	3.8
=	222.8	-222.8	24.0	3.8
=	222.1	-222.1	24.0	3.9
=	221.4	-221.4	24.0	4.0
=	220.7	-220.7	24.0	4.1
=	220.0	-220.0	24.0	4.2
=	219.3	-219.3	24.0	4.3
=	218.6	-218.6	24.0	4.4
=	217.9	-217.9	24.0	4.4
=	217.1	-217.1	24.0	4.5
=	216.4	-216.4	24.0	4.6
=	215.7	-215.7	24.0	4.7
=	215.0	-215.0	24.0	4.8
=	214.3	-214.3	24.0	4.9
=	213.6	-213.6	24.0	5.0
=	212.9	-212.9	24.0	5.1
=	212.2	-212.2	24.0	5.2
=	211.5	-211.5	24.0	5.3
=	210.8	-210.8	24.0	5.5
=	210.1	-210.1	24.0	5.6
=	209.4	-209.4	24.0	5.7
=	208.7	-208.7	24.0	5.8
=	208.0	-208.0	24.0	5.9
=	207.2	-207.2	24.0	6.0
=	206.5	-206.5	24.0	6.1
=	205.8	-205.8	24.0	6.3
=	205.1	-205.1	24.0	6.4
=	204.4	-204.4	24.0	6.6
=	203.7	-203.7	24.0	6.7
=	203.0	-203.0	24.0	6.9
=	202.3	-202.3	24.0	7.0
=	201.6	-201.6	24.0	7.1
=	200.9	-200.9	24.0	7.3
=	200.2	-200.2	24.0	7.5
=	199.5	-199.5	24.0	7.6
=	198.8	-198.8	24.0	7.8
=	198.1	-198.1	24.0	7.9
=	197.3	-197.3	24.0	8.1
=	196.6	-196.6	24.0	8.3
=	195.9	-195.9	24.0	8.5
=	195.2	-195.2	24.0	8.7
=	194.5	-194.5	24.0	8.8
=	193.8	-193.8	24.0	9.1
=	193.1	-193.1	24.0	9.3
=	192.4	-192.4	24.0	9.6
=	191.7	-191.7	24.0	10.0
=	191.0	-191.0	24.0	10.4
=	190.3	-190.3	24.0	10.8
=	189.6	-189.6	24.0	11.4
=	188.9	-188.9	24.0	12.2
=	188.2	-188.2	24.0	13.3
=	187.4	-187.4	24.0	14.5
=	186.7	-186.7	24.0	16.3
=	186.0	-186.0	24.0	18.5
=	185.3	-185.3	24.0	21.4
=	184.6	-184.6	24.0	25.2
=	183.9	-183.9	24.0	29.9
=	183.2	-183.2	24.0	35.6
=	182.5	-182.5	24.0	42.3
=	181.8	-181.8	24.0	49.7
=	181.1	-181.1	24.0	57.3
=	180.4	-180.4	24.0	64.7
=	179.7	-179.7	24.0	71.4
=	179.0	-179.0	24.0	76.8
=	178.3	-178.3	24.0	81.0
=	177.5	-177.5	24.0	84.0
=	176.8	-176.8	24.0	86.0
=	176.1	-176.1	24.0	87.6
=	175.4	-175.4	24.0	88.9
=	174.7	-174.7	24.0	90.1
=	174.0	-174.0	24.0	91.2
=	173.3	-173.3	24.0	92.3
=	172.6	-172.6	24.0	93.4
=	171.9	-171.9	24.0	94.3
=	171.2	-171.2	24.0	95.3
=	170.5	-170.5	24.0	96.3
=	169.8	-169.8	24.0	97.2
=	169.1	-169.1	24.0	98.0
=	168.4	-168.4	24.0	98.6
=	167.6	-167.6	24.0	99.3
=	166.9	-166.9	24.0	99.9
=	166.2	-166.2	24.0	100.4
=	165.5	-165.5	24.0	100.8
=	164.8	-164.8	24.0	101.2
=	164.1	-164.1	24.0	101.6
=	163.4	-163.4	24.0	101.9
=	162.7	-162.7	24.0	102.1
=	162.0	-162.0	24.0	102.3
=	161.3	-161.3	24.0	102.6
=	160.6	-160.6	24.0	102.7
=	159.9	-159.9	24.0	102.9
=	159.2	-159.2	24.0	103.0
=	158.5	-158.5	24.0	103.2
=	157.7	-157.7	24.0	103.4
=	157.0	-157.0	24.0	103.5
=	156.3	-156.3	24.0	103.7
=	155.6	-155.6	24.0	103.8
=	154.9	-154.9	24.0	104.0
=	154.2	-154.2	24.0	104.2
=	153.5	-153.5	24.0	104.3
=	152.8	-152.8	24.0	104.4
=	152.1	-152.1	24.0	104.5
=	151.4	-151.4	24.0	104.6
=	150.7	-150.7	24.0	104.8
=	150.0	-150.0	24.0	104.9
=	149.3	-149.3	24.0	105.0
=	148.6	-148.6	24.0	105.1
=	147.9	-147.9	24.0	105.3
=	147.1	-147.1	24.0	105.4
=	146.4	-146.4	24.0	105.6
=	145.7	-145.7	24.0	105.7
=	145.0	-145.0	24.0	105.8
=	144.3	-144.3	24.0	105.9
=	143.6	-143.6	24.0	106.0
=	142.9	-142.9	24.0	106.2
=	142.2	-142.2	24.0	106.2
=	141.5	-141.5	24.0	106.4
=	140.8	-140.8	24.0	106.5
=	140.1	-140.1	24.0	106.6
=	139.4	-139.4	24.0	106.6
=	138.7	-138.7	24.0	106.7
=	138.0	-138.0	24.0	106.8
=	137.2	-137.2	24.0	106.8
=	136.5	-136.5	24.0	106.9
=	135.8	-135.8	24.0	107.0
=	135.1	-135.1	24.0	107.0
=	134.4	-134.4	24.0	107.1
=	133.7	-133.7	24.0	107.1
=	133.0	-133.0	24.0	107.1
=	132.3	-132.3	24.0	107.1
=	131.6	-131.6	24.0	107.1
=	130.9	-130.9	24.0	107.1
=	130.2	-130.2	24.0	107.2
=	129.5	-129.5	24.0	107.2
=	128.8	-128.8	24.0	107.2
=	128.1	-128.1	24.0	107.2
=	127.3	-127.3	24.0	107.2
=	126.6	-126.6	24.0	107.1
=	125.9	-125.9	24.0	107.1
=	125.2	-125.2	24.0	107.1
=	124.5	-124.5	24.0	107.1
=	123.8	-123.8	24.0	107.1
=	123.1	-123.1	24.0	107.1
=	122.4	-122.4	24.0	107.0
=	121.7	-121.7	24.0	107.0
=	121.0	-121.0	24.0	106.9
=	120.3	-120.3	24.0	106.9
=	119.6	-119.6	24.0	106.8
=	118.9	-118.9	24.0	106.8
=	118.2	-118.2	24.0	106.7
=	117.4	-117.4	24.0	106.7
=	116.7	-116.7	24.0	106.6
=	116.0	-116.0	24.0	106.5
=	115.3	-115.3	24.0	106.5
=	114.6	-114.6	24.0	106.5
=	113.9	-113.9	24.0	106.4
=	113.2	-113.2	24.0	106.3
=	112.5	-112.5	24.0	106.3
=	111.8	-111.8	24.0	106.2
=	111.1	-111.1	24.0	106.2
=	110.4	-110.4	24.0	106.1
=	109.7	-109.7	24.0	106.1
=	109.0	-109.0	24.0	106.0
=	108.3	-108.3	24.0	106.0
=	107.5	-107.5	24.0	105.9
=	106.8	-106.8	24.0	105.9
=	106.1	-106.1	24.0	105.9
=	105.4	-105.4	24.0	105.8
=	104.7	-104.7	24.0	105.8
=	104.0	-104.0	24.0	105.8
=	103.3	-103.3	24.0	105.7
=	102.6	-102.6	24.0	105.7
=	101.9	-101.9	24.0	105.7
=	101.2	-101.2	24.0	105.7
=	100.5	-100.5	24.0	105.6
=	99.8	-99.8	24.0	105.6
=	99.1	-99.1	24.0	105.5
=	98.4	-98.4	24.0	105.5
=	97.6	-97.6	24.0	105.4
=	96.9	-96.9	24.0	105.4
=	96.2	-96.2	24.0	105.4
=	95.5	-95.5	24.0	105.3
=	94.8	-94.8	24.0	105.4
=	94.1	-94.1	24.0	105.4
=	93.4	-93.4	24.0	105.3
=	92.7	-92.7	24.0	105.3
=	92.0	-92.0	24.0	105.3
=	91.3	-91.3	24.0	105.3
=	90.6	-90.6	24.0	105.3
=	89.9	-89.9	24.0	105.2
=	89.2	-89.2	24.0	105.2
=	88.5	-88.5	24.0	105.2
=	87.7	-87.7	24.0	105.2
=	87.0	-87.0	24.0	105.2
=	86.3	-86.3	24.0	105.1
=	85.6	-85.6	24.0	105.1
=	84.9	-84.9	24.0	105.0
=	84.2	-84.2	24.0	105.0
=	83.5	-83.5	24.0	105.0
=	82.8	-82.8	24.0	105.0
=	82.1	-82.1	24.0	105.0
=	81.4	-81.4	24.0	104.9
=	80.7	-80.7	24.0	104.9
=	80.0	-80.0	24.0	104.9
=	79.3	-79.3	24.0	104.9
=	78.6	-78.6	24.0	104.9
=	77.8	-77.8	24.0	104.8
=	77.1	-77.1	24.0	104.8
=	76.4	-76.4	24.0	104.8
=	75.7	-75.7	24.0	104.8
=	75.0	-75.0	24.0	104.7
=	74.3	-74.3	24.0	104.7
=	73.6	-73.6	24.0	104.7
=	72.9	-72.9	24.0	104.6
=	72.2	-72.2	24.0	104.6
=	71.5	-71.5	24.0	104.6
=	70.8	-70.8	24.0	104.6
=	70.1	-70.1	24.0	104.5
=	69.4	-69.4	24.0	104.5
=	68.7	-68.7	24.0	104.4
=	67.9	-67.9	24.0	104.4
=	67.2	-67.2	24.0	104.4
=	66.5	-66.5	24.0	104.3
=	65.8	-65.8	24.0	104.3
=	65.1	-65.1	24.0	104.3
=	64.4	-64.4	24.0	104.3
=	63.7	-63.7	24.0	104.3
=	63.0	-63.0	24.0	104.2
=	62.3	-62.3	24.0	104.2
=	61.6	-61.6	24.0	104.1
=	60.9	-60.9	24.0	104.1
=	60.2	-60.2	24.0	104.1
=	59.5	-59.5	24.0	104.0
=	58.8	-58.8	24.0	104.0
=	58.0	-58.0	24.0	104.0
=	57.3	-57.3	24.0	104.0
=	56.6	-56.6	24.0	103.9
=	55.9	-55.9	24.0	103.9
=	55.2	-55.2	24.0	103.9
=	54.5	-54.5	24.0	103.8
=	53.8	-53.8	24.0	103.8
=	53.1	-53.1	24.0	103.8
=	52.4	-52.4	24.0	103.7
=	51.7	-51.7	24.0	103.7
=	51.0	-51.0	24.0	103.7
=	50.3	-50.3	24.0	103.6
=	49.6	-49.6	24.0	103.6
=	48.9	-48.9	24.0	103.5
=	48.1	-48.1	24.0	103.4
=	47.4	-47.4	24.0	103.4
=	46.7	-46.7	24.0	103.3
=	46.0	-46.0	24.0	103.3
=	45.3	-45.3	24.0	103.3
=	44.6	-44.6	24.0	103.3
=	43.9	-43.9	24.0	103.2
=	43.2	-43.2	24.0	103.2
=	42.5	-42.5	24.0	103.1
=	41.8	-41.8	24.0	103.1
=	41.1	-41.1	24.0	103.0
=	40.4	-40.4	24.0	103.0
=	39.7	-39.7	24.0	103.0
=	39.0	-39.0	24.0	102.9
=	38.2	-38.2	24.0	102.8
=	37.5	-37.5	24.0	102.8
=	36.8	-36.8	24.0	102.7
=	36.1	-36.1	24.0	102.7
=	35.4	-35.4	24.0	102.6
=	34.7	-34.7	24.0	102.6
=	34.0	-34.0	24.0	102.5
=	33.3	-33.3	24.0	102.5
=	32.6	-32.6	24.0	102.4
=	31.9	-31.9	24.0	102.3
=	31.2	-31.2	24.0	102.2
=	30.5	-30.5	24.0	102.1
=	29.8	-29.8	24.0	102.1
=	29.1	-29.1	24.0	102.0
=	28.3	-28.3	24.0	102.0
=	27.6	-27.6	24.0	101.9
=	26.9	-26.9	24.0	101.8
=	26.2	-26.2	24.0	101.7
=	25.5	-25.5	24.0	101.6
=	24.8	-24.8	24.0	101.5
=	24.1	-24.1	24.0	101.5
=	23.4	-23.4	24.0	101.4
=	22.7	-22.7	24.0	101.4
=	22.0	-22.0	24.0	101.3
=	21.3	-21.3	24.0	101.3
=	20.6	-20.6	24.0	101.2
=	19.9	-19.9	24.0	101.2
=	19.2	-19.2	24.0	101.1
=	18.4	-18.4	24.0	101.0
=	17.7	-17.7	24.0	100.9
=	17.0	-17.0	24.0	100.9
=	16.3	-16.3	24.0	100.8
=	15.6	-15.6	24.0	100.8
=	14.9	-14.9	24.0	100.7
=	14.2	-14.2	24.0	100.7
=	13.5	-13.5	24.0	100.6
=	12.8	-12.8	24.0	100.5
=	12.1	-12.1	24.0	100.5
=	11.4	-11.4	24.0	100.4
=	10.7	-10.7	24.0	100.3
=	10.0	-10.0	24.0	100.3
=	9.3	-9.3	24.0	100.2
=	8.6	-8.6	24.0	100.2
=	7.8	-7.8	24.0	100.2
=	7.1	-7.1	24.0	100.2
=	6.4	-6.4	24.0	100.1
=	5.7	-5.7	24.0	100.1
=	5.0	-5.0	24.0	100.0
=	4.3	-4.3	24.0	100.0
=	3.6	-3.6	24.0	100.0
=	2.9	-2.9	24.0	100.0
=	2.2	-2.2	24.0	100.0
=	1.5	-1.5	24.0	100.0
=	0.8	-0.8	24.0	100.0
=	-0.2	0.2	24.0	100.0
=	-0.6	0.6	24.0	100.0
=	-1.3	1.3	24.0	100.0
=	-2.1	2.1	24.0	100.0
=	-2.8	2.8	24.0	100.0
=	-3.5	3.5	24.0	100.0
=	-4.2	4.2	24.0	100.0
=	-4.9	4.9	24.0	100.0
=	-5.6	5.6	24.0	100.1
=	-6.3	6.3	24.0	100.1
=	-7.0	7.0	24.0	100.2
=	-7.7	7.7	24.0	100.2
=	-8.4	8.4	24.0	100.2
=	-9.1	9.1	24.0	100.2
=	-9.8	9.8	24.0	100.3
=	-10.5	10.5	24.0	100.3
=	-11.2	11.2	24.0	100.4
=	-12.0	12.0	24.0	100.4
=	-12.7	12.7	24.0	100.5
=	-13.4	13.4	24.0	100.6
=	-14.1	14.1	24.0	100.6
=	-14.8	14.8	24.0	100.7
=	-15.5	15.5	24.0	100.8
=	-16.2	16.2	24.0	100.8
=	-16.9	16.9	24.0	100.9
=	-17.6	17.6	24.0	100.9
=	-18.3	18.3	24.0	101.0
=	-19.0	19.0	24.0	101.1
=	-19.7	19.7	24.0	101.1
=	-20.4	20.4	24.0	101.2
=	-21.1	21.1	24.0	101.3
=	-21.9	21.9	24.0	101.3
=	-22.6	22.6	24.0	101.3
=	-23.3	23.3	24.0	101.4
=	-24.0	24.0	24.0	101.5
=	-24.7	24.7	24.0	101.5
=	-25.4	25.4	24.0	101.6
=	-26.1	26.1	24.0	101.7
=	-26.8	26.8	24.0	101.8
=	-27.5	27.5	24.0	101.9
=	-28.2	28.2	24.0	101.9
=	-28.9	28.9	24.0	102.0
=	-29.6	29.6	24.0	102.0
=	-30.3	30.3	24.0	102.1
=	-31.0	31.0	24.0	102.2
=	-31.8	31.8	24.0	102.3
=	-32.5	32.5	24.0	102.4
=	-33.2	33.2	24.0	102.4
=	-33.9	33.9	24.0	102.5
=	-34.6	34.6	24.0	102.6
=	-35.3	35.3	24.0	102.6
=	-36.0	36.0	24.0	102.7
=	-36.7	36.7	24.0	102.7
=	-37.4	37.4	24.0	102.8
=	-38.1	38.1	24.0	102.8
=	-38.8	38.8	24.0	102.9
=	-39.5	39.5	24.0	102.9
=	-40.2	40.2	24.0	103.0
=	-40.9	40.9	24.0	103.0
=	-41.7	41.7	24.0	103.0
=	-42.4	42.4	24.0	103.1
=	-43.1	43.1	24.0	103.2
=	-43.8	43.8	24.0	103.2
=	-44.5	44.5	24.0	103.3
=	-45.2	45.2	24.0	103.3
=	-45.9	45.9	24.0	103.3
=	-46.6	46.6	24.0	103.3
=	-47.3	47.3	24.0	103.4
=	-48.0	48.0	24.0	103.4
=	-48.7	48.7	24.0	103.5
=	-49.4	49.4	24.0	103.6
=	-50.1	50.1	24.0	103.6
=	-50.8	50.8	24.0	103.6
=	-51.6	51.6	24.0	103.7
=	-52.3	52.3	24.0	103.7
=	-53.0	53.0	24.0	103.8
=	-53.7	53.7	24.0	103.8
=	-54.4	54.4	24.0	103.8
=	-55.1	55.1	24.0	103.9
=	-55.8	55.8	24.0	103.9
=	-56.5	56.5	24.0	103.9
=	-57.2	57.2	24.0	104.0
=	-57.9	57.9	24.0	104.0
=	-58.6	58.6	24.0	104.0
=	-59.3	59.3	24.0	104.0
=	-60.0	60.0	24.0	104.0
=	-60.7	60.7	24.0	104.1
=	-61.5	61.5	24.0	104.1
=	-62.2	62.2	24.0	104.2
=	-62.9	62.9	24.0	104.2
=	-63.6	63.6	24.0	104.3
=	-64.3	64.3	24.0	104.3
=	-65.0	65.0	24.0	104.3
=	-65.7	65.7	24.0	104.3
=	-66.4	66.4	24.0	104.3
=	-67.1	67.1	24.0	104.4
=	-67.8	67.8	24.0	104.4
=	-68.5	68.5	24.0	104.4
=	-69.2	69.2	24.0	104.5
=	-69.9	69.9	24.0	104.5
=	-70.6	70.6	24.0	104.6
=	-71.4	71.4	24.0	104.6
=	-72.1	72.1	24.0	104.6
=	-72.8	72.8	24.0	104.6
=	-73.5	73.5	24.0	104.7
=	-74.2	74.2	24.0	104.7
=	-74.9	74.9	24.0	104.7
=	-75.6	75.6	24.0	104.8
=	-76.3	76.3	24.0	104.8
=	-77.0	77.0	24.0	104.8
=	-77.7	77.7	24.0	104.8
=	-78.4	78.4	24.0	104.9
=	-79.1	79.1	24.0	104.9
=	-79.8	79.8	24.0	104.9
=	-80.5	80.5	24.0	104.9
=	-81.3	81.3	24.0	104.9
=	-82.0	82.0	24.0	105.0
=	-82.7	82.7	24.0	105.0
=	-83.4	83.4	24.0	105.0
=	-84.1	84.1	24.0	105.0
=	-84.8	84.8	24.0	105.0
=	-85.5	85.5	24.0	105.1
=	-86.2	86.2	24.0	105.1
=	-86.9	86.9	24.0	105.2
=	-87.6	87.6	24.0	105.2
=	-88.3	88.3	24.0	105.2
=	-89.0	89.0	24.0	105.2
=	-89.7	89.7	24.0	105.2
=	-90.4	90.4	24.0	105.2
=	-91.2	91.2	24.0	105.3
=	-91.9	91.9	24.0	105.3
=	-92.6	92.6	24.0	105.3
=	-93.3	93.3	24.0	105.3
=	-94.0	94.0	24.0	105.4
=	-94.7	94.7	24.0	105.4
=	-95.4	95.4	24.0	105.3
=	-96.1	96.1	24.0	105.4
=	-96.8	96.8	24.0	105.4
=	-97.5	97.5	24.0	105.4
=	-98.2	98.2	24.0	105.5
=	-98.9	98.9	24.0	105.5
=	-99.6	99.6	24.0	105.6
=	-100.3	100.3	24.0	105.6
=	-101.1	101.1	24.0	105.7
=	-101.8	101.8	24.0	105.7
=	-102.5	102.5	24.0	105.7
=	-103.2	103.2	24.0	105.7
=	-103.9	103.9	24.0	105.7
=	-104.6	104.6	24.0	105.8
=	-105.3	105.3	24.0	105.8
=	-106.0	106.0	24.0	105.8
=	-106.7	106.7	24.0	105.9
=	-107.4	107.4	24.0	105.9
=	-108.1	108.1	24.0	106.0
=	-108.8	108.8	24.0	106.0
=	-109.5	109.5	24.0	106.1
=	-110.2	110.2	24.0	106.1
=	-111.0	111.0	24.0	106.2
=	-111.7	111.7	24.0	106.2
=	-112.4	112.4	24.0	106.3
=	-113.1	113.1	24.0	106.3
=	-113.8	113.8	24.0	106.4
=	-114.5	114.5	24.0	106.4
=	-115.2	115.2	24.0	106.5
=	-115.9	115.9	24.0	106.5
=	-116.6	116.6	24.0	106.6
=	-117.3	117.3	24.0	106.7
=	-118.0	118.0	24.0	106.7
=	-118.7	118.7	24.0	106.8
=	-119.4	119.4	24.0	106.8
=	-120.1	120.1	24.0	106.9
=	-120.9	120.9	24.0	106.9
=	-121.6	121.6	24.0	107.0
=	-122.3	122.3	24.0	107.0
=	-123.0	123.0	24.0	107.1
=	-123.7	123.7	24.0	107.1
=	-124.4	124.4	24.0	107.1
=	-125.1	125.1	24.0	107.1
=	-125.8	125.8	24.0	107.1
=	-126.5	126.5	24.0	107.1
=	-127.2	127.2	24.0	107.2
=	-127.9	127.9	24.0	107.2
=	-128.6	128.6	24.0	107.2
=	-129.3	129.3	24.0	107.2
=	-130.0	130.0	24.0	107.2
=	-130.7	130.7	24.0	107.1
=	-131.5	131.5	24.0	107.1
=	-132.2	132.2	24.0	107.1
=	-132.9	132.9	24.0	107.1
=	-133.6	133.6	24.0	107.1
=	-134.3	134.3	24.0	107.1
=	-135.0	135.0	24.0	107.0
=	-135.7	135.7	24.0	107.0
=	-136.4	136.4	24.0	106.9
=	-137.1	137.1	24.0	106.8
=	-137.8	137.8	24.0	106.8
=	-138.5	138.5	24.0	106.7
=	-139.2	139.2	24.0	106.7
=	-139.9	139.9	24.0	106.6
=	-140.6	140.6	24.0	106.5
=	-141.4	141.4	24.0	106.4
=	-142.1	142.1	24.0	106.3
=	-142.8	142.8	24.0	106.2
=	-143.5	143.5	24.0	106.1
=	-144.2	144.2	24.0	106.0
=	-144.9	144.9	24.0	105.8
=	-145.6	145.6	24.0	105.7
=	-146.3	146.3	24.0	105.6
=	-147.0	147.0	24.0	105.5
=	-147.7	147.7	24.0	105.3
=	-148.4	148.4	24.0	105.2
=	-149.1	149.1	24.0	105.1
=	-149.8	149.8	24.0	104.9
=	-150.5	150.5	24.0	104.9
=	-151.3	151.3	24.0	104.7
=	-152.0	152.0	24.0	104.5
=	-152.7	152.7	24.0	104.4
=	-153.4	153.4	24.0	104.3
=	-154.1	154.1	24.0	104.2
=	-154.8	154.8	24.0	104.0
=	-155.5	155.5	24.0	103.9
=	-156.2	156.2	24.0	103.7
=	-156.9	156.9	24.0	103.5
=	-157.6	157.6	24.0	103.4
=	-158.3	158.3	24.0	103.3
=	-159.0	159.0	24.0	103.1
=	-159.7	159.7	24.0	102.9
=	-160.4	160.4	24.0	102.7
=	-161.2	161.2	24.0	102.6
=	-161.9	161.9	24.0	102.4
=	-162.6	162.6	24.0	102.1
=	-163.3	163.3	24.0	101.9
=	-164.0	164.0	24.0	101.6
=	-164.7	164.7	24.0	101.3
=	-165.4	165.4	24.0	100.9
=	-166.1	166.1	24.0	100.5
=	-166.8	166.8	24.0	100.0
=	-167.5	167.5	24.0	99.5
=	-168.2	168.2	24.0	98.7
=	-168.9	168.9	24.0	98.1
=	-169.6	169.6	24.0	97.3
=	-170.3	170.3	24.0	96.4
=	-171.1	171.1	24.0	95.5
=	-171.8	171.8	24.0	94.5
=	-172.5	172.5	24.0	93.6
=	-173.2	173.2	24.0	92.4
=	-173.9	173.9	24.0	91.4
=	-174.6	174.6	24.0	90.3
=	-175.3	175.3	24.0	89.1
=	-176.0	176.0	24.0	87.9
=	-176.7	176.7	24.0	86.3
=	-177.4	177.4	24.0	84.4
=	-178.1	178.1	24.0	81.6
=	-178.8	178.8	24.0	77.7
=	-179.5	179.5	24.0	72.5
=	-180.2	180.2	24.0	66.0
=	-181.0	181.0	24.0	58.7
=	-181.7	181.7	24.0	51.1
=	-182.4	182.4	24.0	43.6
=	-183.1	183.1	24.0	36.8
=	-183.8	183.8	24.0	30.9
=	-184.5	184.5	24.0	25.9
=	-185.2	185.2	24.0	22.0
=	-185.9	185.9	24.0	19.0
=	-186.6	186.6	24.0	16.7
=	-187.3	187.3	24.0	14.8
=	-188.0	188.0	24.0	13.5
=	-188.7	188.7	24.0	12.4
=	-189.4	189.4	24.0	11.6
=	-190.1	190.1	24.0	11.0
=	-190.9	190.9	24.0	10.4
=	-191.6	191.6	24.0	10.0
=	-192.3	192.3	24.0	9.7
=	-193.0	193.0	24.0	9.4
=	-193.7	193.7	24.0	9.1
=	-194.4	194.4	24.0	8.9
=	-195.1	195.1	24.0	8.7
=	-195.8	195.8	24.0	8.5
=	-196.5	196.5	24.0	8.3
=	-197.2	197.2	24.0	8.1
=	-197.9	197.9	24.0	7.9
=	-198.6	198.6	24.0	7.8
=	-199.3	199.3	24.0	7.6
=	-200.0	200.0	24.0	7.5
=	-200.8	200.8	24.0	7.3
=	-201.5	201.5	24.0	7.2
=	-202.2	202.2	24.0	7.0
=	-202.9	202.9	24.0	6.9
=	-203.6	203.6	24.0	6.7
=	-204.3	204.3	24.0	6.6
=	-205.0	205.0	24.0	6.4
=	-205.7	205.7	24.0	6.3
=	-206.4	206.4	24.0	6.2
=	-207.1	207.1	24.0	6.0
=	-207.8	207.8	24.0	5.9
=	-208.5	208.5	24.0	5.8
=	-209.2	209.2	24.0	5.7
=	-209.9	209.9	24.0	5.6
=	-210.7	210.7	24.0	5.5
=	-211.4	211.4	24.0	5.3
=	-212.1	212.1	24.0	5.2
=	-212.8	212.8	24.0	5.2
=	-213.5	213.5	24.0	5.0
=	-214.2	214.2	24.0	4.9
=	-214.9	214.9	24.0	4.8
=	-215.6	215.6	24.0	4.7
=	-216.3	216.3	24.0	4.6
=	-217.0	217.0	24.0	4.6
=	-217.7	217.7	24.0	4.5
=	-218.4	218.4	24.0	4.4
=	-219.1	219.1	24.0	4.3
=	-219.8	219.8	24.0	4.2
=	-220.6	220.6	24.0	4.1
=	-221.3	221.3	24.0	4.0
=	-222.0	222.0	24.0	4.0
=	-222.7	222.7	24.0	3.9
=	-223.4	223.4	24.0	3.8
=	-224.1	224.1	24.0	3.7
=	-224.8	224.8	24.0	3.7
=	-225.5	225.5	24.0	3.6
=	-226.2	226.2	24.0	3.5
=	-226.9	226.9	24.0	3.4
=	-227.6	227.6	24.0	3.4
=	-228.3	228.3	24.0	3.3
=	-229.0	229.0	24.0	3.2
=	-229.7	229.7	24.0	3.2
=	-230.5	230.5	24.0	3.1
=	-231.2	231.2	24.0	3.1
=	-231.9	231.9	24.0	3.0
=	-232.6	232.6	24.0	3.0
=	-233.3	233.3	24.0	2.9
=	-234.0	234.0	24.0	2.9
=	-234.7	234.7	24.0	2.8
=	-235.4	235.4	24.0	2.8
=	-236.1	236.1	24.0	2.7
=	-236.8	236.8	24.0	2.7
=	-237.5	237.5	24.0	2.6
=	-238.2	238.2	24.0	2.6
=	-238.9	238.9	24.0	2.5
=	-239.6	239.6	24.0	2.5
=	-240.4	240.4	24.0	2.5
=	-241.1	241.1	24.0	2.4
=	-241.8	241.8	24.0	2.4
=	-242.5	242.5	24.0	2.3
=	-243.2	243.2	24.0	2.3
=	-243.9	243.9	24.0	2.3
=	-244.6	244.6	24.0	2.2
=	-245.3	245.3	24.0	2.2
=	-246.0	246.0	24.0	2.2
=	-246.7	246.7	24.0	2.2
=	-247.4	247.4	24.0	2.1
=	-248.1	248.1	24.0	2.1
=	-248.8	248.8	24.0	2.1
=	-249.5	249.5	24.0	2.1
=	-250.3	250.3	24.0	2.0
=	-251.0	251.0	24.0	2.0
=	-251.7	251.7	24.0	2.0
=	-252.4	252.4	24.0	2.0
=	-253.1	253.1	24.0	1.9
=	-253.8	253.8	24.0	1.9
=	-254.5	254.5	24.0	1.9
:EOM # End of Measurement
#
# RFA300 ASCII Measurement Dump ( BDS format )
#
# Measurement number 	2
#
%VNR 1.0
%MOD 	RAT
%TYP 	SCN
%SCN 	DIA
%FLD 	ION
%DAT 	10-13-2011
%TIM 	12:00:00
%FSZ 	400	400
%BMT 	PHO	   10.0
%SSD 	1000
%BUP 	0
%BRD 	1000
%FSH 	1
%ASC 	0
%WEG 	0
%GPO 	0
%CPO 	0
%MEA 	2
%PRD 	50,0
%PTS 	735
%STS 	    259.8	  -259.8	   50.0 # Start Scan values in mm ( X , Y , Z )
%EDS 	    -259.2	   259.2	   50.0 # End Scan values in mm ( X , Y , Z )
#
#	  X      Y      Z     Dose
#
=	259.8	-259.8	50.0	2.1
=	259.1	-259.1	50.0	2.1
=	258.4	-258.4	50.0	2.1
=	257.7	-257.7	50.0	2.2
=	257.0	-257.0	50.0	2.2
=	256.3	-256.3	50.0	2.2
=	255.6	-255.6	50.0	2.3
=	254.9	-254.9	50.0	2.3
=	254.2	-254.2	50.0	2.3
=	253.5	-253.5	50.0	2.3
=	252.7	-252.7	50.0	2.4
=	252.0	-252.0	50.0	2.4
=	251.3	-251.3	50.0	2.4
=	250.6	-250.6	50.0	2.5
=	249.9	-249.9	50.0	2.5
=	249.2	-249.2	50.0	2.5
=	248.5	-248.5	50.0	2.6
=	247.8	-247.8	50.0	2.6
=	247.1	-247.1	50.0	2.6
=	246.4	-246.4	50.0	2.7
=	245.7	-245.7	50.0	2.7
=	245.0	-245.0	50.0	2.8
=	244.3	-244.3	50.0	2.8
=	243.6	-243.6	50.0	2.8
=	242.8	-242.8	50.0	2.9
=	242.1	-242.1	50.0	2.9
=	241.4	-241.4	50.0	3.0
=	240.7	-240.7	50.0	3.0
=	240.0	-240.0	50.0	3.1
=	239.3	-239.3	50.0	3.1
=	238.6	-238.6	50.0	3.2
=	237.9	-237.9	50.0	3.2
=	237.2	-237.2	50.0	3.3
=	236.5	-236.5	50.0	3.3
=	235.8	-235.8	50.0	3.4
=	235.1	-235.1	50.0	3.5
=	234.4	-234.4	50.0	3.5
=	233.7	-233.7	50.0	3.6
=	233.0	-233.0	50.0	3.6
=	232.2	-232.2	50.0	3.7
=	231.5	-231.5	50.0	3.8
=	230.8	-230.8	50.0	3.8
=	230.1	-230.1	50.0	3.9
=	229.4	-229.4	50.0	4.0
=	228.7	-228.7	50.0	4.1
=	228.0	-228.0	50.0	4.1
=	227.3	-227.3	50.0	4.2
=	226.6	-226.6	50.0	4.3
=	225.9	-225.9	50.0	4.4
=	225.2	-225.2	50.0	4.5
=	224.5	-224.5	50.0	4.6
=	223.8	-223.8	50.0	4.7
=	223.1	-223.1	50.0	4.7
=	222.3	-222.3	50.0	4.8
=	221.6	-221.6	50.0	4.9
=	220.9	-220.9	50.0	5.0
=	220.2	-220.2	50.0	5.1
=	219.5	-219.5	50.0	5.2
=	218.8	-218.8	50.0	5.3
=	218.1	-218.1	50.0	5.4
=	217.4	-217.4	50.0	5.5
=	216.7	-216.7	50.0	5.6
=	216.0	-216.0	50.0	5.7
=	215.3	-215.3	50.0	5.9
=	214.6	-214.6	50.0	6.0
=	213.9	-213.9	50.0	6.1
=	213.2	-213.2	50.0	6.2
=	212.4	-212.4	50.0	6.3
=	211.7	-211.7	50.0	6.5
=	211.0	-211.0	50.0	6.6
=	210.3	-210.3	50.0	6.8
=	209.6	-209.6	50.0	6.9
=	208.9	-208.9	50.0	7.1
=	208.2	-208.2	50.0	7.2
=	207.5	-207.5	50.0	7.3
=	206.8	-206.8	50.0	7.5
=	206.1	-206.1	50.0	7.7
=	205.4	-205.4	50.0	7.8
=	204.7	-204.7	50.0	8.0
=	204.0	-204.0	50.0	8.2
=	203.3	-203.3	50.0	8.3
=	202.5	-202.5	50.0	8.5
=	201.8	-201.8	50.0	8.7
=	201.1	-201.1	50.0	8.9
=	200.4	-200.4	50.0	9.1
=	199.7	-199.7	50.0	9.4
=	199.0	-199.0	50.0	9.6
=	198.3	-198.3	50.0	9.9
=	197.6	-197.6	50.0	10.2
=	196.9	-196.9	50.0	10.5
=	196.2	-196.2	50.0	10.9
=	195.5	-195.5	50.0	11.3
=	194.8	-194.8	50.0	11.8
=	194.1	-194.1	50.0	12.5
=	193.4	-193.4	50.0	13.4
=	192.6	-192.6	50.0	14.4
=	191.9	-191.9	50.0	15.8
=	191.2	-191.2	50.0	17.6
=	190.5	-190.5	50.0	19.8
=	189.8	-189.8	50.0	22.6
=	189.1	-189.1	50.0	26.2
=	188.4	-188.4	50.0	30.6
=	187.7	-187.7	50.0	36.0
=	187.0	-187.0	50.0	42.1
=	186.3	-186.3	50.0	48.9
=	185.6	-185.6	50.0	55.8
=	184.9	-184.9	50.0	62.5
=	184.2	-184.2	50.0	68.4
=	183.5	-183.5	50.0	73.4
=	182.7	-182.7	50.0	77.4
=	182.0	-182.0	50.0	80.2
=	181.3	-181.3	50.0	82.2
=	180.6	-180.6	50.0	83.8
=	179.9	-179.9	50.0	85.1
=	179.2	-179.2	50.0	86.2
=	178.5	-178.5	50.0	87.3
=	177.8	-177.8	50.0	88.5
=	177.1	-177.1	50.0	89.6
=	176.4	-176.4	50.0	90.6
=	175.7	-175.7	50.0	91.5
=	175.0	-175.0	50.0	92.5
=	174.3	-174.3	50.0	93.3
=	173.6	-173.6	50.0	94.2
=	172.8	-172.8	50.0	94.9
=	172.1	-172.1	50.0	95.6
=	171.4	-171.4	50.0	96.2
=	170.7	-170.7	50.0	96.8
=	170.0	-170.0	50.0	97.2
=	169.3	-169.3	50.0	97.7
=	168.6	-168.6	50.0	98.0
=	167.9	-167.9	50.0	98.4
=	167.2	-167.2	50.0	98.6
=	166.5	-166.5	50.0	98.9
=	165.8	-165.8	50.0	99.2
=	165.1	-165.1	50.0	99.4
=	164.4	-164.4	50.0	99.6
=	163.7	-163.7	50.0	99.8
=	162.9	-162.9	50.0	100.1
=	162.2	-162.2	50.0	100.3
=	161.5	-161.5	50.0	100.5
=	160.8	-160.8	50.0	100.7
=	160.1	-160.1	50.0	100.8
=	159.4	-159.4	50.0	101.0
=	158.7	-158.7	50.0	101.2
=	158.0	-158.0	50.0	101.3
=	157.3	-157.3	50.0	101.5
=	156.6	-156.6	50.0	101.6
=	155.9	-155.9	50.0	101.8
=	155.2	-155.2	50.0	102.0
=	154.5	-154.5	50.0	102.1
=	153.8	-153.8	50.0	102.3
=	153.0	-153.0	50.0	102.4
=	152.3	-152.3	50.0	102.5
=	151.6	-151.6	50.0	102.7
=	150.9	-150.9	50.0	102.8
=	150.2	-150.2	50.0	103.0
=	149.5	-149.5	50.0	103.1
=	148.8	-148.8	50.0	103.2
=	148.1	-148.1	50.0	103.3
=	147.4	-147.4	50.0	103.4
=	146.7	-146.7	50.0	103.5
=	146.0	-146.0	50.0	103.7
=	145.3	-145.3	50.0	103.9
=	144.6	-144.6	50.0	103.9
=	143.9	-143.9	50.0	104.0
=	143.1	-143.1	50.0	104.1
=	142.4	-142.4	50.0	104.2
=	141.7	-141.7	50.0	104.3
=	141.0	-141.0	50.0	104.4
=	140.3	-140.3	50.0	104.5
=	139.6	-139.6	50.0	104.6
=	138.9	-138.9	50.0	104.7
=	138.2	-138.2	50.0	104.7
=	137.5	-137.5	50.0	104.8
=	136.8	-136.8	50.0	104.9
=	136.1	-136.1	50.0	104.9
=	135.4	-135.4	50.0	105.0
=	134.7	-134.7	50.0	105.0
=	134.0	-134.0	50.0	105.0
=	133.2	-133.2	50.0	105.1
=	132.5	-132.5	50.0	105.1
=	131.8	-131.8	50.0	105.1
=	131.1	-131.1	50.0	105.1
=	130.4	-130.4	50.0	105.1
=	129.7	-129.7	50.0	105.1
=	129.0	-129.0	50.0	105.1
=	128.3	-128.3	50.0	105.1
=	127.6	-127.6	50.0	105.1
=	126.9	-126.9	50.0	105.1
=	126.2	-126.2	50.0	105.1
=	125.5	-125.5	50.0	105.1
=	124.8	-124.8	50.0	105.0
=	124.1	-124.1	50.0	105.0
=	123.3	-123.3	50.0	105.0
=	122.6	-122.6	50.0	105.0
=	121.9	-121.9	50.0	104.9
=	121.2	-121.2	50.0	104.9
=	120.5	-120.5	50.0	104.9
=	119.8	-119.8	50.0	104.8
=	119.1	-119.1	50.0	104.8
=	118.4	-118.4	50.0	104.8
=	117.7	-117.7	50.0	104.7
=	117.0	-117.0	50.0	104.7
=	116.3	-116.3	50.0	104.7
=	115.6	-115.6	50.0	104.6
=	114.9	-114.9	50.0	104.6
=	114.2	-114.2	50.0	104.5
=	113.4	-113.4	50.0	104.5
=	112.7	-112.7	50.0	104.5
=	112.0	-112.0	50.0	104.5
=	111.3	-111.3	50.0	104.4
=	110.6	-110.6	50.0	104.4
=	109.9	-109.9	50.0	104.4
=	109.2	-109.2	50.0	104.3
=	108.5	-108.5	50.0	104.3
=	107.8	-107.8	50.0	104.3
=	107.1	-107.1	50.0	104.3
=	106.4	-106.4	50.0	104.2
=	105.7	-105.7	50.0	104.2
=	105.0	-105.0	50.0	104.2
=	104.3	-104.3	50.0	104.2
=	103.5	-103.5	50.0	104.2
=	102.8	-102.8	50.0	104.1
=	102.1	-102.1	50.0	104.1
=	101.4	-101.4	50.0	104.1
=	100.7	-100.7	50.0	104.1
=	100.0	-100.0	50.0	104.1
=	99.3	-99.3	50.0	104.1
=	98.6	-98.6	50.0	104.1
=	97.9	-97.9	50.0	104.1
=	97.2	-97.2	50.0	104.0
=	96.5	-96.5	50.0	104.0
=	95.8	-95.8	50.0	104.0
=	95.1	-95.1	50.0	104.0
=	94.4	-94.4	50.0	104.0
=	93.7	-93.7	50.0	104.0
=	92.9	-92.9	50.0	104.0
=	92.2	-92.2	50.0	104.0
=	91.5	-91.5	50.0	104.0
=	90.8	-90.8	50.0	104.0
=	90.1	-90.1	50.0	103.9
=	89.4	-89.4	50.0	103.9
=	88.7	-88.7	50.0	103.9
=	88.0	-88.0	50.0	103.9
=	87.3	-87.3	50.0	103.9
=	86.6	-86.6	50.0	103.9
=	85.9	-85.9	50.0	103.9
=	85.2	-85.2	50.0	103.9
=	84.5	-84.5	50.0	103.9
=	83.8	-83.8	50.0	103.9
=	83.0	-83.0	50.0	103.9
=	82.3	-82.3	50.0	103.9
=	81.6	-81.6	50.0	103.8
=	80.9	-80.9	50.0	103.8
=	80.2	-80.2	50.0	103.8
=	79.5	-79.5	50.0	103.8
=	78.8	-78.8	50.0	103.8
=	78.1	-78.1	50.0	103.8
=	77.4	-77.4	50.0	103.8
=	76.7	-76.7	50.0	103.8
=	76.0	-76.0	50.0	103.8
=	75.3	-75.3	50.0	103.8
=	74.6	-74.6	50.0	103.7
=	73.9	-73.9	50.0	103.7
=	73.1	-73.1	50.0	103.7
=	72.4	-72.4	50.0	103.7
=	71.7	-71.7	50.0	103.7
=	71.0	-71.0	50.0	103.6
=	70.3	-70.3	50.0	103.6
=	69.6	-69.6	50.0	103.6
=	68.9	-68.9	50.0	103.6
=	68.2	-68.2	50.0	103.5
=	67.5	-67.5	50.0	103.5
=	66.8	-66.8	50.0	103.5
=	66.1	-66.1	50.0	103.5
=	65.4	-65.4	50.0	103.5
=	64.7	-64.7	50.0	103.4
=	64.0	-64.0	50.0	103.4
=	63.2	-63.2	50.0	103.4
=	62.5	-62.5	50.0	103.4
=	61.8	-61.8	50.0	103.3
=	61.1	-61.1	50.0	103.3
=	60.4	-60.4	50.0	103.3
=	59.7	-59.7	50.0	103.3
=	59.0	-59.0	50.0	103.3
=	58.3	-58.3	50.0	103.3
=	57.6	-57.6	50.0	103.3
=	56.9	-56.9	50.0	103.3
=	56.2	-56.2	50.0	103.3
=	55.5	-55.5	50.0	103.2
=	54.8	-54.8	50.0	103.2
=	54.1	-54.1	50.0	103.2
=	53.3	-53.3	50.0	103.1
=	52.6	-52.6	50.0	103.1
=	51.9	-51.9	50.0	103.0
=	51.2	-51.2	50.0	103.0
=	50.5	-50.5	50.0	103.0
=	49.8	-49.8	50.0	102.9
=	49.1	-49.1	50.0	102.9
=	48.4	-48.4	50.0	102.9
=	47.7	-47.7	50.0	102.8
=	47.0	-47.0	50.0	102.8
=	46.3	-46.3	50.0	102.8
=	45.6	-45.6	50.0	102.8
=	44.9	-44.9	50.0	102.8
=	44.2	-44.2	50.0	102.8
=	43.4	-43.4	50.0	102.7
=	42.7	-42.7	50.0	102.7
=	42.0	-42.0	50.0	102.6
=	41.3	-41.3	50.0	102.6
=	40.6	-40.6	50.0	102.6
=	39.9	-39.9	50.0	102.5
=	39.2	-39.2	50.0	102.5
=	38.5	-38.5	50.0	102.4
=	37.8	-37.8	50.0	102.4
=	37.1	-37.1	50.0	102.4
=	36.4	-36.4	50.0	102.4
=	35.7	-35.7	50.0	102.3
=	35.0	-35.0	50.0	102.3
=	34.3	-34.3	50.0	102.2
=	33.5	-33.5	50.0	102.1
=	32.8	-32.8	50.0	102.1
=	32.1	-32.1	50.0	102.0
=	31.4	-31.4	50.0	102.0
=	30.7	-30.7	50.0	101.9
=	30.0	-30.0	50.0	101.9
=	29.3	-29.3	50.0	101.8
=	28.6	-28.6	50.0	101.8
=	27.9	-27.9	50.0	101.7
=	27.2	-27.2	50.0	101.6
=	26.5	-26.5	50.0	101.5
=	25.8	-25.8	50.0	101.5
=	25.1	-25.1	50.0	101.4
=	24.4	-24.4	50.0	101.4
=	23.6	-23.6	50.0	101.3
=	22.9	-22.9	50.0	101.3
=	22.2	-22.2	50.0	101.2
=	21.5	-21.5	50.0	101.2
=	20.8	-20.8	50.0	101.1
=	20.1	-20.1	50.0	101.1
=	19.4	-19.4	50.0	101.0
=	18.7	-18.7	50.0	101.0
=	18.0	-18.0	50.0	100.9
=	17.3	-17.3	50.0	100.9
=	16.6	-16.6	50.0	100.8
=	15.9	-15.9	50.0	100.7
=	15.2	-15.2	50.0	100.7
=	14.5	-14.5	50.0	100.7
=	13.7	-13.7	50.0	100.6
=	13.0	-13.0	50.0	100.6
=	12.3	-12.3	50.0	100.5
=	11.6	-11.6	50.0	100.5
=	10.9	-10.9	50.0	100.4
=	10.2	-10.2	50.0	100.4
=	9.5	-9.5	50.0	100.3
=	8.8	-8.8	50.0	100.3
=	8.1	-8.1	50.0	100.2
=	7.4	-7.4	50.0	100.2
=	6.7	-6.7	50.0	100.2
=	6.0	-6.0	50.0	100.2
=	5.3	-5.3	50.0	100.1
=	4.6	-4.6	50.0	100.1
=	3.8	-3.8	50.0	100.1
=	3.1	-3.1	50.0	100.0
=	2.4	-2.4	50.0	100.0
=	1.7	-1.7	50.0	100.0
=	1.0	-1.0	50.0	100.0
=	-0.3	0.3	50.0	100.0
=	-0.4	0.4	50.0	100.0
=	-1.1	1.1	50.0	100.0
=	-1.8	1.8	50.0	100.0
=	-2.5	2.5	50.0	100.0
=	-3.2	3.2	50.0	100.0
=	-3.9	3.9	50.0	100.1
=	-4.6	4.6	50.0	100.1
=	-5.3	5.3	50.0	100.1
=	-6.1	6.1	50.0	100.2
=	-6.8	6.8	50.0	100.2
=	-7.5	7.5	50.0	100.2
=	-8.2	8.2	50.0	100.3
=	-8.9	8.9	50.0	100.3
=	-9.6	9.6	50.0	100.3
=	-10.3	10.3	50.0	100.4
=	-11.0	11.0	50.0	100.4
=	-11.7	11.7	50.0	100.5
=	-12.4	12.4	50.0	100.5
=	-13.1	13.1	50.0	100.6
=	-13.8	13.8	50.0	100.6
=	-14.5	14.5	50.0	100.7
=	-15.2	15.2	50.0	100.7
=	-16.0	16.0	50.0	100.7
=	-16.7	16.7	50.0	100.8
=	-17.4	17.4	50.0	100.9
=	-18.1	18.1	50.0	100.9
=	-18.8	18.8	50.0	101.0
=	-19.5	19.5	50.0	101.0
=	-20.2	20.2	50.0	101.1
=	-20.9	20.9	50.0	101.2
=	-21.6	21.6	50.0	101.2
=	-22.3	22.3	50.0	101.3
=	-23.0	23.0	50.0	101.3
=	-23.7	23.7	50.0	101.3
=	-24.4	24.4	50.0	101.4
=	-25.1	25.1	50.0	101.4
=	-25.9	25.9	50.0	101.5
=	-26.6	26.6	50.0	101.5
=	-27.3	27.3	50.0	101.6
=	-28.0	28.0	50.0	101.7
=	-28.7	28.7	50.0	101.8
=	-29.4	29.4	50.0	101.8
=	-30.1	30.1	50.0	101.9
=	-30.8	30.8	50.0	101.9
=	-31.5	31.5	50.0	102.0
=	-32.2	32.2	50.0	102.0
=	-32.9	32.9	50.0	102.1
=	-33.6	33.6	50.0	102.2
=	-34.3	34.3	50.0	102.2
=	-35.0	35.0	50.0	102.3
=	-35.8	35.8	50.0	102.4
=	-36.5	36.5	50.0	102.4
=	-37.2	37.2	50.0	102.4
=	-37.9	37.9	50.0	102.4
=	-38.6	38.6	50.0	102.4
=	-39.3	39.3	50.0	102.5
=	-40.0	40.0	50.0	102.5
=	-40.7	40.7	50.0	102.6
=	-41.4	41.4	50.0	102.6
=	-42.1	42.1	50.0	102.6
=	-42.8	42.8	50.0	102.7
=	-43.5	43.5	50.0	102.7
=	-44.2	44.2	50.0	102.8
=	-44.9	44.9	50.0	102.8
=	-45.6	45.6	50.0	102.8
=	-46.4	46.4	50.0	102.8
=	-47.1	47.1	50.0	102.8
=	-47.8	47.8	50.0	102.8
=	-48.5	48.5	50.0	102.9
=	-49.2	49.2	50.0	102.9
=	-49.9	49.9	50.0	103.0
=	-50.6	50.6	50.0	103.0
=	-51.3	51.3	50.0	103.0
=	-52.0	52.0	50.0	103.0
=	-52.7	52.7	50.0	103.1
=	-53.4	53.4	50.0	103.1
=	-54.1	54.1	50.0	103.2
=	-54.8	54.8	50.0	103.2
=	-55.5	55.5	50.0	103.2
=	-56.3	56.3	50.0	103.3
=	-57.0	57.0	50.0	103.3
=	-57.7	57.7	50.0	103.3
=	-58.4	58.4	50.0	103.3
=	-59.1	59.1	50.0	103.3
=	-59.8	59.8	50.0	103.3
=	-60.5	60.5	50.0	103.3
=	-61.2	61.2	50.0	103.3
=	-61.9	61.9	50.0	103.3
=	-62.6	62.6	50.0	103.4
=	-63.3	63.3	50.0	103.4
=	-64.0	64.0	50.0	103.4
=	-64.7	64.7	50.0	103.4
=	-65.4	65.4	50.0	103.5
=	-66.2	66.2	50.0	103.5
