:MSR 	41	 # No. of measurement in file
:SYS BDS 0   # Beam Data Scanner System
#
# RFA300 ASCII Measurement Dump ( BDS format )
#
# Measurement number 	1
#
%VNR 1.0
%MOD 	RAT
%TYP 	SCN
%SCN 	PRO
%FLD 	ION
%DAT 	09-21-2011
%TIM 	12:00:00
%FSZ 	030	030
%BMT 	PHO	   10.0
%SSD 	1000
%BUP 	0
%BRD 	1000
%FSH 	1
%ASC 	0
%WEG 	0
%GPO 	0
%CPO 	0
%MEA 	2
%PRD 	24,0
%PTS 	263
%STS 	    -65.5	  0.0	   24.0 # Start Scan values in mm ( X , Y , Z )
%EDS 	    65.5	   0.0	   24.0 # End Scan values in mm ( X , Y , Z )
#
#	  X      Y      Z     Dose
#
=	-65.5	0.0	24.0	0.6
=	-65.0	0.0	24.0	0.6
=	-64.5	0.0	24.0	0.6
=	-64.0	0.0	24.0	0.6
=	-63.5	0.0	24.0	0.6
=	-63.0	0.0	24.0	0.6
=	-62.5	0.0	24.0	0.6
=	-62.0	0.0	24.0	0.6
=	-61.5	0.0	24.0	0.6
=	-61.0	0.0	24.0	0.6
=	-60.5	0.0	24.0	0.6
=	-60.0	0.0	24.0	0.6
=	-59.5	0.0	24.0	0.6
=	-59.0	0.0	24.0	0.6
=	-58.5	0.0	24.0	0.6
=	-58.0	0.0	24.0	0.7
=	-57.5	0.0	24.0	0.7
=	-57.0	0.0	24.0	0.7
=	-56.5	0.0	24.0	0.7
=	-56.0	0.0	24.0	0.7
=	-55.5	0.0	24.0	0.7
=	-55.0	0.0	24.0	0.7
=	-54.5	0.0	24.0	0.7
=	-54.0	0.0	24.0	0.7
=	-53.5	0.0	24.0	0.7
=	-53.0	0.0	24.0	0.7
=	-52.5	0.0	24.0	0.7
=	-52.0	0.0	24.0	0.7
=	-51.5	0.0	24.0	0.7
=	-51.0	0.0	24.0	0.8
=	-50.5	0.0	24.0	0.8
=	-50.0	0.0	24.0	0.8
=	-49.5	0.0	24.0	0.8
=	-49.0	0.0	24.0	0.8
=	-48.5	0.0	24.0	0.8
=	-48.0	0.0	24.0	0.8
=	-47.5	0.0	24.0	0.8
=	-47.0	0.0	24.0	0.8
=	-46.5	0.0	24.0	0.9
=	-46.0	0.0	24.0	0.9
=	-45.5	0.0	24.0	0.9
=	-45.0	0.0	24.0	0.9
=	-44.5	0.0	24.0	0.9
=	-44.0	0.0	24.0	0.9
=	-43.5	0.0	24.0	0.9
=	-43.0	0.0	24.0	0.9
=	-42.5	0.0	24.0	1.0
=	-42.0	0.0	24.0	1.0
=	-41.5	0.0	24.0	1.0
=	-41.0	0.0	24.0	1.0
=	-40.5	0.0	24.0	1.1
=	-40.0	0.0	24.0	1.1
=	-39.5	0.0	24.0	1.1
=	-39.0	0.0	24.0	1.1
=	-38.5	0.0	24.0	1.1
=	-38.0	0.0	24.0	1.1
=	-37.5	0.0	24.0	1.2
=	-37.0	0.0	24.0	1.2
=	-36.5	0.0	24.0	1.2
=	-36.0	0.0	24.0	1.2
=	-35.5	0.0	24.0	1.3
=	-35.0	0.0	24.0	1.3
=	-34.5	0.0	24.0	1.4
=	-34.0	0.0	24.0	1.4
=	-33.5	0.0	24.0	1.4
=	-33.0	0.0	24.0	1.5
=	-32.5	0.0	24.0	1.5
=	-32.0	0.0	24.0	1.6
=	-31.5	0.0	24.0	1.6
=	-31.0	0.0	24.0	1.7
=	-30.5	0.0	24.0	1.8
=	-30.0	0.0	24.0	1.8
=	-29.5	0.0	24.0	1.9
=	-29.0	0.0	24.0	2.0
=	-28.5	0.0	24.0	2.1
=	-28.0	0.0	24.0	2.2
=	-27.5	0.0	24.0	2.3
=	-27.0	0.0	24.0	2.5
=	-26.5	0.0	24.0	2.6
=	-26.0	0.0	24.0	2.8
=	-25.5	0.0	24.0	3.0
=	-25.0	0.0	24.0	3.3
=	-24.5	0.0	24.0	3.6
=	-24.0	0.0	24.0	3.9
=	-23.5	0.0	24.0	4.3
=	-23.0	0.0	24.0	4.7
=	-22.5	0.0	24.0	5.3
=	-22.0	0.0	24.0	5.9
=	-21.5	0.0	24.0	6.7
=	-21.0	0.0	24.0	7.6
=	-20.5	0.0	24.0	8.8
=	-20.0	0.0	24.0	10.3
=	-19.5	0.0	24.0	12.0
=	-19.0	0.0	24.0	14.3
=	-18.5	0.0	24.0	17.0
=	-18.0	0.0	24.0	20.4
=	-17.5	0.0	24.0	24.7
=	-17.0	0.0	24.0	29.5
=	-16.5	0.0	24.0	34.7
=	-16.0	0.0	24.0	40.3
=	-15.5	0.0	24.0	46.1
=	-15.0	0.0	24.0	52.1
=	-14.5	0.0	24.0	57.8
=	-14.0	0.0	24.0	63.7
=	-13.5	0.0	24.0	69.2
=	-13.0	0.0	24.0	74.5
=	-12.5	0.0	24.0	79.1
=	-12.0	0.0	24.0	83.0
=	-11.5	0.0	24.0	86.4
=	-11.0	0.0	24.0	89.3
=	-10.5	0.0	24.0	91.7
=	-10.0	0.0	24.0	93.2
=	-9.5	0.0	24.0	94.4
=	-9.0	0.0	24.0	95.5
=	-8.5	0.0	24.0	96.4
=	-8.0	0.0	24.0	96.9
=	-7.5	0.0	24.0	97.6
=	-7.0	0.0	24.0	98.0
=	-6.5	0.0	24.0	98.4
=	-6.0	0.0	24.0	98.7
=	-5.5	0.0	24.0	99.0
=	-5.0	0.0	24.0	99.2
=	-4.5	0.0	24.0	99.4
=	-4.0	0.0	24.0	99.6
=	-3.5	0.0	24.0	99.7
=	-3.0	0.0	24.0	99.7
=	-2.5	0.0	24.0	99.8
=	-2.0	0.0	24.0	99.9
=	-1.5	0.0	24.0	99.9
=	-1.0	0.0	24.0	100.0
=	-0.5	0.0	24.0	100.0
=	0.0	0.0	24.0	100.0
=	0.5	0.0	24.0	100.0
=	1.0	0.0	24.0	100.0
=	1.5	0.0	24.0	99.9
=	2.0	0.0	24.0	99.9
=	2.5	0.0	24.0	99.7
=	3.0	0.0	24.0	99.7
=	3.5	0.0	24.0	99.6
=	4.0	0.0	24.0	99.5
=	4.5	0.0	24.0	99.4
=	5.0	0.0	24.0	99.2
=	5.5	0.0	24.0	99.0
=	6.0	0.0	24.0	98.7
=	6.5	0.0	24.0	98.5
=	7.0	0.0	24.0	98.0
=	7.5	0.0	24.0	97.6
=	8.0	0.0	24.0	96.9
=	8.5	0.0	24.0	96.2
=	9.0	0.0	24.0	95.3
=	9.5	0.0	24.0	94.2
=	10.0	0.0	24.0	93.1
=	10.5	0.0	24.0	91.5
=	11.0	0.0	24.0	89.3
=	11.5	0.0	24.0	86.3
=	12.0	0.0	24.0	82.9
=	12.5	0.0	24.0	78.9
=	13.0	0.0	24.0	74.3
=	13.5	0.0	24.0	69.2
=	14.0	0.0	24.0	63.5
=	14.5	0.0	24.0	57.8
=	15.0	0.0	24.0	51.9
=	15.5	0.0	24.0	46.0
=	16.0	0.0	24.0	40.2
=	16.5	0.0	24.0	34.6
=	17.0	0.0	24.0	29.3
=	17.5	0.0	24.0	24.7
=	18.0	0.0	24.0	20.4
=	18.5	0.0	24.0	17.0
=	19.0	0.0	24.0	14.2
=	19.5	0.0	24.0	12.0
=	20.0	0.0	24.0	10.2
=	20.5	0.0	24.0	8.7
=	21.0	0.0	24.0	7.6
=	21.5	0.0	24.0	6.7
=	22.0	0.0	24.0	5.9
=	22.5	0.0	24.0	5.3
=	23.0	0.0	24.0	4.7
=	23.5	0.0	24.0	4.2
=	24.0	0.0	24.0	3.9
=	24.5	0.0	24.0	3.6
=	25.0	0.0	24.0	3.2
=	25.5	0.0	24.0	3.0
=	26.0	0.0	24.0	2.8
=	26.5	0.0	24.0	2.6
=	27.0	0.0	24.0	2.5
=	27.5	0.0	24.0	2.3
=	28.0	0.0	24.0	2.2
=	28.5	0.0	24.0	2.1
=	29.0	0.0	24.0	2.0
=	29.5	0.0	24.0	1.9
=	30.0	0.0	24.0	1.8
=	30.5	0.0	24.0	1.7
=	31.0	0.0	24.0	1.7
=	31.5	0.0	24.0	1.6
=	32.0	0.0	24.0	1.5
=	32.5	0.0	24.0	1.5
=	33.0	0.0	24.0	1.5
=	33.5	0.0	24.0	1.4
=	34.0	0.0	24.0	1.4
=	34.5	0.0	24.0	1.4
=	35.0	0.0	24.0	1.3
=	35.5	0.0	24.0	1.3
=	36.0	0.0	24.0	1.3
=	36.5	0.0	24.0	1.2
=	37.0	0.0	24.0	1.2
=	37.5	0.0	24.0	1.2
=	38.0	0.0	24.0	1.1
=	38.5	0.0	24.0	1.1
=	39.0	0.0	24.0	1.1
=	39.5	0.0	24.0	1.1
=	40.0	0.0	24.0	1.1
=	40.5	0.0	24.0	1.1
=	41.0	0.0	24.0	1.0
=	41.5	0.0	24.0	1.0
=	42.0	0.0	24.0	1.0
=	42.5	0.0	24.0	1.0
=	43.0	0.0	24.0	0.9
=	43.5	0.0	24.0	0.9
=	44.0	0.0	24.0	0.9
=	44.5	0.0	24.0	0.9
=	45.0	0.0	24.0	0.9
=	45.5	0.0	24.0	0.9
=	46.0	0.0	24.0	0.9
=	46.5	0.0	24.0	0.9
=	47.0	0.0	24.0	0.8
=	47.5	0.0	24.0	0.8
=	48.0	0.0	24.0	0.8
=	48.5	0.0	24.0	0.8
=	49.0	0.0	24.0	0.8
=	49.5	0.0	24.0	0.8
=	50.0	0.0	24.0	0.8
=	50.5	0.0	24.0	0.8
=	51.0	0.0	24.0	0.8
=	51.5	0.0	24.0	0.8
=	52.0	0.0	24.0	0.7
=	52.5	0.0	24.0	0.7
=	53.0	0.0	24.0	0.7
=	53.5	0.0	24.0	0.7
=	54.0	0.0	24.0	0.7
=	54.5	0.0	24.0	0.7
=	55.0	0.0	24.0	0.7
=	55.5	0.0	24.0	0.7
=	56.0	0.0	24.0	0.7
=	56.5	0.0	24.0	0.7
=	57.0	0.0	24.0	0.7
=	57.5	0.0	24.0	0.7
=	58.0	0.0	24.0	0.7
=	58.5	0.0	24.0	0.7
=	59.0	0.0	24.0	0.6
=	59.5	0.0	24.0	0.6
=	60.0	0.0	24.0	0.6
=	60.5	0.0	24.0	0.6
=	61.0	0.0	24.0	0.6
=	61.5	0.0	24.0	0.6
=	62.0	0.0	24.0	0.6
=	62.5	0.0	24.0	0.6
=	63.0	0.0	24.0	0.6
=	63.5	0.0	24.0	0.6
=	64.0	0.0	24.0	0.6
=	64.5	0.0	24.0	0.6
=	65.0	0.0	24.0	0.6
=	65.5	0.0	24.0	0.6
:EOM # End of Measurement
#
# RFA300 ASCII Measurement Dump ( BDS format )
#
# Measurement number 	2
#
%VNR 1.0
%MOD 	RAT
%TYP 	SCN
%SCN 	PRO
%FLD 	ION
%DAT 	09-21-2011
%TIM 	12:00:00
%FSZ 	030	030
%BMT 	PHO	   10.0
%SSD 	1000
%BUP 	0
%BRD 	1000
%FSH 	1
%ASC 	0
%WEG 	0
%GPO 	0
%CPO 	0
%MEA 	2
%PRD 	50,0
%PTS 	264
%STS 	    -65.6	  0.0	   50.0 # Start Scan values in mm ( X , Y , Z )
%EDS 	    65.4	   0.0	   50.0 # End Scan values in mm ( X , Y , Z )
#
#	  X      Y      Z     Dose
#
=	-65.6	0.0	50.0	0.6
=	-65.1	0.0	50.0	0.6
=	-64.6	0.0	50.0	0.6
=	-64.1	0.0	50.0	0.6
=	-63.6	0.0	50.0	0.6
=	-63.1	0.0	50.0	0.6
=	-62.6	0.0	50.0	0.6
=	-62.1	0.0	50.0	0.6
=	-61.6	0.0	50.0	0.6
=	-61.1	0.0	50.0	0.6
=	-60.6	0.0	50.0	0.6
=	-60.1	0.0	50.0	0.7
=	-59.6	0.0	50.0	0.7
=	-59.1	0.0	50.0	0.7
=	-58.6	0.0	50.0	0.7
=	-58.1	0.0	50.0	0.7
=	-57.6	0.0	50.0	0.7
=	-57.1	0.0	50.0	0.7
=	-56.6	0.0	50.0	0.7
=	-56.1	0.0	50.0	0.7
=	-55.6	0.0	50.0	0.7
=	-55.1	0.0	50.0	0.7
=	-54.6	0.0	50.0	0.8
=	-54.1	0.0	50.0	0.8
=	-53.6	0.0	50.0	0.8
=	-53.1	0.0	50.0	0.8
=	-52.6	0.0	50.0	0.8
=	-52.1	0.0	50.0	0.8
=	-51.6	0.0	50.0	0.8
=	-51.1	0.0	50.0	0.8
=	-50.6	0.0	50.0	0.8
=	-50.1	0.0	50.0	0.9
=	-49.6	0.0	50.0	0.9
=	-49.1	0.0	50.0	0.9
=	-48.6	0.0	50.0	0.9
=	-48.1	0.0	50.0	0.9
=	-47.6	0.0	50.0	0.9
=	-47.1	0.0	50.0	0.9
=	-46.6	0.0	50.0	1.0
=	-46.1	0.0	50.0	1.0
=	-45.6	0.0	50.0	1.0
=	-45.1	0.0	50.0	1.0
=	-44.6	0.0	50.0	1.0
=	-44.1	0.0	50.0	1.0
=	-43.6	0.0	50.0	1.0
=	-43.1	0.0	50.0	1.1
=	-42.6	0.0	50.0	1.1
=	-42.1	0.0	50.0	1.1
=	-41.6	0.0	50.0	1.1
=	-41.1	0.0	50.0	1.1
=	-40.6	0.0	50.0	1.2
=	-40.1	0.0	50.0	1.2
=	-39.6	0.0	50.0	1.2
=	-39.1	0.0	50.0	1.3
=	-38.6	0.0	50.0	1.3
=	-38.1	0.0	50.0	1.3
=	-37.6	0.0	50.0	1.3
=	-37.1	0.0	50.0	1.4
=	-36.6	0.0	50.0	1.4
=	-36.1	0.0	50.0	1.5
=	-35.6	0.0	50.0	1.5
=	-35.1	0.0	50.0	1.5
=	-34.6	0.0	50.0	1.6
=	-34.1	0.0	50.0	1.6
=	-33.6	0.0	50.0	1.7
=	-33.1	0.0	50.0	1.7
=	-32.6	0.0	50.0	1.8
=	-32.1	0.0	50.0	1.9
=	-31.6	0.0	50.0	2.0
=	-31.1	0.0	50.0	2.1
=	-30.6	0.0	50.0	2.1
=	-30.1	0.0	50.0	2.2
=	-29.6	0.0	50.0	2.3
=	-29.1	0.0	50.0	2.5
=	-28.6	0.0	50.0	2.6
=	-28.1	0.0	50.0	2.8
=	-27.6	0.0	50.0	2.9
=	-27.1	0.0	50.0	3.1
=	-26.6	0.0	50.0	3.3
=	-26.1	0.0	50.0	3.6
=	-25.6	0.0	50.0	3.9
=	-25.1	0.0	50.0	4.2
=	-24.6	0.0	50.0	4.5
=	-24.1	0.0	50.0	4.9
=	-23.6	0.0	50.0	5.4
=	-23.1	0.0	50.0	5.9
=	-22.6	0.0	50.0	6.6
=	-22.1	0.0	50.0	7.4
=	-21.6	0.0	50.0	8.3
=	-21.1	0.0	50.0	9.5
=	-20.6	0.0	50.0	10.8
=	-20.1	0.0	50.0	12.4
=	-19.6	0.0	50.0	14.4
=	-19.1	0.0	50.0	17.0
=	-18.6	0.0	50.0	20.1
=	-18.1	0.0	50.0	23.8
=	-17.6	0.0	50.0	28.2
=	-17.1	0.0	50.0	33.1
=	-16.6	0.0	50.0	38.3
=	-16.1	0.0	50.0	43.7
=	-15.6	0.0	50.0	49.3
=	-15.1	0.0	50.0	55.0
=	-14.6	0.0	50.0	60.6
=	-14.1	0.0	50.0	66.2
=	-13.6	0.0	50.0	71.2
=	-13.1	0.0	50.0	75.9
=	-12.6	0.0	50.0	80.1
=	-12.1	0.0	50.0	83.9
=	-11.6	0.0	50.0	86.9
=	-11.1	0.0	50.0	89.5
=	-10.6	0.0	50.0	91.4
=	-10.1	0.0	50.0	92.9
=	-9.6	0.0	50.0	94.0
=	-9.1	0.0	50.0	95.2
=	-8.6	0.0	50.0	96.0
=	-8.1	0.0	50.0	96.8
=	-7.6	0.0	50.0	97.5
=	-7.1	0.0	50.0	97.9
=	-6.6	0.0	50.0	98.3
=	-6.1	0.0	50.0	98.5
=	-5.6	0.0	50.0	98.7
=	-5.1	0.0	50.0	99.0
=	-4.6	0.0	50.0	99.3
=	-4.1	0.0	50.0	99.5
=	-3.6	0.0	50.0	99.5
=	-3.1	0.0	50.0	99.6
=	-2.6	0.0	50.0	99.8
=	-2.1	0.0	50.0	99.8
=	-1.6	0.0	50.0	99.9
=	-1.1	0.0	50.0	100.0
=	-0.6	0.0	50.0	100.0
=	-0.1	0.0	50.0	100.0
=	0.0	0.0	50.0	100.0
=	0.4	0.0	50.0	100.0
=	0.9	0.0	50.0	100.0
=	1.4	0.0	50.0	100.0
=	1.9	0.0	50.0	99.9
=	2.4	0.0	50.0	99.8
=	2.9	0.0	50.0	99.6
=	3.4	0.0	50.0	99.5
=	3.9	0.0	50.0	99.4
=	4.4	0.0	50.0	99.3
=	4.9	0.0	50.0	99.1
=	5.4	0.0	50.0	98.8
=	5.9	0.0	50.0	98.5
=	6.4	0.0	50.0	98.2
=	6.9	0.0	50.0	97.8
=	7.4	0.0	50.0	97.4
=	7.9	0.0	50.0	96.9
=	8.4	0.0	50.0	96.2
=	8.9	0.0	50.0	95.4
=	9.4	0.0	50.0	94.5
=	9.9	0.0	50.0	93.4
=	10.4	0.0	50.0	91.9
=	10.9	0.0	50.0	90.3
=	11.4	0.0	50.0	88.2
=	11.9	0.0	50.0	85.4
=	12.4	0.0	50.0	82.0
=	12.9	0.0	50.0	77.9
=	13.4	0.0	50.0	73.5
=	13.9	0.0	50.0	68.6
=	14.4	0.0	50.0	63.3
=	14.9	0.0	50.0	57.8
=	15.4	0.0	50.0	52.0
=	15.9	0.0	50.0	46.4
=	16.4	0.0	50.0	40.8
=	16.9	0.0	50.0	35.4
=	17.4	0.0	50.0	30.5
=	17.9	0.0	50.0	25.9
=	18.4	0.0	50.0	21.8
=	18.9	0.0	50.0	18.4
=	19.4	0.0	50.0	15.6
=	19.9	0.0	50.0	13.3
=	20.4	0.0	50.0	11.5
=	20.9	0.0	50.0	10.1
=	21.4	0.0	50.0	8.9
=	21.9	0.0	50.0	7.8
=	22.4	0.0	50.0	7.0
=	22.9	0.0	50.0	6.3
=	23.4	0.0	50.0	5.7
=	23.9	0.0	50.0	5.2
=	24.4	0.0	50.0	4.7
=	24.9	0.0	50.0	4.3
=	25.4	0.0	50.0	4.0
=	25.9	0.0	50.0	3.7
=	26.4	0.0	50.0	3.4
=	26.9	0.0	50.0	3.2
=	27.4	0.0	50.0	3.0
=	27.9	0.0	50.0	2.8
=	28.4	0.0	50.0	2.6
=	28.9	0.0	50.0	2.5
=	29.4	0.0	50.0	2.4
=	29.9	0.0	50.0	2.3
=	30.4	0.0	50.0	2.2
=	30.9	0.0	50.0	2.1
=	31.4	0.0	50.0	2.0
=	31.9	0.0	50.0	1.9
=	32.4	0.0	50.0	1.9
=	32.9	0.0	50.0	1.8
=	33.4	0.0	50.0	1.7
=	33.9	0.0	50.0	1.7
=	34.4	0.0	50.0	1.6
=	34.9	0.0	50.0	1.5
=	35.4	0.0	50.0	1.5
=	35.9	0.0	50.0	1.5
=	36.4	0.0	50.0	1.4
=	36.9	0.0	50.0	1.4
=	37.4	0.0	50.0	1.3
=	37.9	0.0	50.0	1.3
=	38.4	0.0	50.0	1.3
=	38.9	0.0	50.0	1.3
=	39.4	0.0	50.0	1.2
=	39.9	0.0	50.0	1.2
=	40.4	0.0	50.0	1.2
=	40.9	0.0	50.0	1.2
=	41.4	0.0	50.0	1.1
=	41.9	0.0	50.0	1.1
=	42.4	0.0	50.0	1.1
=	42.9	0.0	50.0	1.1
=	43.4	0.0	50.0	1.1
=	43.9	0.0	50.0	1.0
=	44.4	0.0	50.0	1.0
=	44.9	0.0	50.0	1.0
=	45.4	0.0	50.0	1.0
=	45.9	0.0	50.0	1.0
=	46.4	0.0	50.0	1.0
=	46.9	0.0	50.0	0.9
=	47.4	0.0	50.0	0.9
=	47.9	0.0	50.0	0.9
=	48.4	0.0	50.0	0.9
=	48.9	0.0	50.0	0.9
=	49.4	0.0	50.0	0.9
=	49.9	0.0	50.0	0.9
=	50.4	0.0	50.0	0.9
=	50.9	0.0	50.0	0.9
=	51.4	0.0	50.0	0.8
=	51.9	0.0	50.0	0.8
=	52.4	0.0	50.0	0.8
=	52.9	0.0	50.0	0.8
=	53.4	0.0	50.0	0.8
=	53.9	0.0	50.0	0.8
=	54.4	0.0	50.0	0.8
=	54.9	0.0	50.0	0.7
=	55.4	0.0	50.0	0.7
=	55.9	0.0	50.0	0.7
=	56.4	0.0	50.0	0.7
=	56.9	0.0	50.0	0.7
=	57.4	0.0	50.0	0.7
=	57.9	0.0	50.0	0.7
=	58.4	0.0	50.0	0.7
=	58.9	0.0	50.0	0.7
=	59.4	0.0	50.0	0.7
=	59.9	0.0	50.0	0.7
=	60.4	0.0	50.0	0.7
=	60.9	0.0	50.0	0.7
=	61.4	0.0	50.0	0.7
=	61.9	0.0	50.0	0.6
=	62.4	0.0	50.0	0.6
=	62.9	0.0	50.0	0.6
=	63.4	0.0	50.0	0.6
=	63.9	0.0	50.0	0.6
=	64.4	0.0	50.0	0.6
=	64.9	0.0	50.0	0.6
=	65.4	0.0	50.0	0.6
:EOM # End of Measurement
#
# RFA300 ASCII Measurement Dump ( BDS format )
#
# Measurement number 	3
#
%VNR 1.0
%MOD 	RAT
%TYP 	SCN
%SCN 	PRO
%FLD 	ION
%DAT 	09-21-2011
%TIM 	12:00:00
%FSZ 	030	030
%BMT 	PHO	   10.0
%SSD 	1000
%BUP 	0
%BRD 	1000
%FSH 	1
%ASC 	0
%WEG 	0
%GPO 	0
%CPO 	0
%MEA 	2
%PRD 	100,0
%PTS 	268
%STS 	    -66.6	  0.0	   100.0 # Start Scan values in mm ( X , Y , Z )
%EDS 	    66.4	   0.0	   100.0 # End Scan values in mm ( X , Y , Z )
#
#	  X      Y      Z     Dose
#
=	-66.6	0.0	100.0	0.8
=	-66.1	0.0	100.0	0.8
=	-65.6	0.0	100.0	0.8
=	-65.1	0.0	100.0	0.9
=	-64.6	0.0	100.0	0.9
=	-64.1	0.0	100.0	0.9
=	-63.6	0.0	100.0	0.9
=	-63.1	0.0	100.0	0.9
=	-62.6	0.0	100.0	0.9
=	-62.1	0.0	100.0	0.9
=	-61.6	0.0	100.0	0.9
=	-61.1	0.0	100.0	0.9
=	-60.6	0.0	100.0	0.9
=	-60.1	0.0	100.0	0.9
=	-59.6	0.0	100.0	0.9
=	-59.1	0.0	100.0	1.0
=	-58.6	0.0	100.0	1.0
=	-58.1	0.0	100.0	1.0
=	-57.6	0.0	100.0	1.0
=	-57.1	0.0	100.0	1.0
=	-56.6	0.0	100.0	1.0
=	-56.1	0.0	100.0	1.0
=	-55.6	0.0	100.0	1.0
=	-55.1	0.0	100.0	1.0
=	-54.6	0.0	100.0	1.0
=	-54.1	0.0	100.0	1.1
=	-53.6	0.0	100.0	1.1
=	-53.1	0.0	100.0	1.1
=	-52.6	0.0	100.0	1.1
=	-52.1	0.0	100.0	1.1
=	-51.6	0.0	100.0	1.1
=	-51.1	0.0	100.0	1.1
=	-50.6	0.0	100.0	1.2
=	-50.1	0.0	100.0	1.2
=	-49.6	0.0	100.0	1.2
=	-49.1	0.0	100.0	1.3
=	-48.6	0.0	100.0	1.3
=	-48.1	0.0	100.0	1.3
=	-47.6	0.0	100.0	1.3
=	-47.1	0.0	100.0	1.3
=	-46.6	0.0	100.0	1.4
=	-46.1	0.0	100.0	1.4
=	-45.6	0.0	100.0	1.4
=	-45.1	0.0	100.0	1.4
=	-44.6	0.0	100.0	1.5
=	-44.1	0.0	100.0	1.5
=	-43.6	0.0	100.0	1.5
=	-43.1	0.0	100.0	1.6
=	-42.6	0.0	100.0	1.6
=	-42.1	0.0	100.0	1.6
=	-41.6	0.0	100.0	1.6
=	-41.1	0.0	100.0	1.7
=	-40.6	0.0	100.0	1.7
=	-40.1	0.0	100.0	1.7
=	-39.6	0.0	100.0	1.8
=	-39.1	0.0	100.0	1.8
=	-38.6	0.0	100.0	1.9
=	-38.1	0.0	100.0	1.9
=	-37.6	0.0	100.0	1.9
=	-37.1	0.0	100.0	2.0
=	-36.6	0.0	100.0	2.1
=	-36.1	0.0	100.0	2.1
=	-35.6	0.0	100.0	2.2
=	-35.1	0.0	100.0	2.3
=	-34.6	0.0	100.0	2.3
=	-34.1	0.0	100.0	2.4
=	-33.6	0.0	100.0	2.5
=	-33.1	0.0	100.0	2.5
=	-32.6	0.0	100.0	2.6
=	-32.1	0.0	100.0	2.7
=	-31.6	0.0	100.0	2.8
=	-31.1	0.0	100.0	2.9
=	-30.6	0.0	100.0	3.1
=	-30.1	0.0	100.0	3.2
=	-29.6	0.0	100.0	3.3
=	-29.1	0.0	100.0	3.5
=	-28.6	0.0	100.0	3.7
=	-28.1	0.0	100.0	3.9
=	-27.6	0.0	100.0	4.1
=	-27.1	0.0	100.0	4.4
=	-26.6	0.0	100.0	4.7
=	-26.1	0.0	100.0	5.0
=	-25.6	0.0	100.0	5.3
=	-25.1	0.0	100.0	5.8
=	-24.6	0.0	100.0	6.2
=	-24.1	0.0	100.0	6.8
=	-23.6	0.0	100.0	7.4
=	-23.1	0.0	100.0	8.1
=	-22.6	0.0	100.0	9.0
=	-22.1	0.0	100.0	10.1
=	-21.6	0.0	100.0	11.4
=	-21.1	0.0	100.0	12.9
=	-20.6	0.0	100.0	14.8
=	-20.1	0.0	100.0	17.1
=	-19.6	0.0	100.0	19.8
=	-19.1	0.0	100.0	23.1
=	-18.6	0.0	100.0	27.1
=	-18.1	0.0	100.0	31.6
=	-17.6	0.0	100.0	36.4
=	-17.1	0.0	100.0	41.7
=	-16.6	0.0	100.0	47.0
=	-16.1	0.0	100.0	52.4
=	-15.6	0.0	100.0	57.8
=	-15.1	0.0	100.0	63.3
=	-14.6	0.0	100.0	68.5
=	-14.1	0.0	100.0	73.3
=	-13.6	0.0	100.0	77.7
=	-13.1	0.0	100.0	81.6
=	-12.6	0.0	100.0	85.0
=	-12.1	0.0	100.0	87.6
=	-11.6	0.0	100.0	89.8
=	-11.1	0.0	100.0	91.5
=	-10.6	0.0	100.0	92.8
=	-10.1	0.0	100.0	94.0
=	-9.6	0.0	100.0	95.1
=	-9.1	0.0	100.0	95.9
=	-8.6	0.0	100.0	96.5
=	-8.1	0.0	100.0	97.0
=	-7.6	0.0	100.0	97.7
=	-7.1	0.0	100.0	98.0
=	-6.6	0.0	100.0	98.3
=	-6.1	0.0	100.0	98.6
=	-5.6	0.0	100.0	98.8
=	-5.1	0.0	100.0	99.0
=	-4.6	0.0	100.0	99.2
=	-4.1	0.0	100.0	99.4
=	-3.6	0.0	100.0	99.6
=	-3.1	0.0	100.0	99.7
=	-2.6	0.0	100.0	99.8
=	-2.1	0.0	100.0	99.9
=	-1.6	0.0	100.0	99.9
=	-1.1	0.0	100.0	100.0
=	-0.6	0.0	100.0	100.0
=	-0.1	0.0	100.0	100.0
=	0.0	0.0	100.0	100.0
=	0.4	0.0	100.0	100.0
=	0.9	0.0	100.0	100.0
=	1.4	0.0	100.0	99.9
=	1.9	0.0	100.0	99.9
=	2.4	0.0	100.0	99.8
=	2.9	0.0	100.0	99.8
=	3.4	0.0	100.0	99.6
=	3.9	0.0	100.0	99.4
=	4.4	0.0	100.0	99.3
=	4.9	0.0	100.0	99.1
=	5.4	0.0	100.0	98.9
=	5.9	0.0	100.0	98.7
=	6.4	0.0	100.0	98.4
=	6.9	0.0	100.0	98.2
=	7.4	0.0	100.0	97.7
=	7.9	0.0	100.0	97.3
=	8.4	0.0	100.0	96.6
=	8.9	0.0	100.0	96.0
=	9.4	0.0	100.0	95.4
=	9.9	0.0	100.0	94.3
=	10.4	0.0	100.0	93.2
=	10.9	0.0	100.0	91.9
=	11.4	0.0	100.0	90.4
=	11.9	0.0	100.0	88.4
=	12.4	0.0	100.0	85.9
=	12.9	0.0	100.0	83.0
=	13.4	0.0	100.0	79.3
=	13.9	0.0	100.0	75.1
=	14.4	0.0	100.0	70.5
=	14.9	0.0	100.0	65.3
=	15.4	0.0	100.0	60.0
=	15.9	0.0	100.0	54.6
=	16.4	0.0	100.0	49.2
=	16.9	0.0	100.0	43.9
=	17.4	0.0	100.0	38.6
=	17.9	0.0	100.0	33.7
=	18.4	0.0	100.0	29.0
=	18.9	0.0	100.0	24.7
=	19.4	0.0	100.0	21.0
=	19.9	0.0	100.0	18.1
=	20.4	0.0	100.0	15.7
=	20.9	0.0	100.0	13.6
=	21.4	0.0	100.0	11.9
=	21.9	0.0	100.0	10.6
=	22.4	0.0	100.0	9.4
=	22.9	0.0	100.0	8.4
=	23.4	0.0	100.0	7.7
=	23.9	0.0	100.0	7.0
=	24.4	0.0	100.0	6.4
=	24.9	0.0	100.0	5.9
=	25.4	0.0	100.0	5.5
=	25.9	0.0	100.0	5.1
=	26.4	0.0	100.0	4.8
=	26.9	0.0	100.0	4.5
=	27.4	0.0	100.0	4.2
=	27.9	0.0	100.0	4.0
=	28.4	0.0	100.0	3.8
=	28.9	0.0	100.0	3.6
=	29.4	0.0	100.0	3.4
=	29.9	0.0	100.0	3.2
=	30.4	0.0	100.0	3.1
=	30.9	0.0	100.0	3.0
=	31.4	0.0	100.0	2.9
=	31.9	0.0	100.0	2.8
=	32.4	0.0	100.0	2.7
=	32.9	0.0	100.0	2.6
=	33.4	0.0	100.0	2.5
=	33.9	0.0	100.0	2.4
=	34.4	0.0	100.0	2.4
=	34.9	0.0	100.0	2.3
=	35.4	0.0	100.0	2.2
=	35.9	0.0	100.0	2.2
=	36.4	0.0	100.0	2.1
=	36.9	0.0	100.0	2.1
=	37.4	0.0	100.0	2.0
=	37.9	0.0	100.0	2.0
=	38.4	0.0	100.0	1.9
=	38.9	0.0	100.0	1.9
=	39.4	0.0	100.0	1.8
=	39.9	0.0	100.0	1.8
=	40.4	0.0	100.0	1.7
=	40.9	0.0	100.0	1.7
=	41.4	0.0	100.0	1.6
=	41.9	0.0	100.0	1.6
=	42.4	0.0	100.0	1.6
=	42.9	0.0	100.0	1.6
=	43.4	0.0	100.0	1.5
=	43.9	0.0	100.0	1.5
=	44.4	0.0	100.0	1.5
=	44.9	0.0	100.0	1.5
=	45.4	0.0	100.0	1.4
=	45.9	0.0	100.0	1.4
=	46.4	0.0	100.0	1.4
=	46.9	0.0	100.0	1.4
=	47.4	0.0	100.0	1.3
=	47.9	0.0	100.0	1.3
=	48.4	0.0	100.0	1.3
=	48.9	0.0	100.0	1.3
=	49.4	0.0	100.0	1.3
=	49.9	0.0	100.0	1.2
=	50.4	0.0	100.0	1.2
=	50.9	0.0	100.0	1.2
=	51.4	0.0	100.0	1.2
=	51.9	0.0	100.0	1.1
=	52.4	0.0	100.0	1.1
=	52.9	0.0	100.0	1.1
=	53.4	0.0	100.0	1.1
=	53.9	0.0	100.0	1.1
=	54.4	0.0	100.0	1.1
=	54.9	0.0	100.0	1.0
=	55.4	0.0	100.0	1.0
=	55.9	0.0	100.0	1.0
=	56.4	0.0	100.0	1.0
=	56.9	0.0	100.0	1.0
=	57.4	0.0	100.0	1.0
=	57.9	0.0	100.0	1.0
=	58.4	0.0	100.0	1.0
=	58.9	0.0	100.0	1.0
=	59.4	0.0	100.0	1.0
=	59.9	0.0	100.0	0.9
=	60.4	0.0	100.0	0.9
=	60.9	0.0	100.0	0.9
=	61.4	0.0	100.0	0.9
=	61.9	0.0	100.0	0.9
=	62.4	0.0	100.0	0.9
=	62.9	0.0	100.0	0.9
=	63.4	0.0	100.0	0.9
=	63.9	0.0	100.0	0.9
=	64.4	0.0	100.0	0.8
=	64.9	0.0	100.0	0.8
=	65.4	0.0	100.0	0.8
=	65.9	0.0	100.0	0.8
=	66.4	0.0	100.0	0.8
:EOM # End of Measurement
#
# RFA300 ASCII Measurement Dump ( BDS format )
#
# Measurement number 	4
#
%VNR 1.0
%MOD 	RAT
%TYP 	SCN
%SCN 	PRO
%FLD 	ION
%DAT 	09-21-2011
%TIM 	12:00:00
%FSZ 	030	030
%BMT 	PHO	   10.0
%SSD 	1000
%BUP 	0
%BRD 	1000
%FSH 	1
%ASC 	0
%WEG 	0
%GPO 	0
%CPO 	0
%MEA 	2
%PRD 	200,0
%PTS 	272
%STS 	    -67.6	  0.0	   200.0 # Start Scan values in mm ( X , Y , Z )
%EDS 	    67.4	   0.0	   200.0 # End Scan values in mm ( X , Y , Z )
#
#	  X      Y      Z     Dose
#
=	-67.6	0.0	200.0	1.3
=	-67.1	0.0	200.0	1.3
=	-66.6	0.0	200.0	1.3
=	-66.1	0.0	200.0	1.3
=	-65.6	0.0	200.0	1.4
=	-65.1	0.0	200.0	1.4
=	-64.6	0.0	200.0	1.4
=	-64.1	0.0	200.0	1.4
=	-63.6	0.0	200.0	1.4
=	-63.1	0.0	200.0	1.4
=	-62.6	0.0	200.0	1.4
=	-62.1	0.0	200.0	1.5
=	-61.6	0.0	200.0	1.5
=	-61.1	0.0	200.0	1.5
=	-60.6	0.0	200.0	1.5
=	-60.1	0.0	200.0	1.5
=	-59.6	0.0	200.0	1.5
=	-59.1	0.0	200.0	1.6
=	-58.6	0.0	200.0	1.6
=	-58.1	0.0	200.0	1.6
=	-57.6	0.0	200.0	1.6
=	-57.1	0.0	200.0	1.7
=	-56.6	0.0	200.0	1.7
=	-56.1	0.0	200.0	1.7
=	-55.6	0.0	200.0	1.7
=	-55.1	0.0	200.0	1.7
=	-54.6	0.0	200.0	1.8
=	-54.1	0.0	200.0	1.8
=	-53.6	0.0	200.0	1.8
=	-53.1	0.0	200.0	1.8
=	-52.6	0.0	200.0	1.8
=	-52.1	0.0	200.0	1.9
=	-51.6	0.0	200.0	1.9
=	-51.1	0.0	200.0	1.9
=	-50.6	0.0	200.0	2.0
=	-50.1	0.0	200.0	2.0
=	-49.6	0.0	200.0	2.0
=	-49.1	0.0	200.0	2.0
=	-48.6	0.0	200.0	2.1
=	-48.1	0.0	200.0	2.1
=	-47.6	0.0	200.0	2.1
=	-47.1	0.0	200.0	2.2
=	-46.6	0.0	200.0	2.2
=	-46.1	0.0	200.0	2.3
=	-45.6	0.0	200.0	2.3
=	-45.1	0.0	200.0	2.4
=	-44.6	0.0	200.0	2.4
=	-44.1	0.0	200.0	2.4
=	-43.6	0.0	200.0	2.5
=	-43.1	0.0	200.0	2.5
=	-42.6	0.0	200.0	2.5
=	-42.1	0.0	200.0	2.6
=	-41.6	0.0	200.0	2.6
=	-41.1	0.0	200.0	2.6
=	-40.6	0.0	200.0	2.7
=	-40.1	0.0	200.0	2.7
=	-39.6	0.0	200.0	2.8
=	-39.1	0.0	200.0	2.9
=	-38.6	0.0	200.0	2.9
=	-38.1	0.0	200.0	3.0
=	-37.6	0.0	200.0	3.0
=	-37.1	0.0	200.0	3.1
=	-36.6	0.0	200.0	3.2
=	-36.1	0.0	200.0	3.3
=	-35.6	0.0	200.0	3.4
=	-35.1	0.0	200.0	3.5
=	-34.6	0.0	200.0	3.5
=	-34.1	0.0	200.0	3.6
=	-33.6	0.0	200.0	3.7
=	-33.1	0.0	200.0	3.9
=	-32.6	0.0	200.0	4.0
=	-32.1	0.0	200.0	4.1
=	-31.6	0.0	200.0	4.2
=	-31.1	0.0	200.0	4.4
=	-30.6	0.0	200.0	4.6
=	-30.1	0.0	200.0	4.8
=	-29.6	0.0	200.0	5.0
=	-29.1	0.0	200.0	5.4
=	-28.6	0.0	200.0	5.6
=	-28.1	0.0	200.0	5.9
=	-27.6	0.0	200.0	6.2
=	-27.1	0.0	200.0	6.6
=	-26.6	0.0	200.0	7.0
=	-26.1	0.0	200.0	7.5
=	-25.6	0.0	200.0	8.1
=	-25.1	0.0	200.0	8.8
=	-24.6	0.0	200.0	9.6
=	-24.1	0.0	200.0	10.5
=	-23.6	0.0	200.0	11.6
=	-23.1	0.0	200.0	12.8
=	-22.6	0.0	200.0	14.4
=	-22.1	0.0	200.0	16.3
=	-21.6	0.0	200.0	18.5
=	-21.1	0.0	200.0	21.1
=	-20.6	0.0	200.0	24.4
=	-20.1	0.0	200.0	28.2
=	-19.6	0.0	200.0	32.3
=	-19.1	0.0	200.0	36.9
=	-18.6	0.0	200.0	41.9
=	-18.1	0.0	200.0	47.1
=	-17.6	0.0	200.0	52.4
=	-17.1	0.0	200.0	57.6
=	-16.6	0.0	200.0	62.7
=	-16.1	0.0	200.0	67.5
=	-15.6	0.0	200.0	72.1
=	-15.1	0.0	200.0	76.3
=	-14.6	0.0	200.0	80.2
=	-14.1	0.0	200.0	83.5
=	-13.6	0.0	200.0	86.3
=	-13.1	0.0	200.0	88.7
=	-12.6	0.0	200.0	90.5
=	-12.1	0.0	200.0	91.9
=	-11.6	0.0	200.0	93.2
=	-11.1	0.0	200.0	94.2
=	-10.6	0.0	200.0	95.3
=	-10.1	0.0	200.0	96.0
=	-9.6	0.0	200.0	96.6
=	-9.1	0.0	200.0	97.2
=	-8.6	0.0	200.0	97.7
=	-8.1	0.0	200.0	98.1
=	-7.6	0.0	200.0	98.4
=	-7.1	0.0	200.0	98.7
=	-6.6	0.0	200.0	98.9
=	-6.1	0.0	200.0	99.1
=	-5.6	0.0	200.0	99.3
=	-5.1	0.0	200.0	99.5
=	-4.6	0.0	200.0	99.5
=	-4.1	0.0	200.0	99.6
=	-3.6	0.0	200.0	99.7
=	-3.1	0.0	200.0	99.7
=	-2.6	0.0	200.0	99.8
=	-2.1	0.0	200.0	99.9
=	-1.6	0.0	200.0	100.0
=	-1.1	0.0	200.0	100.0
=	-0.6	0.0	200.0	100.0
=	-0.1	0.0	200.0	100.0
=	0.0	0.0	200.0	100.0
=	0.4	0.0	200.0	100.0
=	0.9	0.0	200.0	100.0
=	1.4	0.0	200.0	99.9
=	1.9	0.0	200.0	99.9
=	2.4	0.0	200.0	99.9
=	2.9	0.0	200.0	99.8
=	3.4	0.0	200.0	99.7
=	3.9	0.0	200.0	99.7
=	4.4	0.0	200.0	99.6
=	4.9	0.0	200.0	99.4
=	5.4	0.0	200.0	99.2
=	5.9	0.0	200.0	99.0
=	6.4	0.0	200.0	98.8
=	6.9	0.0	200.0	98.6
=	7.4	0.0	200.0	98.3
=	7.9	0.0	200.0	97.9
=	8.4	0.0	200.0	97.6
=	8.9	0.0	200.0	97.3
=	9.4	0.0	200.0	96.7
=	9.9	0.0	200.0	96.1
=	10.4	0.0	200.0	95.5
=	10.9	0.0	200.0	94.6
=	11.4	0.0	200.0	93.5
=	11.9	0.0	200.0	92.4
=	12.4	0.0	200.0	91.0
=	12.9	0.0	200.0	89.4
=	13.4	0.0	200.0	87.2
=	13.9	0.0	200.0	84.7
=	14.4	0.0	200.0	81.7
=	14.9	0.0	200.0	78.1
=	15.4	0.0	200.0	74.0
=	15.9	0.0	200.0	69.7
=	16.4	0.0	200.0	65.0
=	16.9	0.0	200.0	59.9
=	17.4	0.0	200.0	54.7
=	17.9	0.0	200.0	49.4
=	18.4	0.0	200.0	44.1
=	18.9	0.0	200.0	39.2
=	19.4	0.0	200.0	34.4
=	19.9	0.0	200.0	30.0
=	20.4	0.0	200.0	26.1
=	20.9	0.0	200.0	22.6
=	21.4	0.0	200.0	19.7
=	21.9	0.0	200.0	17.3
=	22.4	0.0	200.0	15.2
=	22.9	0.0	200.0	13.5
=	23.4	0.0	200.0	12.1
=	23.9	0.0	200.0	10.9
=	24.4	0.0	200.0	10.0
=	24.9	0.0	200.0	9.1
=	25.4	0.0	200.0	8.3
=	25.9	0.0	200.0	7.7
=	26.4	0.0	200.0	7.2
=	26.9	0.0	200.0	6.8
=	27.4	0.0	200.0	6.4
=	27.9	0.0	200.0	6.0
=	28.4	0.0	200.0	5.7
=	28.9	0.0	200.0	5.4
=	29.4	0.0	200.0	5.1
=	29.9	0.0	200.0	4.9
=	30.4	0.0	200.0	4.7
=	30.9	0.0	200.0	4.5
=	31.4	0.0	200.0	4.3
=	31.9	0.0	200.0	4.3
=	32.4	0.0	200.0	4.1
=	32.9	0.0	200.0	3.9
=	33.4	0.0	200.0	3.8
=	33.9	0.0	200.0	3.7
=	34.4	0.0	200.0	3.6
=	34.9	0.0	200.0	3.5
=	35.4	0.0	200.0	3.4
=	35.9	0.0	200.0	3.3
=	36.4	0.0	200.0	3.3
=	36.9	0.0	200.0	3.2
=	37.4	0.0	200.0	3.1
=	37.9	0.0	200.0	3.0
=	38.4	0.0	200.0	2.9
=	38.9	0.0	200.0	2.9
=	39.4	0.0	200.0	2.8
=	39.9	0.0	200.0	2.8
=	40.4	0.0	200.0	2.7
=	40.9	0.0	200.0	2.6
=	41.4	0.0	200.0	2.6
=	41.9	0.0	200.0	2.5
=	42.4	0.0	200.0	2.5
=	42.9	0.0	200.0	2.5
=	43.4	0.0	200.0	2.4
=	43.9	0.0	200.0	2.4
=	44.4	0.0	200.0	2.4
=	44.9	0.0	200.0	2.3
=	45.4	0.0	200.0	2.3
=	45.9	0.0	200.0	2.2
=	46.4	0.0	200.0	2.2
=	46.9	0.0	200.0	2.1
=	47.4	0.0	200.0	2.1
=	47.9	0.0	200.0	2.1
=	48.4	0.0	200.0	2.1
=	48.9	0.0	200.0	2.0
=	49.4	0.0	200.0	2.0
=	49.9	0.0	200.0	2.0
=	50.4	0.0	200.0	2.0
=	50.9	0.0	200.0	2.0
=	51.4	0.0	200.0	1.9
=	51.9	0.0	200.0	1.9
=	52.4	0.0	200.0	1.9
=	52.9	0.0	200.0	1.8
=	53.4	0.0	200.0	1.8
=	53.9	0.0	200.0	1.8
=	54.4	0.0	200.0	1.8
=	54.9	0.0	200.0	1.7
=	55.4	0.0	200.0	1.7
=	55.9	0.0	200.0	1.7
=	56.4	0.0	200.0	1.7
=	56.9	0.0	200.0	1.7
=	57.4	0.0	200.0	1.6
=	57.9	0.0	200.0	1.6
=	58.4	0.0	200.0	1.6
=	58.9	0.0	200.0	1.6
=	59.4	0.0	200.0	1.5
=	59.9	0.0	200.0	1.5
=	60.4	0.0	200.0	1.5
=	60.9	0.0	200.0	1.5
=	61.4	0.0	200.0	1.5
=	61.9	0.0	200.0	1.5
=	62.4	0.0	200.0	1.4
=	62.9	0.0	200.0	1.4
=	63.4	0.0	200.0	1.4
=	63.9	0.0	200.0	1.4
=	64.4	0.0	200.0	1.4
=	64.9	0.0	200.0	1.3
=	65.4	0.0	200.0	1.3
=	65.9	0.0	200.0	1.3
=	66.4	0.0	200.0	1.3
=	66.9	0.0	200.0	1.3
=	67.4	0.0	200.0	1.3
:EOM # End of Measurement
#
# RFA300 ASCII Measurement Dump ( BDS format )
#
# Measurement number 	5
#
%VNR 1.0
%MOD 	RAT
%TYP 	SCN
%SCN 	PRO
%FLD 	ION
%DAT 	09-21-2011
%TIM 	12:00:00
%FSZ 	030	030
%BMT 	PHO	   10.0
%SSD 	1000
%BUP 	0
%BRD 	1000
%FSH 	1
%ASC 	0
%WEG 	0
%GPO 	0
%CPO 	0
%MEA 	2
%PRD 	300,0
%PTS 	279
%STS 	    -69.3	  0.0	   300.0 # Start Scan values in mm ( X , Y , Z )
%EDS 	    69.2	   0.0	   300.0 # End Scan values in mm ( X , Y , Z )
#
#	  X      Y      Z     Dose
#
=	-69.3	0.0	300.0	1.6
=	-68.8	0.0	300.0	1.7
=	-68.3	0.0	300.0	1.7
=	-67.8	0.0	300.0	1.7
=	-67.3	0.0	300.0	1.8
=	-66.8	0.0	300.0	1.8
=	-66.3	0.0	300.0	1.8
=	-65.8	0.0	300.0	1.8
=	-65.3	0.0	300.0	1.9
=	-64.8	0.0	300.0	1.9
=	-64.3	0.0	300.0	1.9
=	-63.8	0.0	300.0	2.0
=	-63.3	0.0	300.0	2.0
=	-62.8	0.0	300.0	2.0
=	-62.3	0.0	300.0	2.0
=	-61.8	0.0	300.0	2.1
=	-61.3	0.0	300.0	2.1
=	-60.8	0.0	300.0	2.1
=	-60.3	0.0	300.0	2.1
=	-59.8	0.0	300.0	2.1
=	-59.3	0.0	300.0	2.1
=	-58.8	0.0	300.0	2.2
=	-58.3	0.0	300.0	2.2
=	-57.8	0.0	300.0	2.3
=	-57.3	0.0	300.0	2.3
=	-56.8	0.0	300.0	2.3
=	-56.3	0.0	300.0	2.3
=	-55.8	0.0	300.0	2.3
=	-55.3	0.0	300.0	2.4
=	-54.8	0.0	300.0	2.4
=	-54.3	0.0	300.0	2.4
=	-53.8	0.0	300.0	2.4
=	-53.3	0.0	300.0	2.4
=	-52.8	0.0	300.0	2.4
=	-52.3	0.0	300.0	2.5
=	-51.8	0.0	300.0	2.5
=	-51.3	0.0	300.0	2.6
=	-50.8	0.0	300.0	2.6
=	-50.3	0.0	300.0	2.7
=	-49.8	0.0	300.0	2.7
=	-49.3	0.0	300.0	2.7
=	-48.8	0.0	300.0	2.8
=	-48.3	0.0	300.0	2.8
=	-47.8	0.0	300.0	2.9
=	-47.3	0.0	300.0	2.9
=	-46.8	0.0	300.0	3.0
=	-46.3	0.0	300.0	3.0
=	-45.8	0.0	300.0	3.1
=	-45.3	0.0	300.0	3.1
=	-44.8	0.0	300.0	3.2
=	-44.3	0.0	300.0	3.2
=	-43.8	0.0	300.0	3.2
=	-43.3	0.0	300.0	3.3
=	-42.8	0.0	300.0	3.3
=	-42.3	0.0	300.0	3.4
=	-41.8	0.0	300.0	3.4
=	-41.3	0.0	300.0	3.5
=	-40.8	0.0	300.0	3.5
=	-40.3	0.0	300.0	3.6
=	-39.8	0.0	300.0	3.6
=	-39.3	0.0	300.0	3.7
=	-38.8	0.0	300.0	3.9
=	-38.3	0.0	300.0	3.9
=	-37.8	0.0	300.0	4.0
=	-37.3	0.0	300.0	4.1
=	-36.8	0.0	300.0	4.1
=	-36.3	0.0	300.0	4.2
=	-35.8	0.0	300.0	4.3
=	-35.3	0.0	300.0	4.4
=	-34.8	0.0	300.0	4.5
=	-34.3	0.0	300.0	4.7
=	-33.8	0.0	300.0	4.8
=	-33.3	0.0	300.0	5.0
=	-32.8	0.0	300.0	5.2
=	-32.3	0.0	300.0	5.3
=	-31.8	0.0	300.0	5.6
=	-31.3	0.0	300.0	5.8
=	-30.8	0.0	300.0	6.0
=	-30.3	0.0	300.0	6.3
=	-29.8	0.0	300.0	6.6
=	-29.3	0.0	300.0	7.0
=	-28.8	0.0	300.0	7.3
=	-28.3	0.0	300.0	7.8
=	-27.8	0.0	300.0	8.4
=	-27.3	0.0	300.0	8.8
=	-26.8	0.0	300.0	9.5
=	-26.3	0.0	300.0	10.4
=	-25.8	0.0	300.0	11.1
=	-25.3	0.0	300.0	12.2
=	-24.8	0.0	300.0	13.5
=	-24.3	0.0	300.0	14.9
=	-23.8	0.0	300.0	16.6
=	-23.3	0.0	300.0	18.6
=	-22.8	0.0	300.0	21.0
=	-22.3	0.0	300.0	24.0
=	-21.8	0.0	300.0	27.4
=	-21.3	0.0	300.0	31.2
=	-20.8	0.0	300.0	35.5
=	-20.3	0.0	300.0	40.3
=	-19.8	0.0	300.0	45.0
=	-19.3	0.0	300.0	49.9
=	-18.8	0.0	300.0	55.0
=	-18.3	0.0	300.0	60.0
=	-17.8	0.0	300.0	64.9
=	-17.3	0.0	300.0	69.7
=	-16.8	0.0	300.0	73.9
=	-16.3	0.0	300.0	77.6
=	-15.8	0.0	300.0	81.2
=	-15.3	0.0	300.0	84.4
=	-14.8	0.0	300.0	86.6
=	-14.3	0.0	300.0	88.6
=	-13.8	0.0	300.0	90.3
=	-13.3	0.0	300.0	91.7
=	-12.8	0.0	300.0	92.9
=	-12.3	0.0	300.0	93.9
=	-11.8	0.0	300.0	94.9
=	-11.3	0.0	300.0	95.5
=	-10.8	0.0	300.0	96.1
=	-10.3	0.0	300.0	96.6
=	-9.8	0.0	300.0	97.2
=	-9.3	0.0	300.0	97.8
=	-8.8	0.0	300.0	98.0
=	-8.3	0.0	300.0	98.3
=	-7.8	0.0	300.0	98.6
=	-7.3	0.0	300.0	98.8
=	-6.8	0.0	300.0	99.1
=	-6.3	0.0	300.0	99.2
=	-5.8	0.0	300.0	99.3
=	-5.3	0.0	300.0	99.4
=	-4.8	0.0	300.0	99.5
=	-4.3	0.0	300.0	99.6
=	-3.8	0.0	300.0	99.7
=	-3.3	0.0	300.0	99.7
=	-2.8	0.0	300.0	99.8
=	-2.3	0.0	300.0	99.9
=	-1.8	0.0	300.0	99.9
=	-1.3	0.0	300.0	100.0
=	-0.8	0.0	300.0	100.0
=	-0.3	0.0	300.0	100.0
=	0.0	0.0	300.0	100.0
=	0.2	0.0	300.0	100.0
=	0.7	0.0	300.0	100.0
=	1.2	0.0	300.0	99.9
=	1.7	0.0	300.0	99.9
=	2.2	0.0	300.0	99.8
=	2.7	0.0	300.0	99.7
=	3.2	0.0	300.0	99.7
=	3.7	0.0	300.0	99.6
=	4.2	0.0	300.0	99.5
=	4.7	0.0	300.0	99.4
=	5.2	0.0	300.0	99.3
=	5.7	0.0	300.0	99.2
=	6.2	0.0	300.0	99.1
=	6.7	0.0	300.0	99.0
=	7.2	0.0	300.0	98.8
=	7.7	0.0	300.0	98.6
=	8.2	0.0	300.0	98.3
=	8.7	0.0	300.0	97.9
=	9.2	0.0	300.0	97.7
=	9.7	0.0	300.0	97.4
=	10.2	0.0	300.0	96.8
=	10.7	0.0	300.0	96.2
=	11.2	0.0	300.0	95.4
=	11.7	0.0	300.0	94.8
=	12.2	0.0	300.0	94.0
=	12.7	0.0	300.0	93.2
=	13.2	0.0	300.0	91.9
=	13.7	0.0	300.0	90.6
=	14.2	0.0	300.0	89.0
=	14.7	0.0	300.0	86.9
=	15.2	0.0	300.0	84.6
=	15.7	0.0	300.0	81.7
=	16.2	0.0	300.0	78.4
=	16.7	0.0	300.0	74.8
=	17.2	0.0	300.0	70.8
=	17.7	0.0	300.0	66.2
=	18.2	0.0	300.0	61.4
=	18.7	0.0	300.0	56.5
=	19.2	0.0	300.0	51.4
=	19.7	0.0	300.0	46.3
=	20.2	0.0	300.0	41.5
=	20.7	0.0	300.0	36.7
=	21.2	0.0	300.0	32.2
=	21.7	0.0	300.0	28.4
=	22.2	0.0	300.0	24.9
=	22.7	0.0	300.0	21.8
=	23.2	0.0	300.0	19.1
=	23.7	0.0	300.0	16.9
=	24.2	0.0	300.0	15.2
=	24.7	0.0	300.0	13.7
=	25.2	0.0	300.0	12.4
=	25.7	0.0	300.0	11.3
=	26.2	0.0	300.0	10.5
=	26.7	0.0	300.0	9.6
=	27.2	0.0	300.0	8.9
=	27.7	0.0	300.0	8.4
=	28.2	0.0	300.0	7.9
=	28.7	0.0	300.0	7.4
=	29.2	0.0	300.0	7.1
=	29.7	0.0	300.0	6.6
=	30.2	0.0	300.0	6.4
=	30.7	0.0	300.0	6.1
=	31.2	0.0	300.0	5.7
=	31.7	0.0	300.0	5.6
=	32.2	0.0	300.0	5.4
=	32.7	0.0	300.0	5.2
=	33.2	0.0	300.0	5.0
=	33.7	0.0	300.0	4.9
=	34.2	0.0	300.0	4.7
=	34.7	0.0	300.0	4.5
=	35.2	0.0	300.0	4.4
=	35.7	0.0	300.0	4.3
=	36.2	0.0	300.0	4.2
=	36.7	0.0	300.0	4.2
=	37.2	0.0	300.0	4.1
=	37.7	0.0	300.0	4.0
=	38.2	0.0	300.0	3.9
=	38.7	0.0	300.0	3.8
=	39.2	0.0	300.0	3.7
=	39.7	0.0	300.0	3.7
=	40.2	0.0	300.0	3.6
=	40.7	0.0	300.0	3.6
