:MSR 	1	 # No. of measurement in file
:SYS BDS 0   # Beam Data Scanner System
#
# RFA300 ASCII Measurement Dump ( BDS format )
#
# Measurement number 	1
#
%VNR 1.0
%MOD 	RAT
%TYP 	SCN
%SCN 	PRO
%FLD 	ION
%DAT 	10-12-2011
%TIM 	12:00:00
%FSZ 	400	400
%BMT 	ELE	   22.0
%SSD 	
%BUP 	0
%BRD 	
%FSH 	1
%ASC 	0
%WEG 	0
%GPO 	0
%CPO 	0
%MEA 	2
%PRD 	0,0
%PTS 	874
%STS 	    -236.2	  0.0	   0.0 # Start Scan values in mm ( X , Y , Z )
%EDS 	    236.1	   0.0	   0.0 # End Scan values in mm ( X , Y , Z )
#
#	  X      Y      Z     Dose
#
=	-236.2	0.0	0.0	2.9
=	-235.6	0.0	0.0	2.9
=	-235.0	0.0	0.0	3.0
=	-234.5	0.0	0.0	3.0
=	-233.9	0.0	0.0	3.1
=	-233.3	0.0	0.0	3.1
=	-232.7	0.0	0.0	3.2
=	-232.3	0.0	0.0	3.2
=	-231.7	0.0	0.0	3.3
=	-231.1	0.0	0.0	3.4
=	-230.4	0.0	0.0	3.5
=	-229.8	0.0	0.0	3.5
=	-229.2	0.0	0.0	3.6
=	-228.6	0.0	0.0	3.7
=	-228.0	0.0	0.0	3.8
=	-227.4	0.0	0.0	3.9
=	-226.8	0.0	0.0	4.0
=	-226.2	0.0	0.0	4.1
=	-225.7	0.0	0.0	4.3
=	-225.0	0.0	0.0	4.4
=	-224.4	0.0	0.0	4.6
=	-224.0	0.0	0.0	4.7
=	-223.6	0.0	0.0	4.8
=	-223.0	0.0	0.0	5.0
=	-222.4	0.0	0.0	5.2
=	-221.8	0.0	0.0	5.5
=	-221.2	0.0	0.0	5.7
=	-220.6	0.0	0.0	6.0
=	-220.0	0.0	0.0	6.3
=	-219.3	0.0	0.0	6.7
=	-218.8	0.0	0.0	7.0
=	-218.2	0.0	0.0	7.4
=	-217.5	0.0	0.0	7.9
=	-217.1	0.0	0.0	8.2
=	-216.6	0.0	0.0	8.7
=	-216.0	0.0	0.0	9.2
=	-215.3	0.0	0.0	9.8
=	-214.7	0.0	0.0	10.5
=	-214.1	0.0	0.0	11.2
=	-213.6	0.0	0.0	11.9
=	-213.1	0.0	0.0	12.5
=	-212.6	0.0	0.0	13.2
=	-212.1	0.0	0.0	13.9
=	-211.5	0.0	0.0	14.8
=	-211.2	0.0	0.0	15.5
=	-210.7	0.0	0.0	16.3
=	-210.1	0.0	0.0	17.4
=	-209.7	0.0	0.0	18.1
=	-209.1	0.0	0.0	19.3
=	-208.6	0.0	0.0	20.4
=	-208.2	0.0	0.0	21.2
=	-207.7	0.0	0.0	22.4
=	-207.1	0.0	0.0	23.8
=	-206.5	0.0	0.0	25.2
=	-205.8	0.0	0.0	26.8
=	-205.3	0.0	0.0	28.2
=	-204.8	0.0	0.0	29.4
=	-204.4	0.0	0.0	30.5
=	-203.9	0.0	0.0	31.9
=	-203.3	0.0	0.0	33.5
=	-202.7	0.0	0.0	35.1
=	-202.2	0.0	0.0	36.4
=	-201.6	0.0	0.0	37.9
=	-201.0	0.0	0.0	39.5
=	-200.5	0.0	0.0	40.8
=	-200.0	0.0	0.0	42.1
=	-199.6	0.0	0.0	43.2
=	-199.2	0.0	0.0	44.2
=	-198.8	0.0	0.0	45.2
=	-198.3	0.0	0.0	46.4
=	-197.8	0.0	0.0	47.6
=	-197.2	0.0	0.0	48.8
=	-196.6	0.0	0.0	50.1
=	-196.0	0.0	0.0	51.4
=	-195.4	0.0	0.0	52.7
=	-194.8	0.0	0.0	53.8
=	-194.3	0.0	0.0	54.6
=	-193.8	0.0	0.0	55.7
=	-193.2	0.0	0.0	56.7
=	-192.7	0.0	0.0	57.4
=	-192.2	0.0	0.0	58.3
=	-191.6	0.0	0.0	59.0
=	-191.2	0.0	0.0	59.8
=	-190.6	0.0	0.0	60.6
=	-190.1	0.0	0.0	61.2
=	-189.5	0.0	0.0	62.0
=	-189.0	0.0	0.0	62.7
=	-188.5	0.0	0.0	63.2
=	-187.9	0.0	0.0	63.9
=	-187.3	0.0	0.0	64.6
=	-186.9	0.0	0.0	65.2
=	-186.3	0.0	0.0	65.8
=	-185.9	0.0	0.0	66.3
=	-185.3	0.0	0.0	66.9
=	-184.7	0.0	0.0	67.6
=	-184.2	0.0	0.0	68.1
=	-183.7	0.0	0.0	68.6
=	-183.2	0.0	0.0	69.0
=	-182.8	0.0	0.0	69.5
=	-182.3	0.0	0.0	70.0
=	-181.7	0.0	0.0	70.7
=	-181.1	0.0	0.0	71.2
=	-180.5	0.0	0.0	71.8
=	-179.9	0.0	0.0	72.4
=	-179.3	0.0	0.0	73.0
=	-178.9	0.0	0.0	73.4
=	-178.4	0.0	0.0	73.8
=	-177.8	0.0	0.0	74.4
=	-177.4	0.0	0.0	74.7
=	-176.8	0.0	0.0	75.3
=	-176.4	0.0	0.0	75.7
=	-175.8	0.0	0.0	76.2
=	-175.2	0.0	0.0	76.8
=	-174.6	0.0	0.0	77.3
=	-174.0	0.0	0.0	77.8
=	-173.4	0.0	0.0	78.3
=	-172.8	0.0	0.0	78.9
=	-172.2	0.0	0.0	79.4
=	-171.6	0.0	0.0	79.9
=	-171.1	0.0	0.0	80.4
=	-170.6	0.0	0.0	80.8
=	-170.2	0.0	0.0	81.2
=	-169.8	0.0	0.0	81.5
=	-169.2	0.0	0.0	82.0
=	-168.6	0.0	0.0	82.5
=	-168.0	0.0	0.0	83.0
=	-167.4	0.0	0.0	83.5
=	-166.8	0.0	0.0	84.0
=	-166.3	0.0	0.0	84.4
=	-165.8	0.0	0.0	84.8
=	-165.1	0.0	0.0	85.2
=	-164.6	0.0	0.0	85.7
=	-164.1	0.0	0.0	86.1
=	-163.6	0.0	0.0	86.5
=	-163.0	0.0	0.0	86.9
=	-162.5	0.0	0.0	87.2
=	-161.9	0.0	0.0	87.7
=	-161.3	0.0	0.0	88.2
=	-160.9	0.0	0.0	88.5
=	-160.3	0.0	0.0	88.8
=	-159.7	0.0	0.0	89.2
=	-159.1	0.0	0.0	89.8
=	-158.5	0.0	0.0	90.2
=	-157.8	0.0	0.0	90.5
=	-157.3	0.0	0.0	90.8
=	-156.6	0.0	0.0	91.3
=	-156.1	0.0	0.0	91.6
=	-155.4	0.0	0.0	92.1
=	-154.8	0.0	0.0	92.5
=	-154.2	0.0	0.0	92.8
=	-153.6	0.0	0.0	93.2
=	-153.0	0.0	0.0	93.6
=	-152.4	0.0	0.0	93.9
=	-151.8	0.0	0.0	94.3
=	-151.2	0.0	0.0	94.7
=	-150.6	0.0	0.0	95.1
=	-150.0	0.0	0.0	95.4
=	-149.4	0.0	0.0	95.6
=	-149.0	0.0	0.0	95.8
=	-148.5	0.0	0.0	96.0
=	-148.0	0.0	0.0	96.3
=	-147.3	0.0	0.0	96.7
=	-146.7	0.0	0.0	97.0
=	-146.1	0.0	0.0	97.2
=	-145.5	0.0	0.0	97.6
=	-145.0	0.0	0.0	97.8
=	-144.5	0.0	0.0	98.0
=	-143.8	0.0	0.0	98.3
=	-143.2	0.0	0.0	98.5
=	-142.6	0.0	0.0	98.8
=	-142.0	0.0	0.0	99.1
=	-141.4	0.0	0.0	99.3
=	-140.8	0.0	0.0	99.5
=	-140.2	0.0	0.0	99.7
=	-139.6	0.0	0.0	99.9
=	-139.0	0.0	0.0	100.2
=	-138.4	0.0	0.0	100.5
=	-137.8	0.0	0.0	100.7
=	-137.2	0.0	0.0	100.9
=	-136.6	0.0	0.0	101.1
=	-136.0	0.0	0.0	101.2
=	-135.4	0.0	0.0	101.4
=	-135.0	0.0	0.0	101.5
=	-134.6	0.0	0.0	101.7
=	-134.0	0.0	0.0	101.8
=	-133.4	0.0	0.0	101.9
=	-132.7	0.0	0.0	102.1
=	-132.1	0.0	0.0	102.3
=	-131.5	0.0	0.0	102.4
=	-130.9	0.0	0.0	102.6
=	-130.3	0.0	0.0	102.7
=	-129.7	0.0	0.0	102.8
=	-129.1	0.0	0.0	102.9
=	-128.5	0.0	0.0	103.0
=	-127.9	0.0	0.0	103.2
=	-127.3	0.0	0.0	103.3
=	-126.7	0.0	0.0	103.4
=	-126.1	0.0	0.0	103.5
=	-125.5	0.0	0.0	103.6
=	-124.8	0.0	0.0	103.6
=	-124.2	0.0	0.0	103.7
=	-123.6	0.0	0.0	103.7
=	-123.0	0.0	0.0	103.8
=	-122.4	0.0	0.0	103.8
=	-121.8	0.0	0.0	103.9
=	-121.2	0.0	0.0	103.9
=	-120.6	0.0	0.0	104.0
=	-120.0	0.0	0.0	104.1
=	-119.4	0.0	0.0	104.1
=	-118.9	0.0	0.0	104.1
=	-118.5	0.0	0.0	104.1
=	-118.1	0.0	0.0	104.2
=	-117.6	0.0	0.0	104.2
=	-117.2	0.0	0.0	104.2
=	-116.7	0.0	0.0	104.2
=	-116.1	0.0	0.0	104.2
=	-115.5	0.0	0.0	104.2
=	-114.9	0.0	0.0	104.2
=	-114.3	0.0	0.0	104.2
=	-113.7	0.0	0.0	104.2
=	-113.1	0.0	0.0	104.2
=	-112.5	0.0	0.0	104.2
=	-111.9	0.0	0.0	104.2
=	-111.3	0.0	0.0	104.2
=	-110.6	0.0	0.0	104.1
=	-110.1	0.0	0.0	104.1
=	-109.5	0.0	0.0	104.1
=	-108.9	0.0	0.0	104.1
=	-108.4	0.0	0.0	104.1
=	-107.9	0.0	0.0	104.0
=	-107.3	0.0	0.0	104.0
=	-106.9	0.0	0.0	103.9
=	-106.4	0.0	0.0	103.9
=	-106.0	0.0	0.0	103.9
=	-105.6	0.0	0.0	103.9
=	-105.1	0.0	0.0	103.9
=	-104.6	0.0	0.0	103.8
=	-104.0	0.0	0.0	103.7
=	-103.4	0.0	0.0	103.7
=	-102.8	0.0	0.0	103.6
=	-102.2	0.0	0.0	103.6
=	-101.6	0.0	0.0	103.5
=	-101.0	0.0	0.0	103.5
=	-100.4	0.0	0.0	103.4
=	-99.8	0.0	0.0	103.3
=	-99.3	0.0	0.0	103.3
=	-98.9	0.0	0.0	103.2
=	-98.4	0.0	0.0	103.2
=	-98.0	0.0	0.0	103.1
=	-97.6	0.0	0.0	103.1
=	-97.1	0.0	0.0	103.0
=	-96.5	0.0	0.0	103.0
=	-95.9	0.0	0.0	102.9
=	-95.3	0.0	0.0	102.8
=	-94.7	0.0	0.0	102.8
=	-94.1	0.0	0.0	102.7
=	-93.5	0.0	0.0	102.7
=	-92.8	0.0	0.0	102.6
=	-92.2	0.0	0.0	102.6
=	-91.6	0.0	0.0	102.5
=	-91.2	0.0	0.0	102.5
=	-90.7	0.0	0.0	102.4
=	-90.3	0.0	0.0	102.3
=	-89.8	0.0	0.0	102.3
=	-89.2	0.0	0.0	102.2
=	-88.6	0.0	0.0	102.1
=	-88.0	0.0	0.0	102.0
=	-87.4	0.0	0.0	102.0
=	-86.8	0.0	0.0	101.9
=	-86.4	0.0	0.0	101.9
=	-86.0	0.0	0.0	101.8
=	-85.6	0.0	0.0	101.8
=	-85.0	0.0	0.0	101.8
=	-84.6	0.0	0.0	101.7
=	-84.2	0.0	0.0	101.7
=	-83.8	0.0	0.0	101.6
=	-83.3	0.0	0.0	101.6
=	-82.8	0.0	0.0	101.6
=	-82.3	0.0	0.0	101.5
=	-81.7	0.0	0.0	101.5
=	-81.2	0.0	0.0	101.4
=	-80.7	0.0	0.0	101.3
=	-80.3	0.0	0.0	101.3
=	-79.9	0.0	0.0	101.2
=	-79.5	0.0	0.0	101.2
=	-79.1	0.0	0.0	101.1
=	-78.7	0.0	0.0	101.1
=	-78.3	0.0	0.0	101.1
=	-77.9	0.0	0.0	101.1
=	-77.4	0.0	0.0	101.1
=	-77.0	0.0	0.0	101.1
=	-76.7	0.0	0.0	101.0
=	-76.2	0.0	0.0	101.0
=	-75.8	0.0	0.0	101.0
=	-75.4	0.0	0.0	100.9
=	-75.0	0.0	0.0	100.9
=	-74.5	0.0	0.0	100.9
=	-74.1	0.0	0.0	100.8
=	-73.6	0.0	0.0	100.8
=	-73.1	0.0	0.0	100.7
=	-72.7	0.0	0.0	100.7
=	-72.3	0.0	0.0	100.7
=	-71.9	0.0	0.0	100.6
=	-71.5	0.0	0.0	100.6
=	-71.1	0.0	0.0	100.6
=	-70.7	0.0	0.0	100.6
=	-70.3	0.0	0.0	100.5
=	-69.7	0.0	0.0	100.5
=	-69.2	0.0	0.0	100.5
=	-68.8	0.0	0.0	100.4
=	-68.3	0.0	0.0	100.4
=	-67.8	0.0	0.0	100.4
=	-67.3	0.0	0.0	100.4
=	-66.8	0.0	0.0	100.3
=	-66.3	0.0	0.0	100.3
=	-65.7	0.0	0.0	100.2
=	-65.2	0.0	0.0	100.2
=	-64.8	0.0	0.0	100.2
=	-64.3	0.0	0.0	100.2
=	-63.9	0.0	0.0	100.2
=	-63.5	0.0	0.0	100.2
=	-63.1	0.0	0.0	100.1
=	-62.7	0.0	0.0	100.1
=	-62.2	0.0	0.0	100.1
=	-61.6	0.0	0.0	100.1
=	-61.0	0.0	0.0	100.1
=	-60.4	0.0	0.0	100.0
=	-59.8	0.0	0.0	100.0
=	-59.2	0.0	0.0	99.9
=	-58.7	0.0	0.0	99.9
=	-58.3	0.0	0.0	99.9
=	-57.8	0.0	0.0	99.9
=	-57.2	0.0	0.0	99.9
=	-56.6	0.0	0.0	99.9
=	-56.0	0.0	0.0	99.9
=	-55.4	0.0	0.0	99.8
=	-54.7	0.0	0.0	99.8
=	-54.1	0.0	0.0	99.8
=	-53.5	0.0	0.0	99.8
=	-52.9	0.0	0.0	99.8
=	-52.3	0.0	0.0	99.8
=	-51.7	0.0	0.0	99.8
=	-51.1	0.0	0.0	99.7
=	-50.5	0.0	0.0	99.7
=	-49.9	0.0	0.0	99.7
=	-49.3	0.0	0.0	99.7
=	-48.7	0.0	0.0	99.7
=	-48.1	0.0	0.0	99.7
=	-47.6	0.0	0.0	99.7
=	-47.2	0.0	0.0	99.7
=	-46.7	0.0	0.0	99.7
=	-46.3	0.0	0.0	99.7
=	-45.7	0.0	0.0	99.6
=	-45.3	0.0	0.0	99.6
=	-44.9	0.0	0.0	99.6
=	-44.5	0.0	0.0	99.6
=	-44.1	0.0	0.0	99.6
=	-43.7	0.0	0.0	99.6
=	-43.3	0.0	0.0	99.6
=	-42.9	0.0	0.0	99.6
=	-42.5	0.0	0.0	99.6
=	-42.1	0.0	0.0	99.6
=	-41.7	0.0	0.0	99.6
=	-41.3	0.0	0.0	99.6
=	-40.9	0.0	0.0	99.6
=	-40.5	0.0	0.0	99.6
=	-40.1	0.0	0.0	99.6
=	-39.7	0.0	0.0	99.6
=	-39.2	0.0	0.0	99.6
=	-38.5	0.0	0.0	99.6
=	-38.1	0.0	0.0	99.6
=	-37.7	0.0	0.0	99.6
=	-37.1	0.0	0.0	99.6
=	-36.5	0.0	0.0	99.6
=	-35.9	0.0	0.0	99.6
=	-35.3	0.0	0.0	99.6
=	-34.8	0.0	0.0	99.6
=	-34.1	0.0	0.0	99.6
=	-33.5	0.0	0.0	99.6
=	-32.9	0.0	0.0	99.6
=	-31.8	0.0	0.0	99.6
=	-31.1	0.0	0.0	99.6
=	-30.4	0.0	0.0	99.6
=	-29.4	0.0	0.0	99.6
=	-28.4	0.0	0.0	99.7
=	-27.7	0.0	0.0	99.7
=	-26.6	0.0	0.0	99.7
=	-25.6	0.0	0.0	99.7
=	-25.0	0.0	0.0	99.7
=	-24.4	0.0	0.0	99.7
=	-23.8	0.0	0.0	99.7
=	-23.4	0.0	0.0	99.7
=	-22.8	0.0	0.0	99.7
=	-22.2	0.0	0.0	99.8
=	-21.5	0.0	0.0	99.8
=	-20.7	0.0	0.0	99.8
=	-20.1	0.0	0.0	99.8
=	-19.6	0.0	0.0	99.8
=	-19.0	0.0	0.0	99.8
=	-18.3	0.0	0.0	99.8
=	-17.7	0.0	0.0	99.8
=	-17.1	0.0	0.0	99.9
=	-16.5	0.0	0.0	99.9
=	-15.9	0.0	0.0	99.9
=	-15.3	0.0	0.0	99.9
=	-14.5	0.0	0.0	99.9
=	-13.9	0.0	0.0	99.9
=	-13.3	0.0	0.0	99.9
=	-12.9	0.0	0.0	99.9
=	-12.3	0.0	0.0	99.9
=	-11.2	0.0	0.0	100.0
=	-10.2	0.0	0.0	100.0
=	-9.2	0.0	0.0	100.0
=	-8.2	0.0	0.0	100.0
=	-7.6	0.0	0.0	100.0
=	-7.0	0.0	0.0	100.0
=	-6.4	0.0	0.0	100.0
=	-5.8	0.0	0.0	100.0
=	-5.2	0.0	0.0	100.0
=	-4.7	0.0	0.0	100.0
=	-4.2	0.0	0.0	100.0
=	-3.8	0.0	0.0	100.0
=	-3.3	0.0	0.0	100.0
=	-2.8	0.0	0.0	100.0
=	-2.3	0.0	0.0	100.0
=	-1.8	0.0	0.0	100.0
=	-1.3	0.0	0.0	100.0
=	-0.8	0.0	0.0	100.0
=	-0.4	0.0	0.0	100.0
=	0.0	0.0	0.0	100.0
=	0.2	0.0	0.0	100.0
=	0.7	0.0	0.0	100.0
=	1.1	0.0	0.0	100.0
=	1.5	0.0	0.0	100.0
=	1.9	0.0	0.0	100.0
=	2.3	0.0	0.0	100.0
=	2.8	0.0	0.0	100.0
=	3.3	0.0	0.0	100.0
=	3.8	0.0	0.0	100.0
=	4.2	0.0	0.0	100.0
=	4.6	0.0	0.0	100.0
=	5.1	0.0	0.0	100.0
=	5.5	0.0	0.0	100.0
=	6.0	0.0	0.0	100.0
=	6.4	0.0	0.0	100.0
=	6.9	0.0	0.0	100.0
=	7.3	0.0	0.0	100.0
=	7.7	0.0	0.0	100.0
=	8.2	0.0	0.0	100.0
=	8.7	0.0	0.0	100.0
=	9.4	0.0	0.0	100.0
=	10.0	0.0	0.0	100.0
=	10.4	0.0	0.0	100.0
=	11.0	0.0	0.0	100.0
=	11.5	0.0	0.0	100.0
=	12.1	0.0	0.0	99.9
=	12.6	0.0	0.0	99.9
=	13.0	0.0	0.0	99.9
=	13.4	0.0	0.0	99.9
=	13.8	0.0	0.0	99.9
=	14.2	0.0	0.0	99.9
=	14.6	0.0	0.0	99.9
=	15.1	0.0	0.0	99.9
=	15.5	0.0	0.0	99.9
=	15.9	0.0	0.0	99.9
=	16.3	0.0	0.0	99.9
=	16.8	0.0	0.0	99.9
=	17.3	0.0	0.0	99.9
=	17.8	0.0	0.0	99.8
=	18.2	0.0	0.0	99.8
=	18.6	0.0	0.0	99.8
=	19.0	0.0	0.0	99.8
=	19.4	0.0	0.0	99.8
=	19.8	0.0	0.0	99.8
=	20.2	0.0	0.0	99.8
=	20.6	0.0	0.0	99.8
=	21.1	0.0	0.0	99.8
=	21.6	0.0	0.0	99.8
=	22.0	0.0	0.0	99.8
=	22.4	0.0	0.0	99.8
=	22.9	0.0	0.0	99.8
=	23.4	0.0	0.0	99.8
=	23.9	0.0	0.0	99.7
=	24.4	0.0	0.0	99.7
=	24.8	0.0	0.0	99.7
=	25.2	0.0	0.0	99.7
=	25.8	0.0	0.0	99.7
=	26.3	0.0	0.0	99.7
=	26.9	0.0	0.0	99.7
=	27.5	0.0	0.0	99.7
=	28.0	0.0	0.0	99.7
=	28.7	0.0	0.0	99.7
=	29.3	0.0	0.0	99.7
=	29.8	0.0	0.0	99.7
=	30.3	0.0	0.0	99.7
=	30.8	0.0	0.0	99.7
=	31.5	0.0	0.0	99.7
=	32.0	0.0	0.0	99.7
=	32.6	0.0	0.0	99.7
=	33.2	0.0	0.0	99.7
=	33.7	0.0	0.0	99.7
=	34.3	0.0	0.0	99.7
=	34.9	0.0	0.0	99.7
=	35.3	0.0	0.0	99.6
=	35.9	0.0	0.0	99.6
=	36.5	0.0	0.0	99.6
=	37.1	0.0	0.0	99.6
=	37.7	0.0	0.0	99.6
=	38.2	0.0	0.0	99.6
=	38.8	0.0	0.0	99.6
=	39.4	0.0	0.0	99.6
=	40.0	0.0	0.0	99.6
=	40.6	0.0	0.0	99.6
=	41.2	0.0	0.0	99.7
=	41.8	0.0	0.0	99.7
=	42.3	0.0	0.0	99.7
=	42.6	0.0	0.0	99.7
=	43.2	0.0	0.0	99.7
=	43.8	0.0	0.0	99.7
=	44.3	0.0	0.0	99.7
=	44.7	0.0	0.0	99.7
=	45.1	0.0	0.0	99.7
=	45.5	0.0	0.0	99.7
=	45.9	0.0	0.0	99.7
=	46.3	0.0	0.0	99.7
=	46.7	0.0	0.0	99.7
=	47.1	0.0	0.0	99.7
=	47.6	0.0	0.0	99.7
=	48.2	0.0	0.0	99.7
=	48.7	0.0	0.0	99.7
=	49.3	0.0	0.0	99.7
=	49.9	0.0	0.0	99.7
=	50.5	0.0	0.0	99.8
=	51.1	0.0	0.0	99.8
=	51.7	0.0	0.0	99.8
=	52.3	0.0	0.0	99.8
=	52.9	0.0	0.0	99.8
=	53.5	0.0	0.0	99.8
=	54.3	0.0	0.0	99.9
=	55.0	0.0	0.0	99.9
=	55.5	0.0	0.0	99.9
=	56.2	0.0	0.0	99.9
=	56.8	0.0	0.0	99.9
=	57.4	0.0	0.0	100.0
=	58.0	0.0	0.0	100.0
=	58.6	0.0	0.0	100.0
=	59.2	0.0	0.0	100.0
=	59.8	0.0	0.0	100.1
=	60.4	0.0	0.0	100.1
=	61.0	0.0	0.0	100.1
=	61.6	0.0	0.0	100.1
=	62.2	0.0	0.0	100.2
=	62.8	0.0	0.0	100.2
=	63.4	0.0	0.0	100.2
=	64.0	0.0	0.0	100.2
=	64.6	0.0	0.0	100.3
=	65.0	0.0	0.0	100.3
=	65.5	0.0	0.0	100.3
=	65.9	0.0	0.0	100.4
=	66.4	0.0	0.0	100.4
=	66.8	0.0	0.0	100.5
=	67.3	0.0	0.0	100.5
=	67.7	0.0	0.0	100.5
=	68.3	0.0	0.0	100.5
=	69.1	0.0	0.0	100.5
=	69.7	0.0	0.0	100.6
=	70.3	0.0	0.0	100.6
=	70.9	0.0	0.0	100.6
=	71.6	0.0	0.0	100.7
=	72.1	0.0	0.0	100.7
=	72.8	0.0	0.0	100.7
=	73.4	0.0	0.0	100.8
=	74.0	0.0	0.0	100.8
=	74.7	0.0	0.0	100.9
=	75.4	0.0	0.0	100.9
=	76.0	0.0	0.0	101.0
=	76.6	0.0	0.0	101.0
=	77.2	0.0	0.0	101.1
=	77.8	0.0	0.0	101.1
=	78.4	0.0	0.0	101.2
=	79.0	0.0	0.0	101.2
=	79.6	0.0	0.0	101.3
=	80.2	0.0	0.0	101.4
=	80.9	0.0	0.0	101.4
=	81.5	0.0	0.0	101.5
=	82.0	0.0	0.0	101.5
=	82.5	0.0	0.0	101.6
=	83.1	0.0	0.0	101.6
=	83.6	0.0	0.0	101.7
=	84.1	0.0	0.0	101.7
=	84.7	0.0	0.0	101.8
=	85.3	0.0	0.0	101.8
=	85.9	0.0	0.0	101.9
=	86.3	0.0	0.0	101.9
=	86.9	0.0	0.0	102.0
=	87.4	0.0	0.0	102.0
=	87.9	0.0	0.0	102.1
=	88.5	0.0	0.0	102.2
=	89.0	0.0	0.0	102.2
=	89.6	0.0	0.0	102.3
=	90.1	0.0	0.0	102.3
=	90.5	0.0	0.0	102.4
=	91.2	0.0	0.0	102.4
=	91.6	0.0	0.0	102.5
=	92.1	0.0	0.0	102.6
=	92.7	0.0	0.0	102.7
=	93.3	0.0	0.0	102.8
=	93.7	0.0	0.0	102.8
=	94.1	0.0	0.0	102.8
=	94.5	0.0	0.0	102.8
=	94.9	0.0	0.0	102.8
=	95.3	0.0	0.0	102.9
=	95.8	0.0	0.0	102.9
=	96.2	0.0	0.0	102.9
=	96.7	0.0	0.0	103.0
=	97.2	0.0	0.0	103.0
=	97.7	0.0	0.0	103.1
=	98.1	0.0	0.0	103.2
=	98.6	0.0	0.0	103.2
=	98.9	0.0	0.0	103.2
=	99.3	0.0	0.0	103.3
=	99.8	0.0	0.0	103.3
=	100.3	0.0	0.0	103.4
=	100.7	0.0	0.0	103.4
=	101.3	0.0	0.0	103.4
=	101.9	0.0	0.0	103.5
=	102.4	0.0	0.0	103.5
=	102.9	0.0	0.0	103.5
=	103.4	0.0	0.0	103.6
=	103.9	0.0	0.0	103.6
=	104.4	0.0	0.0	103.6
=	105.0	0.0	0.0	103.7
=	105.6	0.0	0.0	103.7
=	106.2	0.0	0.0	103.8
=	106.8	0.0	0.0	103.8
=	107.4	0.0	0.0	103.9
=	108.0	0.0	0.0	103.9
=	108.5	0.0	0.0	103.9
=	109.0	0.0	0.0	104.0
=	109.7	0.0	0.0	104.0
=	110.2	0.0	0.0	104.0
=	110.8	0.0	0.0	104.0
=	111.3	0.0	0.0	104.0
=	111.9	0.0	0.0	104.0
=	112.5	0.0	0.0	104.0
=	113.1	0.0	0.0	104.0
=	113.7	0.0	0.0	104.0
=	114.3	0.0	0.0	104.0
=	114.9	0.0	0.0	104.0
=	115.5	0.0	0.0	104.0
=	116.1	0.0	0.0	104.0
=	116.7	0.0	0.0	104.0
=	117.3	0.0	0.0	104.0
=	117.9	0.0	0.0	104.0
=	118.5	0.0	0.0	103.9
=	119.1	0.0	0.0	103.9
=	119.7	0.0	0.0	103.9
=	120.3	0.0	0.0	103.9
=	121.0	0.0	0.0	103.8
=	121.6	0.0	0.0	103.7
=	122.2	0.0	0.0	103.7
=	122.8	0.0	0.0	103.6
=	123.4	0.0	0.0	103.6
=	124.0	0.0	0.0	103.5
=	124.6	0.0	0.0	103.4
=	125.2	0.0	0.0	103.3
=	125.7	0.0	0.0	103.2
=	126.2	0.0	0.0	103.2
=	126.8	0.0	0.0	103.1
=	127.4	0.0	0.0	103.0
=	127.9	0.0	0.0	102.9
=	128.4	0.0	0.0	102.9
=	128.9	0.0	0.0	102.7
=	129.4	0.0	0.0	102.6
=	130.0	0.0	0.0	102.5
=	130.5	0.0	0.0	102.4
=	131.1	0.0	0.0	102.2
=	131.7	0.0	0.0	102.1
=	132.2	0.0	0.0	102.0
=	132.6	0.0	0.0	101.9
=	133.1	0.0	0.0	101.7
=	133.7	0.0	0.0	101.6
=	134.1	0.0	0.0	101.5
=	134.7	0.0	0.0	101.3
=	135.3	0.0	0.0	101.2
=	135.9	0.0	0.0	101.0
=	136.3	0.0	0.0	100.9
=	136.8	0.0	0.0	100.8
=	137.2	0.0	0.0	100.6
=	137.7	0.0	0.0	100.4
=	138.1	0.0	0.0	100.2
=	138.5	0.0	0.0	100.1
=	139.2	0.0	0.0	99.8
=	139.6	0.0	0.0	99.6
=	140.0	0.0	0.0	99.5
=	140.6	0.0	0.0	99.3
=	141.2	0.0	0.0	99.1
=	141.7	0.0	0.0	98.9
=	142.2	0.0	0.0	98.7
=	142.8	0.0	0.0	98.4
=	143.2	0.0	0.0	98.2
=	143.6	0.0	0.0	98.0
=	144.1	0.0	0.0	97.9
=	144.7	0.0	0.0	97.6
=	145.3	0.0	0.0	97.3
=	145.9	0.0	0.0	97.0
=	146.5	0.0	0.0	96.7
=	147.1	0.0	0.0	96.4
=	147.7	0.0	0.0	96.1
=	148.3	0.0	0.0	95.8
=	148.9	0.0	0.0	95.5
=	149.5	0.0	0.0	95.2
=	150.1	0.0	0.0	94.9
=	150.7	0.0	0.0	94.5
=	151.3	0.0	0.0	94.2
=	151.9	0.0	0.0	93.9
=	152.6	0.0	0.0	93.5
=	153.2	0.0	0.0	93.2
=	153.8	0.0	0.0	92.7
=	154.4	0.0	0.0	92.3
=	155.0	0.0	0.0	92.0
=	155.5	0.0	0.0	91.7
=	156.0	0.0	0.0	91.3
=	156.6	0.0	0.0	90.9
=	157.2	0.0	0.0	90.5
=	157.8	0.0	0.0	90.2
=	158.4	0.0	0.0	89.7
=	159.0	0.0	0.0	89.3
=	159.6	0.0	0.0	89.0
=	160.3	0.0	0.0	88.5
=	160.8	0.0	0.0	88.1
=	161.4	0.0	0.0	87.6
=	161.9	0.0	0.0	87.4
=	162.4	0.0	0.0	86.9
=	162.8	0.0	0.0	86.7
=	163.3	0.0	0.0	86.3
=	163.9	0.0	0.0	85.9
=	164.5	0.0	0.0	85.4
=	165.1	0.0	0.0	85.0
=	165.7	0.0	0.0	84.5
=	166.3	0.0	0.0	84.0
=	166.8	0.0	0.0	83.6
=	167.3	0.0	0.0	83.2
=	167.8	0.0	0.0	82.8
=	168.2	0.0	0.0	82.4
=	168.7	0.0	0.0	82.0
=	169.3	0.0	0.0	81.5
=	169.8	0.0	0.0	81.2
=	170.3	0.0	0.0	80.7
=	170.9	0.0	0.0	80.2
=	171.5	0.0	0.0	79.7
=	172.1	0.0	0.0	79.2
=	172.6	0.0	0.0	78.8
=	173.2	0.0	0.0	78.3
=	173.8	0.0	0.0	77.8
=	174.3	0.0	0.0	77.2
=	175.0	0.0	0.0	76.6
=	175.6	0.0	0.0	76.2
=	176.1	0.0	0.0	75.7
=	176.6	0.0	0.0	75.2
=	177.2	0.0	0.0	74.7
=	177.8	0.0	0.0	74.1
=	178.4	0.0	0.0	73.5
=	179.0	0.0	0.0	72.9
=	179.6	0.0	0.0	72.4
=	180.1	0.0	0.0	71.9
=	180.6	0.0	0.0	71.5
=	181.0	0.0	0.0	71.0
=	181.5	0.0	0.0	70.5
=	181.9	0.0	0.0	70.1
=	182.3	0.0	0.0	69.7
=	182.8	0.0	0.0	69.2
=	183.4	0.0	0.0	68.6
=	184.0	0.0	0.0	68.0
=	184.6	0.0	0.0	67.4
=	185.2	0.0	0.0	66.7
=	185.8	0.0	0.0	66.0
=	186.4	0.0	0.0	65.3
=	186.9	0.0	0.0	64.8
=	187.4	0.0	0.0	64.2
=	188.0	0.0	0.0	63.5
=	188.7	0.0	0.0	62.8
=	189.2	0.0	0.0	62.1
=	189.9	0.0	0.0	61.2
=	190.5	0.0	0.0	60.4
=	190.9	0.0	0.0	59.9
=	191.3	0.0	0.0	59.4
=	191.7	0.0	0.0	58.7
=	192.3	0.0	0.0	57.8
=	192.9	0.0	0.0	56.9
=	193.5	0.0	0.0	55.9
=	194.0	0.0	0.0	55.1
=	194.5	0.0	0.0	54.2
=	195.1	0.0	0.0	53.0
=	195.6	0.0	0.0	52.2
=	196.1	0.0	0.0	51.1
=	196.7	0.0	0.0	49.8
=	197.3	0.0	0.0	48.5
=	198.0	0.0	0.0	47.1
=	198.5	0.0	0.0	45.8
=	199.1	0.0	0.0	44.5
=	199.8	0.0	0.0	42.9
=	200.3	0.0	0.0	41.4
=	201.0	0.0	0.0	39.8
=	201.6	0.0	0.0	38.2
=	202.2	0.0	0.0	36.5
=	202.7	0.0	0.0	35.1
=	203.4	0.0	0.0	33.5
=	204.0	0.0	0.0	31.9
=	204.6	0.0	0.0	30.3
=	205.2	0.0	0.0	28.7
=	205.8	0.0	0.0	27.1
=	206.4	0.0	0.0	25.7
=	207.0	0.0	0.0	24.3
=	207.6	0.0	0.0	22.9
=	208.2	0.0	0.0	21.5
=	208.8	0.0	0.0	20.2
=	209.3	0.0	0.0	19.2
=	209.8	0.0	0.0	18.1
=	210.4	0.0	0.0	17.0
=	211.0	0.0	0.0	15.9
=	211.6	0.0	0.0	14.9
=	212.1	0.0	0.0	14.1
=	212.6	0.0	0.0	13.3
=	213.2	0.0	0.0	12.5
=	213.8	0.0	0.0	11.7
=	214.4	0.0	0.0	11.0
=	214.8	0.0	0.0	10.5
=	215.2	0.0	0.0	10.0
=	215.9	0.0	0.0	9.4
=	216.3	0.0	0.0	9.0
=	216.9	0.0	0.0	8.5
=	217.5	0.0	0.0	8.0
=	218.1	0.0	0.0	7.5
=	218.7	0.0	0.0	7.1
=	219.1	0.0	0.0	6.8
=	219.6	0.0	0.0	6.5
=	220.1	0.0	0.0	6.2
=	220.6	0.0	0.0	6.0
=	221.0	0.0	0.0	5.8
=	221.4	0.0	0.0	5.6
=	221.8	0.0	0.0	5.5
=	222.2	0.0	0.0	5.3
=	222.7	0.0	0.0	5.1
=	223.1	0.0	0.0	4.9
=	223.6	0.0	0.0	4.8
=	224.1	0.0	0.0	4.6
=	224.5	0.0	0.0	4.5
=	225.0	0.0	0.0	4.4
=	225.4	0.0	0.0	4.3
=	225.8	0.0	0.0	4.2
=	226.3	0.0	0.0	4.1
=	226.8	0.0	0.0	4.0
=	227.2	0.0	0.0	3.9
=	227.6	0.0	0.0	3.8
=	228.0	0.0	0.0	3.8
=	228.4	0.0	0.0	3.7
=	228.8	0.0	0.0	3.6
=	229.2	0.0	0.0	3.6
=	229.6	0.0	0.0	3.5
=	230.2	0.0	0.0	3.4
=	230.7	0.0	0.0	3.4
=	231.1	0.0	0.0	3.3
=	231.5	0.0	0.0	3.3
=	231.9	0.0	0.0	3.3
=	232.4	0.0	0.0	3.2
=	232.9	0.0	0.0	3.1
=	233.4	0.0	0.0	3.1
=	233.9	0.0	0.0	3.0
=	234.3	0.0	0.0	3.0
=	234.7	0.0	0.0	3.0
=	235.2	0.0	0.0	2.9
=	235.7	0.0	0.0	2.9
=	236.1	0.0	0.0	2.9
:EOM # End of Measurement

:EOF # End of File