:MSR 	1	 # No. of measurement in file
:SYS BDS 0   # Beam Data Scanner System
#
# RFA300 ASCII Measurement Dump ( BDS format )
#
# Measurement number 	1
#
%VNR 1.0
%MOD 	RAT
%TYP 	SCN
%SCN 	DPT
%FLD 	ION
%DAT 	10-04-2011
%TIM 	12:00:00
%FSZ 	400	400
%BMT 	ELE	   22.0
%SSD 	1000
%BUP 	0
%BRD 	1000
%FSH 	1
%ASC 	0
%WEG 	0
%GPO 	0
%CPO 	0
%MEA 	1
%PRD 	0,0
%PTS 	596
%STS 	    0.0	  0.0	   0.0 # Start Scan values in mm ( X , Y , Z )
%EDS 	    0.0	   0.0	   228.4 # End Scan values in mm ( X , Y , Z )
#
#	  X      Y      Z     Dose
#
=	0.0	0.0	0.0	89.9
=	0.0	0.0	0.3	90.1
=	0.0	0.0	0.6	90.2
=	0.0	0.0	0.9	90.5
=	0.0	0.0	1.2	90.7
=	0.0	0.0	1.5	91.0
=	0.0	0.0	1.8	91.2
=	0.0	0.0	2.1	91.5
=	0.0	0.0	2.4	91.9
=	0.0	0.0	2.7	92.3
=	0.0	0.0	3.0	92.6
=	0.0	0.0	3.3	92.9
=	0.0	0.0	3.6	93.2
=	0.0	0.0	3.9	93.5
=	0.0	0.0	4.2	93.8
=	0.0	0.0	4.5	94.1
=	0.0	0.0	4.8	94.3
=	0.0	0.0	5.1	94.5
=	0.0	0.0	5.5	94.7
=	0.0	0.0	5.7	94.9
=	0.0	0.0	6.1	95.1
=	0.0	0.0	6.4	95.4
=	0.0	0.0	6.7	95.5
=	0.0	0.0	7.0	95.7
=	0.0	0.0	7.3	95.9
=	0.0	0.0	7.5	96.0
=	0.0	0.0	7.8	96.2
=	0.0	0.0	8.2	96.3
=	0.0	0.0	8.5	96.5
=	0.0	0.0	8.8	96.6
=	0.0	0.0	9.1	96.7
=	0.0	0.0	9.4	96.9
=	0.0	0.0	9.7	97.0
=	0.0	0.0	10.0	97.1
=	0.0	0.0	10.3	97.2
=	0.0	0.0	10.6	97.3
=	0.0	0.0	10.9	97.4
=	0.0	0.0	11.2	97.5
=	0.0	0.0	11.5	97.7
=	0.0	0.0	11.8	97.7
=	0.0	0.0	12.1	97.8
=	0.0	0.0	12.4	97.9
=	0.0	0.0	12.7	97.9
=	0.0	0.0	13.0	98.0
=	0.0	0.0	13.3	98.1
=	0.0	0.0	13.6	98.2
=	0.0	0.0	13.9	98.2
=	0.0	0.0	14.3	98.3
=	0.0	0.0	14.5	98.4
=	0.0	0.0	14.8	98.5
=	0.0	0.0	15.1	98.5
=	0.0	0.0	15.4	98.6
=	0.0	0.0	15.7	98.7
=	0.0	0.0	16.1	98.7
=	0.0	0.0	16.6	98.8
=	0.0	0.0	16.9	98.9
=	0.0	0.0	17.3	99.0
=	0.0	0.0	17.6	99.0
=	0.0	0.0	17.9	99.1
=	0.0	0.0	18.2	99.1
=	0.0	0.0	18.6	99.2
=	0.0	0.0	19.0	99.2
=	0.0	0.0	19.4	99.3
=	0.0	0.0	19.8	99.3
=	0.0	0.0	20.2	99.4
=	0.0	0.0	20.6	99.4
=	0.0	0.0	20.9	99.5
=	0.0	0.0	21.2	99.5
=	0.0	0.0	21.6	99.5
=	0.0	0.0	22.2	99.6
=	0.0	0.0	22.6	99.6
=	0.0	0.0	23.1	99.7
=	0.0	0.0	23.5	99.7
=	0.0	0.0	24.1	99.8
=	0.0	0.0	24.4	99.8
=	0.0	0.0	25.0	99.8
=	0.0	0.0	25.5	99.8
=	0.0	0.0	25.8	99.9
=	0.0	0.0	26.5	99.9
=	0.0	0.0	26.8	99.9
=	0.0	0.0	27.2	100.0
=	0.0	0.0	27.7	100.0
=	0.0	0.0	28.1	100.0
=	0.0	0.0	28.6	100.0
=	0.0	0.0	29.0	100.0
=	0.0	0.0	29.5	100.0
=	0.0	0.0	30.0	100.0
=	0.0	0.0	30.4	100.0
=	0.0	0.0	31.0	100.0
=	0.0	0.0	31.6	99.9
=	0.0	0.0	32.2	100.0
=	0.0	0.0	32.5	100.0
=	0.0	0.0	32.9	99.9
=	0.0	0.0	33.5	99.9
=	0.0	0.0	33.9	99.9
=	0.0	0.0	34.4	99.8
=	0.0	0.0	34.8	99.8
=	0.0	0.0	35.1	99.7
=	0.0	0.0	35.6	99.7
=	0.0	0.0	36.0	99.6
=	0.0	0.0	36.5	99.6
=	0.0	0.0	37.1	99.5
=	0.0	0.0	37.4	99.5
=	0.0	0.0	37.8	99.5
=	0.0	0.0	38.3	99.4
=	0.0	0.0	38.6	99.4
=	0.0	0.0	39.3	99.3
=	0.0	0.0	39.7	99.2
=	0.0	0.0	40.2	99.1
=	0.0	0.0	40.7	99.0
=	0.0	0.0	41.1	99.0
=	0.0	0.0	41.7	98.9
=	0.0	0.0	42.1	98.9
=	0.0	0.0	42.6	98.8
=	0.0	0.0	43.1	98.7
=	0.0	0.0	43.5	98.7
=	0.0	0.0	44.0	98.5
=	0.0	0.0	44.4	98.4
=	0.0	0.0	45.1	98.3
=	0.0	0.0	45.6	98.2
=	0.0	0.0	45.9	98.1
=	0.0	0.0	46.3	98.0
=	0.0	0.0	46.6	98.0
=	0.0	0.0	47.0	97.9
=	0.0	0.0	47.2	97.8
=	0.0	0.0	47.6	97.7
=	0.0	0.0	47.9	97.6
=	0.0	0.0	48.3	97.5
=	0.0	0.0	48.7	97.3
=	0.0	0.0	49.0	97.2
=	0.0	0.0	49.3	97.1
=	0.0	0.0	49.6	97.1
=	0.0	0.0	49.9	97.0
=	0.0	0.0	50.2	96.9
=	0.0	0.0	50.5	96.8
=	0.0	0.0	50.8	96.7
=	0.0	0.0	51.1	96.5
=	0.0	0.0	51.5	96.4
=	0.0	0.0	51.8	96.3
=	0.0	0.0	52.2	96.2
=	0.0	0.0	52.6	96.1
=	0.0	0.0	52.9	95.9
=	0.0	0.0	53.4	95.7
=	0.0	0.0	53.8	95.7
=	0.0	0.0	54.2	95.5
=	0.0	0.0	54.8	95.3
=	0.0	0.0	55.2	95.1
=	0.0	0.0	55.7	94.7
=	0.0	0.0	56.3	94.4
=	0.0	0.0	56.6	94.2
=	0.0	0.0	57.2	93.9
=	0.0	0.0	57.7	93.7
=	0.0	0.0	58.1	93.5
=	0.0	0.0	58.6	93.1
=	0.0	0.0	58.9	93.0
=	0.0	0.0	59.2	92.8
=	0.0	0.0	59.6	92.5
=	0.0	0.0	59.9	92.4
=	0.0	0.0	60.3	92.1
=	0.0	0.0	60.6	92.0
=	0.0	0.0	60.9	91.8
=	0.0	0.0	61.3	91.5
=	0.0	0.0	61.5	91.4
=	0.0	0.0	61.9	91.1
=	0.0	0.0	62.1	90.9
=	0.0	0.0	62.5	90.5
=	0.0	0.0	62.8	90.3
=	0.0	0.0	63.1	90.1
=	0.0	0.0	63.4	89.8
=	0.0	0.0	63.7	89.5
=	0.0	0.0	64.0	89.3
=	0.0	0.0	64.3	89.0
=	0.0	0.0	64.7	88.7
=	0.0	0.0	65.1	88.4
=	0.0	0.0	65.4	88.1
=	0.0	0.0	65.7	87.7
=	0.0	0.0	66.1	87.4
=	0.0	0.0	66.6	87.0
=	0.0	0.0	67.2	86.3
=	0.0	0.0	67.5	86.0
=	0.0	0.0	68.0	85.5
=	0.0	0.0	68.4	85.1
=	0.0	0.0	68.8	84.7
=	0.0	0.0	69.2	84.3
=	0.0	0.0	69.6	83.9
=	0.0	0.0	70.3	83.0
=	0.0	0.0	70.8	82.4
=	0.0	0.0	71.1	82.0
=	0.0	0.0	71.8	81.0
=	0.0	0.0	72.2	80.5
=	0.0	0.0	72.7	80.0
=	0.0	0.0	73.2	79.1
=	0.0	0.0	73.6	78.5
=	0.0	0.0	74.1	77.7
=	0.0	0.0	74.5	77.2
=	0.0	0.0	74.8	76.8
=	0.0	0.0	75.3	75.9
=	0.0	0.0	75.7	75.3
=	0.0	0.0	76.4	74.3
=	0.0	0.0	76.9	73.3
=	0.0	0.0	77.6	72.2
=	0.0	0.0	78.1	71.3
=	0.0	0.0	78.5	70.5
=	0.0	0.0	78.8	70.0
=	0.0	0.0	79.4	68.9
=	0.0	0.0	79.7	68.1
=	0.0	0.0	80.3	67.0
=	0.0	0.0	80.7	66.5
=	0.0	0.0	81.1	65.7
=	0.0	0.0	81.4	65.0
=	0.0	0.0	81.8	64.3
=	0.0	0.0	82.0	63.8
=	0.0	0.0	82.3	63.2
=	0.0	0.0	82.6	62.5
=	0.0	0.0	82.9	61.8
=	0.0	0.0	83.3	61.1
=	0.0	0.0	83.6	60.4
=	0.0	0.0	83.9	59.8
=	0.0	0.0	84.2	59.2
=	0.0	0.0	84.5	58.6
=	0.0	0.0	84.8	57.9
=	0.0	0.0	85.1	57.2
=	0.0	0.0	85.4	56.5
=	0.0	0.0	85.7	55.8
=	0.0	0.0	86.0	55.1
=	0.0	0.0	86.3	54.5
=	0.0	0.0	86.6	53.8
=	0.0	0.0	87.2	52.4
=	0.0	0.0	87.6	51.4
=	0.0	0.0	88.0	50.6
=	0.0	0.0	88.3	49.6
=	0.0	0.0	88.7	48.8
=	0.0	0.0	89.0	47.9
=	0.0	0.0	89.7	46.4
=	0.0	0.0	90.1	45.5
=	0.0	0.0	90.6	44.2
=	0.0	0.0	91.2	42.7
=	0.0	0.0	91.5	42.0
=	0.0	0.0	91.9	41.2
=	0.0	0.0	92.4	40.1
=	0.0	0.0	92.7	39.3
=	0.0	0.0	93.1	38.4
=	0.0	0.0	93.6	37.2
=	0.0	0.0	93.9	36.4
=	0.0	0.0	94.3	35.3
=	0.0	0.0	94.8	34.2
=	0.0	0.0	95.1	33.5
=	0.0	0.0	95.5	32.6
=	0.0	0.0	96.0	31.5
=	0.0	0.0	96.3	30.8
=	0.0	0.0	96.7	30.0
=	0.0	0.0	97.3	28.8
=	0.0	0.0	97.7	27.9
=	0.0	0.0	98.1	27.0
=	0.0	0.0	98.4	26.4
=	0.0	0.0	98.7	25.8
=	0.0	0.0	99.0	25.1
=	0.0	0.0	99.3	24.5
=	0.0	0.0	99.6	24.0
=	0.0	0.0	99.9	23.4
=	0.0	0.0	100.3	22.8
=	0.0	0.0	100.6	22.2
=	0.0	0.0	101.1	21.2
=	0.0	0.0	101.7	20.3
=	0.0	0.0	102.0	19.6
=	0.0	0.0	102.4	19.0
=	0.0	0.0	102.8	18.4
=	0.0	0.0	103.0	18.0
=	0.0	0.0	103.4	17.4
=	0.0	0.0	103.9	16.7
=	0.0	0.0	104.3	16.2
=	0.0	0.0	104.7	15.7
=	0.0	0.0	105.2	15.1
=	0.0	0.0	105.7	14.4
=	0.0	0.0	106.1	14.0
=	0.0	0.0	106.6	13.4
=	0.0	0.0	106.9	13.0
=	0.0	0.0	107.2	12.7
=	0.0	0.0	107.6	12.3
=	0.0	0.0	108.1	11.8
=	0.0	0.0	108.5	11.5
=	0.0	0.0	109.1	11.0
=	0.0	0.0	109.5	10.7
=	0.0	0.0	109.9	10.4
=	0.0	0.0	110.3	10.1
=	0.0	0.0	110.9	9.8
=	0.0	0.0	111.3	9.5
=	0.0	0.0	111.6	9.3
=	0.0	0.0	111.9	9.2
=	0.0	0.0	112.2	9.1
=	0.0	0.0	112.5	8.9
=	0.0	0.0	112.8	8.8
=	0.0	0.0	113.1	8.7
=	0.0	0.0	113.4	8.6
=	0.0	0.0	113.7	8.5
=	0.0	0.0	114.0	8.3
=	0.0	0.0	114.3	8.2
=	0.0	0.0	114.6	8.2
=	0.0	0.0	115.0	8.0
=	0.0	0.0	115.4	7.9
=	0.0	0.0	115.7	7.8
=	0.0	0.0	116.0	7.8
=	0.0	0.0	116.5	7.7
=	0.0	0.0	116.8	7.6
=	0.0	0.0	117.1	7.6
=	0.0	0.0	117.5	7.5
=	0.0	0.0	117.8	7.5
=	0.0	0.0	118.5	7.4
=	0.0	0.0	118.9	7.4
=	0.0	0.0	119.3	7.3
=	0.0	0.0	119.7	7.3
=	0.0	0.0	120.3	7.3
=	0.0	0.0	120.6	7.2
=	0.0	0.0	121.1	7.2
=	0.0	0.0	121.5	7.2
=	0.0	0.0	121.9	7.2
=	0.0	0.0	122.5	7.2
=	0.0	0.0	123.0	7.2
=	0.0	0.0	123.3	7.2
=	0.0	0.0	123.7	7.2
=	0.0	0.0	124.1	7.1
=	0.0	0.0	124.6	7.1
=	0.0	0.0	124.9	7.1
=	0.0	0.0	125.4	7.1
=	0.0	0.0	125.6	7.1
=	0.0	0.0	126.0	7.1
=	0.0	0.0	126.3	7.1
=	0.0	0.0	126.6	7.1
=	0.0	0.0	126.9	7.1
=	0.0	0.0	127.2	7.1
=	0.0	0.0	127.5	7.0
=	0.0	0.0	127.8	7.0
=	0.0	0.0	128.1	7.0
=	0.0	0.0	128.5	7.0
=	0.0	0.0	128.7	7.0
=	0.0	0.0	129.0	7.0
=	0.0	0.0	129.3	7.0
=	0.0	0.0	129.6	7.0
=	0.0	0.0	130.0	7.0
=	0.0	0.0	130.3	7.0
=	0.0	0.0	130.6	7.0
=	0.0	0.0	130.9	7.0
=	0.0	0.0	131.2	7.0
=	0.0	0.0	131.6	7.0
=	0.0	0.0	132.0	7.0
=	0.0	0.0	132.4	7.0
=	0.0	0.0	132.7	7.0
=	0.0	0.0	133.0	7.0
=	0.0	0.0	133.3	7.0
=	0.0	0.0	133.6	7.0
=	0.0	0.0	133.9	7.0
=	0.0	0.0	134.3	7.0
=	0.0	0.0	134.6	7.0
=	0.0	0.0	135.1	7.0
=	0.0	0.0	135.7	7.0
=	0.0	0.0	136.0	7.0
=	0.0	0.0	136.6	7.0
=	0.0	0.0	137.0	7.0
=	0.0	0.0	137.5	7.0
=	0.0	0.0	138.1	7.0
=	0.0	0.0	138.7	7.0
=	0.0	0.0	139.1	6.9
=	0.0	0.0	139.5	6.9
=	0.0	0.0	140.0	6.9
=	0.0	0.0	140.6	6.9
=	0.0	0.0	140.9	6.9
=	0.0	0.0	141.4	6.9
=	0.0	0.0	141.8	6.9
=	0.0	0.0	142.4	6.9
=	0.0	0.0	142.8	6.8
=	0.0	0.0	143.3	6.8
=	0.0	0.0	143.9	6.8
=	0.0	0.0	144.2	6.8
=	0.0	0.0	144.9	6.8
=	0.0	0.0	145.2	6.8
=	0.0	0.0	145.6	6.8
=	0.0	0.0	146.1	6.8
=	0.0	0.0	146.6	6.7
=	0.0	0.0	147.0	6.7
=	0.0	0.0	147.6	6.7
=	0.0	0.0	148.0	6.7
=	0.0	0.0	148.4	6.7
=	0.0	0.0	148.7	6.7
=	0.0	0.0	149.0	6.7
=	0.0	0.0	149.4	6.7
=	0.0	0.0	149.7	6.7
=	0.0	0.0	150.2	6.6
=	0.0	0.0	150.6	6.6
=	0.0	0.0	150.8	6.6
=	0.0	0.0	151.1	6.6
=	0.0	0.0	151.5	6.6
=	0.0	0.0	151.8	6.6
=	0.0	0.0	152.1	6.6
=	0.0	0.0	152.4	6.6
=	0.0	0.0	152.7	6.6
=	0.0	0.0	153.0	6.5
=	0.0	0.0	153.3	6.5
=	0.0	0.0	153.6	6.5
=	0.0	0.0	154.2	6.5
=	0.0	0.0	154.6	6.5
=	0.0	0.0	155.0	6.5
=	0.0	0.0	155.5	6.5
=	0.0	0.0	155.8	6.5
=	0.0	0.0	156.3	6.5
=	0.0	0.0	156.9	6.4
=	0.0	0.0	157.3	6.4
=	0.0	0.0	157.9	6.4
=	0.0	0.0	158.3	6.4
=	0.0	0.0	158.8	6.4
=	0.0	0.0	159.4	6.4
=	0.0	0.0	159.7	6.3
=	0.0	0.0	160.2	6.3
=	0.0	0.0	160.6	6.3
=	0.0	0.0	161.0	6.3
=	0.0	0.0	161.5	6.3
=	0.0	0.0	161.9	6.3
=	0.0	0.0	162.3	6.3
=	0.0	0.0	162.6	6.3
=	0.0	0.0	162.9	6.3
=	0.0	0.0	163.2	6.3
=	0.0	0.0	163.5	6.3
=	0.0	0.0	164.0	6.2
=	0.0	0.0	164.4	6.2
=	0.0	0.0	164.7	6.2
=	0.0	0.0	165.2	6.2
=	0.0	0.0	165.5	6.2
=	0.0	0.0	165.8	6.2
=	0.0	0.0	166.1	6.2
=	0.0	0.0	166.4	6.2
=	0.0	0.0	166.8	6.2
=	0.0	0.0	167.1	6.2
=	0.0	0.0	167.4	6.1
=	0.0	0.0	167.8	6.1
=	0.0	0.0	168.1	6.1
=	0.0	0.0	168.4	6.1
=	0.0	0.0	168.7	6.1
=	0.0	0.0	169.0	6.1
=	0.0	0.0	169.3	6.1
=	0.0	0.0	169.6	6.1
=	0.0	0.0	170.0	6.1
=	0.0	0.0	170.4	6.1
=	0.0	0.0	170.7	6.0
=	0.0	0.0	171.1	6.0
=	0.0	0.0	171.6	6.0
=	0.0	0.0	172.1	6.0
=	0.0	0.0	172.6	6.0
=	0.0	0.0	173.0	6.0
=	0.0	0.0	173.5	6.0
=	0.0	0.0	173.9	6.0
=	0.0	0.0	174.2	6.0
=	0.0	0.0	174.8	6.0
=	0.0	0.0	175.2	6.0
=	0.0	0.0	175.7	5.9
=	0.0	0.0	176.1	5.9
=	0.0	0.0	176.5	5.9
=	0.0	0.0	176.9	5.9
=	0.0	0.0	177.3	5.9
=	0.0	0.0	177.7	5.9
=	0.0	0.0	178.2	5.9
=	0.0	0.0	178.6	5.8
=	0.0	0.0	178.9	5.8
=	0.0	0.0	179.4	5.8
=	0.0	0.0	179.7	5.8
=	0.0	0.0	180.1	5.8
=	0.0	0.0	180.6	5.8
=	0.0	0.0	180.9	5.8
=	0.0	0.0	181.3	5.8
=	0.0	0.0	181.8	5.8
=	0.0	0.0	182.2	5.8
=	0.0	0.0	182.6	5.8
=	0.0	0.0	183.0	5.8
=	0.0	0.0	183.4	5.8
=	0.0	0.0	183.7	5.7
=	0.0	0.0	184.0	5.7
=	0.0	0.0	184.3	5.7
=	0.0	0.0	184.6	5.7
=	0.0	0.0	184.9	5.7
=	0.0	0.0	185.2	5.7
=	0.0	0.0	185.5	5.7
=	0.0	0.0	185.8	5.7
=	0.0	0.0	186.2	5.7
=	0.0	0.0	186.5	5.7
=	0.0	0.0	186.9	5.6
=	0.0	0.0	187.3	5.6
=	0.0	0.0	187.6	5.6
=	0.0	0.0	188.0	5.6
=	0.0	0.0	188.4	5.6
=	0.0	0.0	188.8	5.6
=	0.0	0.0	189.2	5.6
=	0.0	0.0	189.6	5.6
=	0.0	0.0	190.0	5.6
=	0.0	0.0	190.5	5.6
=	0.0	0.0	190.9	5.5
=	0.0	0.0	191.5	5.5
=	0.0	0.0	192.1	5.5
=	0.0	0.0	192.4	5.5
=	0.0	0.0	192.7	5.5
=	0.0	0.0	193.2	5.5
=	0.0	0.0	193.6	5.5
=	0.0	0.0	194.0	5.5
=	0.0	0.0	194.5	5.5
=	0.0	0.0	194.8	5.5
=	0.0	0.0	195.2	5.4
=	0.0	0.0	195.7	5.4
=	0.0	0.0	196.0	5.4
=	0.0	0.0	196.3	5.4
=	0.0	0.0	196.6	5.4
=	0.0	0.0	196.9	5.4
=	0.0	0.0	197.2	5.4
=	0.0	0.0	197.5	5.4
=	0.0	0.0	197.8	5.4
=	0.0	0.0	198.1	5.4
=	0.0	0.0	198.4	5.4
=	0.0	0.0	198.7	5.4
=	0.0	0.0	199.0	5.4
=	0.0	0.0	199.3	5.4
=	0.0	0.0	199.6	5.3
=	0.0	0.0	200.1	5.3
=	0.0	0.0	200.4	5.3
=	0.0	0.0	200.8	5.3
=	0.0	0.0	201.5	5.3
=	0.0	0.0	201.9	5.3
=	0.0	0.0	202.4	5.3
=	0.0	0.0	202.8	5.3
=	0.0	0.0	203.2	5.2
=	0.0	0.0	203.5	5.2
=	0.0	0.0	203.8	5.2
=	0.0	0.0	204.2	5.2
=	0.0	0.0	204.6	5.2
=	0.0	0.0	204.9	5.2
=	0.0	0.0	205.2	5.2
=	0.0	0.0	205.4	5.2
=	0.0	0.0	205.7	5.2
=	0.0	0.0	206.1	5.2
=	0.0	0.0	206.4	5.2
=	0.0	0.0	206.7	5.2
=	0.0	0.0	207.0	5.2
=	0.0	0.0	207.3	5.2
=	0.0	0.0	207.6	5.2
=	0.0	0.0	208.0	5.2
=	0.0	0.0	208.4	5.2
=	0.0	0.0	208.8	5.2
=	0.0	0.0	209.0	5.1
=	0.0	0.0	209.6	5.1
=	0.0	0.0	210.0	5.1
=	0.0	0.0	210.3	5.1
=	0.0	0.0	210.8	5.1
=	0.0	0.0	211.2	5.1
=	0.0	0.0	211.7	5.1
=	0.0	0.0	212.3	5.1
=	0.0	0.0	212.6	5.1
=	0.0	0.0	213.0	5.1
=	0.0	0.0	213.3	5.1
=	0.0	0.0	213.6	5.0
=	0.0	0.0	213.9	5.0
=	0.0	0.0	214.3	5.0
=	0.0	0.0	214.6	5.0
=	0.0	0.0	214.8	5.0
=	0.0	0.0	215.2	5.0
=	0.0	0.0	215.5	5.0
=	0.0	0.0	215.8	5.0
=	0.0	0.0	216.1	5.0
=	0.0	0.0	216.4	5.0
=	0.0	0.0	216.7	5.0
=	0.0	0.0	217.0	5.0
=	0.0	0.0	217.3	5.0
=	0.0	0.0	217.6	5.0
=	0.0	0.0	217.9	4.9
=	0.0	0.0	218.2	4.9
=	0.0	0.0	218.5	4.9
=	0.0	0.0	218.8	4.9
=	0.0	0.0	219.3	4.9
=	0.0	0.0	219.7	4.9
=	0.0	0.0	220.0	4.9
=	0.0	0.0	220.5	4.9
=	0.0	0.0	220.9	4.9
=	0.0	0.0	221.3	4.8
=	0.0	0.0	221.7	4.8
=	0.0	0.0	222.1	4.8
=	0.0	0.0	222.6	4.8
=	0.0	0.0	223.1	4.8
=	0.0	0.0	223.3	4.8
=	0.0	0.0	223.7	4.8
=	0.0	0.0	224.0	4.8
=	0.0	0.0	224.3	4.8
=	0.0	0.0	224.7	4.8
=	0.0	0.0	225.1	4.8
=	0.0	0.0	225.4	4.8
=	0.0	0.0	225.8	4.8
=	0.0	0.0	226.1	4.8
=	0.0	0.0	226.6	4.8
=	0.0	0.0	226.9	4.7
=	0.0	0.0	227.3	4.7
=	0.0	0.0	227.7	4.7
=	0.0	0.0	228.0	4.7
=	0.0	0.0	228.4	4.7
:EOM # End of Measurement

:EOF # End of File