:MSR 	5	 # No. of measurement in file
:SYS BDS 0   # Beam Data Scanner System
#
# RFA300 ASCII Measurement Dump ( BDS format )
#
# Measurement number 	1
#
%VNR 1.0
%MOD 	RAT
%TYP 	SCN
%SCN 	PRO
%FLD 	ION
%DAT 	10-14-2011
%TIM 	12:00:00
%FSZ 	400	300
%BMT 	PHO	   10.0
%SSD 	1000
%BUP 	0
%BRD 	1000
%FSH 	1
%ASC 	0
%WEG 	15
%GPO 	0
%CPO 	0
%MEA 	6
%PRD 	24,0
%PTS 	898
%STS 	    0.0	  -274.4	   24.0 # Start Scan values in mm ( X , Y , Z )
%EDS 	    0.0	   273.9	   24.0 # End Scan values in mm ( X , Y , Z )
#
#	  X      Y      Z     Dose
#
=	0.0	-274.4	24.0	6.7
=	0.0	-273.7	24.0	6.8
=	0.0	-272.8	24.0	6.8
=	0.0	-272.2	24.0	6.8
=	0.0	-271.7	24.0	6.9
=	0.0	-271.1	24.0	6.9
=	0.0	-270.5	24.0	7.0
=	0.0	-269.9	24.0	7.0
=	0.0	-269.2	24.0	7.0
=	0.0	-268.5	24.0	7.1
=	0.0	-268.0	24.0	7.1
=	0.0	-267.2	24.0	7.2
=	0.0	-266.4	24.0	7.2
=	0.0	-265.6	24.0	7.3
=	0.0	-264.9	24.0	7.3
=	0.0	-264.1	24.0	7.4
=	0.0	-263.4	24.0	7.4
=	0.0	-262.8	24.0	7.4
=	0.0	-262.2	24.0	7.5
=	0.0	-261.7	24.0	7.5
=	0.0	-261.1	24.0	7.5
=	0.0	-260.4	24.0	7.6
=	0.0	-259.7	24.0	7.6
=	0.0	-259.1	24.0	7.7
=	0.0	-258.6	24.0	7.7
=	0.0	-257.9	24.0	7.8
=	0.0	-257.3	24.0	7.8
=	0.0	-256.5	24.0	7.9
=	0.0	-255.8	24.0	8.0
=	0.0	-255.1	24.0	8.0
=	0.0	-254.4	24.0	8.1
=	0.0	-253.8	24.0	8.1
=	0.0	-253.2	24.0	8.2
=	0.0	-252.7	24.0	8.2
=	0.0	-252.1	24.0	8.3
=	0.0	-251.5	24.0	8.3
=	0.0	-250.9	24.0	8.4
=	0.0	-250.3	24.0	8.4
=	0.0	-249.6	24.0	8.5
=	0.0	-249.1	24.0	8.5
=	0.0	-248.5	24.0	8.6
=	0.0	-247.9	24.0	8.7
=	0.0	-247.2	24.0	8.7
=	0.0	-246.5	24.0	8.8
=	0.0	-245.8	24.0	8.9
=	0.0	-245.1	24.0	8.9
=	0.0	-244.4	24.0	9.0
=	0.0	-243.7	24.0	9.1
=	0.0	-242.9	24.0	9.1
=	0.0	-242.3	24.0	9.2
=	0.0	-241.7	24.0	9.3
=	0.0	-241.0	24.0	9.3
=	0.0	-240.4	24.0	9.4
=	0.0	-239.7	24.0	9.5
=	0.0	-239.0	24.0	9.6
=	0.0	-238.4	24.0	9.6
=	0.0	-237.8	24.0	9.7
=	0.0	-237.2	24.0	9.8
=	0.0	-236.6	24.0	9.8
=	0.0	-236.2	24.0	9.9
=	0.0	-235.6	24.0	10.0
=	0.0	-235.1	24.0	10.0
=	0.0	-234.6	24.0	10.1
=	0.0	-234.0	24.0	10.2
=	0.0	-233.3	24.0	10.3
=	0.0	-232.5	24.0	10.4
=	0.0	-231.8	24.0	10.5
=	0.0	-231.2	24.0	10.6
=	0.0	-230.6	24.0	10.7
=	0.0	-230.0	24.0	10.7
=	0.0	-229.4	24.0	10.8
=	0.0	-228.8	24.0	10.9
=	0.0	-228.1	24.0	11.0
=	0.0	-227.5	24.0	11.1
=	0.0	-226.9	24.0	11.2
=	0.0	-226.2	24.0	11.3
=	0.0	-225.5	24.0	11.5
=	0.0	-225.1	24.0	11.5
=	0.0	-224.4	24.0	11.6
=	0.0	-223.7	24.0	11.8
=	0.0	-223.1	24.0	11.9
=	0.0	-222.5	24.0	12.0
=	0.0	-221.9	24.0	12.1
=	0.0	-221.3	24.0	12.2
=	0.0	-220.7	24.0	12.3
=	0.0	-220.0	24.0	12.5
=	0.0	-219.3	24.0	12.7
=	0.0	-218.6	24.0	12.8
=	0.0	-217.8	24.0	13.1
=	0.0	-217.1	24.0	13.3
=	0.0	-216.5	24.0	13.6
=	0.0	-215.9	24.0	13.8
=	0.0	-215.4	24.0	14.1
=	0.0	-214.8	24.0	14.4
=	0.0	-214.2	24.0	14.8
=	0.0	-213.5	24.0	15.3
=	0.0	-212.9	24.0	15.9
=	0.0	-212.3	24.0	16.5
=	0.0	-211.7	24.0	17.3
=	0.0	-211.1	24.0	18.2
=	0.0	-210.5	24.0	19.6
=	0.0	-209.8	24.0	21.3
=	0.0	-209.2	24.0	23.1
=	0.0	-208.6	24.0	25.7
=	0.0	-208.0	24.0	29.1
=	0.0	-207.4	24.0	32.4
=	0.0	-206.8	24.0	36.2
=	0.0	-206.1	24.0	41.6
=	0.0	-205.5	24.0	46.5
=	0.0	-205.0	24.0	51.0
=	0.0	-204.4	24.0	55.8
=	0.0	-203.8	24.0	60.9
=	0.0	-203.3	24.0	65.7
=	0.0	-202.7	24.0	71.0
=	0.0	-202.0	24.0	76.4
=	0.0	-201.4	24.0	80.0
=	0.0	-200.7	24.0	84.0
=	0.0	-200.2	24.0	86.4
=	0.0	-199.6	24.0	88.6
=	0.0	-198.9	24.0	90.7
=	0.0	-198.3	24.0	92.0
=	0.0	-197.8	24.0	93.0
=	0.0	-197.2	24.0	93.8
=	0.0	-196.7	24.0	94.6
=	0.0	-196.1	24.0	95.1
=	0.0	-195.5	24.0	95.7
=	0.0	-194.9	24.0	96.1
=	0.0	-194.2	24.0	96.5
=	0.0	-193.6	24.0	96.8
=	0.0	-192.9	24.0	97.0
=	0.0	-192.3	24.0	97.3
=	0.0	-191.5	24.0	97.5
=	0.0	-190.9	24.0	97.8
=	0.0	-190.1	24.0	98.0
=	0.0	-189.5	24.0	98.1
=	0.0	-188.9	24.0	98.3
=	0.0	-188.1	24.0	98.4
=	0.0	-187.5	24.0	98.5
=	0.0	-186.8	24.0	98.6
=	0.0	-186.3	24.0	98.7
=	0.0	-185.7	24.0	98.8
=	0.0	-185.1	24.0	98.9
=	0.0	-184.5	24.0	99.0
=	0.0	-184.0	24.0	99.0
=	0.0	-183.5	24.0	99.1
=	0.0	-182.9	24.0	99.1
=	0.0	-182.3	24.0	99.2
=	0.0	-181.7	24.0	99.2
=	0.0	-181.1	24.0	99.3
=	0.0	-180.5	24.0	99.4
=	0.0	-179.9	24.0	99.4
=	0.0	-179.3	24.0	99.5
=	0.0	-178.5	24.0	99.5
=	0.0	-177.9	24.0	99.6
=	0.0	-177.4	24.0	99.6
=	0.0	-176.9	24.0	99.7
=	0.0	-176.4	24.0	99.7
=	0.0	-175.7	24.0	99.7
=	0.0	-175.0	24.0	99.7
=	0.0	-174.2	24.0	99.8
=	0.0	-173.6	24.0	99.8
=	0.0	-172.9	24.0	99.8
=	0.0	-172.3	24.0	99.8
=	0.0	-171.7	24.0	99.9
=	0.0	-171.1	24.0	99.9
=	0.0	-170.5	24.0	100.0
=	0.0	-169.9	24.0	100.0
=	0.0	-169.3	24.0	100.0
=	0.0	-168.6	24.0	100.0
=	0.0	-168.0	24.0	100.1
=	0.0	-167.4	24.0	100.1
=	0.0	-166.8	24.0	100.1
=	0.0	-166.1	24.0	100.1
=	0.0	-165.6	24.0	100.2
=	0.0	-164.9	24.0	100.2
=	0.0	-164.3	24.0	100.2
=	0.0	-163.7	24.0	100.2
=	0.0	-163.1	24.0	100.2
=	0.0	-162.3	24.0	100.2
=	0.0	-161.8	24.0	100.2
=	0.0	-161.2	24.0	100.2
=	0.0	-160.5	24.0	100.2
=	0.0	-159.9	24.0	100.2
=	0.0	-159.4	24.0	100.2
=	0.0	-158.9	24.0	100.3
=	0.0	-158.4	24.0	100.3
=	0.0	-157.8	24.0	100.3
=	0.0	-157.2	24.0	100.3
=	0.0	-156.6	24.0	100.3
=	0.0	-156.0	24.0	100.3
=	0.0	-155.4	24.0	100.4
=	0.0	-154.8	24.0	100.4
=	0.0	-154.3	24.0	100.4
=	0.0	-153.6	24.0	100.4
=	0.0	-152.9	24.0	100.4
=	0.0	-152.3	24.0	100.4
=	0.0	-151.6	24.0	100.4
=	0.0	-151.0	24.0	100.4
=	0.0	-150.3	24.0	100.5
=	0.0	-149.6	24.0	100.5
=	0.0	-149.0	24.0	100.5
=	0.0	-148.2	24.0	100.5
=	0.0	-147.6	24.0	100.5
=	0.0	-147.0	24.0	100.5
=	0.0	-146.5	24.0	100.6
=	0.0	-146.0	24.0	100.6
=	0.0	-145.2	24.0	100.6
=	0.0	-144.6	24.0	100.6
=	0.0	-144.2	24.0	100.6
=	0.0	-143.6	24.0	100.6
=	0.0	-143.1	24.0	100.6
=	0.0	-142.6	24.0	100.6
=	0.0	-142.0	24.0	100.6
=	0.0	-141.3	24.0	100.7
=	0.0	-140.8	24.0	100.7
=	0.0	-140.3	24.0	100.7
=	0.0	-139.7	24.0	100.7
=	0.0	-139.1	24.0	100.7
=	0.0	-138.6	24.0	100.7
=	0.0	-138.0	24.0	100.8
=	0.0	-137.5	24.0	100.8
=	0.0	-136.7	24.0	100.8
=	0.0	-136.1	24.0	100.8
=	0.0	-135.6	24.0	100.9
=	0.0	-135.1	24.0	100.9
=	0.0	-134.5	24.0	100.9
=	0.0	-133.7	24.0	100.9
=	0.0	-133.1	24.0	101.0
=	0.0	-132.6	24.0	101.0
=	0.0	-132.0	24.0	101.0
=	0.0	-131.3	24.0	101.0
=	0.0	-130.7	24.0	101.0
=	0.0	-130.2	24.0	101.0
=	0.0	-129.6	24.0	101.0
=	0.0	-128.9	24.0	101.1
=	0.0	-128.2	24.0	101.1
=	0.0	-127.6	24.0	101.1
=	0.0	-126.9	24.0	101.2
=	0.0	-126.3	24.0	101.2
=	0.0	-125.6	24.0	101.2
=	0.0	-124.8	24.0	101.3
=	0.0	-124.1	24.0	101.3
=	0.0	-123.5	24.0	101.3
=	0.0	-122.9	24.0	101.3
=	0.0	-122.3	24.0	101.3
=	0.0	-121.7	24.0	101.3
=	0.0	-121.0	24.0	101.4
=	0.0	-120.5	24.0	101.4
=	0.0	-120.0	24.0	101.4
=	0.0	-119.3	24.0	101.4
=	0.0	-118.7	24.0	101.4
=	0.0	-118.1	24.0	101.4
=	0.0	-117.6	24.0	101.4
=	0.0	-117.1	24.0	101.5
=	0.0	-116.5	24.0	101.5
=	0.0	-116.0	24.0	101.5
=	0.0	-115.5	24.0	101.5
=	0.0	-114.9	24.0	101.5
=	0.0	-114.2	24.0	101.5
=	0.0	-113.6	24.0	101.6
=	0.0	-113.1	24.0	101.6
=	0.0	-112.5	24.0	101.6
=	0.0	-111.9	24.0	101.6
=	0.0	-111.3	24.0	101.6
=	0.0	-110.7	24.0	101.6
=	0.0	-110.1	24.0	101.6
=	0.0	-109.4	24.0	101.6
=	0.0	-108.8	24.0	101.6
=	0.0	-108.2	24.0	101.6
=	0.0	-107.7	24.0	101.7
=	0.0	-106.9	24.0	101.7
=	0.0	-106.2	24.0	101.7
=	0.0	-105.7	24.0	101.7
=	0.0	-105.0	24.0	101.7
=	0.0	-104.4	24.0	101.8
=	0.0	-103.9	24.0	101.8
=	0.0	-103.3	24.0	101.8
=	0.0	-102.7	24.0	101.8
=	0.0	-102.0	24.0	101.8
=	0.0	-101.4	24.0	101.9
=	0.0	-100.9	24.0	101.8
=	0.0	-100.4	24.0	101.8
=	0.0	-99.9	24.0	101.8
=	0.0	-99.3	24.0	101.8
=	0.0	-98.7	24.0	101.8
=	0.0	-98.2	24.0	101.8
=	0.0	-97.6	24.0	101.9
=	0.0	-96.9	24.0	101.9
=	0.0	-96.3	24.0	101.9
=	0.0	-95.5	24.0	101.9
=	0.0	-94.9	24.0	101.9
=	0.0	-94.2	24.0	101.9
=	0.0	-93.7	24.0	101.9
=	0.0	-93.1	24.0	101.9
=	0.0	-92.5	24.0	101.9
=	0.0	-91.8	24.0	102.0
=	0.0	-91.1	24.0	102.0
=	0.0	-90.4	24.0	102.0
=	0.0	-89.9	24.0	102.0
=	0.0	-89.3	24.0	102.0
=	0.0	-88.8	24.0	102.0
=	0.0	-88.1	24.0	102.0
=	0.0	-87.5	24.0	102.0
=	0.0	-86.8	24.0	102.0
=	0.0	-86.2	24.0	102.0
=	0.0	-85.5	24.0	102.0
=	0.0	-84.9	24.0	102.0
=	0.0	-84.2	24.0	102.0
=	0.0	-83.7	24.0	102.0
=	0.0	-83.0	24.0	102.0
=	0.0	-82.3	24.0	102.0
=	0.0	-81.6	24.0	101.9
=	0.0	-81.1	24.0	101.9
=	0.0	-80.5	24.0	102.0
=	0.0	-79.8	24.0	102.0
=	0.0	-79.2	24.0	102.0
=	0.0	-78.5	24.0	102.0
=	0.0	-77.9	24.0	102.0
=	0.0	-77.3	24.0	102.0
=	0.0	-76.8	24.0	102.0
=	0.0	-76.3	24.0	102.0
=	0.0	-75.8	24.0	102.0
=	0.0	-75.2	24.0	102.0
=	0.0	-74.6	24.0	102.0
=	0.0	-73.9	24.0	102.0
=	0.0	-73.3	24.0	102.0
=	0.0	-72.6	24.0	102.0
=	0.0	-72.1	24.0	102.0
=	0.0	-71.5	24.0	102.0
=	0.0	-71.0	24.0	102.0
=	0.0	-70.5	24.0	102.0
=	0.0	-70.0	24.0	102.0
=	0.0	-69.3	24.0	102.0
=	0.0	-68.6	24.0	102.0
=	0.0	-68.1	24.0	102.0
=	0.0	-67.5	24.0	102.0
=	0.0	-66.8	24.0	102.0
=	0.0	-66.2	24.0	102.0
=	0.0	-65.5	24.0	102.0
=	0.0	-64.9	24.0	102.0
=	0.0	-64.2	24.0	102.0
=	0.0	-63.6	24.0	102.0
=	0.0	-63.1	24.0	102.0
=	0.0	-62.4	24.0	102.0
=	0.0	-61.7	24.0	102.0
=	0.0	-61.1	24.0	102.0
=	0.0	-60.5	24.0	102.0
=	0.0	-59.9	24.0	102.0
=	0.0	-59.3	24.0	101.9
=	0.0	-58.6	24.0	101.9
=	0.0	-58.0	24.0	102.0
=	0.0	-57.5	24.0	102.0
=	0.0	-56.9	24.0	101.9
=	0.0	-56.4	24.0	101.9
=	0.0	-55.8	24.0	101.9
=	0.0	-55.0	24.0	101.9
=	0.0	-54.2	24.0	101.9
=	0.0	-53.7	24.0	101.9
=	0.0	-53.1	24.0	101.9
=	0.0	-52.4	24.0	101.8
=	0.0	-51.8	24.0	101.8
=	0.0	-51.2	24.0	101.8
=	0.0	-50.7	24.0	101.8
=	0.0	-50.1	24.0	101.7
=	0.0	-49.4	24.0	101.7
=	0.0	-48.8	24.0	101.7
=	0.0	-48.1	24.0	101.7
=	0.0	-47.6	24.0	101.6
=	0.0	-47.2	24.0	101.6
=	0.0	-46.7	24.0	101.6
=	0.0	-46.1	24.0	101.6
=	0.0	-45.5	24.0	101.6
=	0.0	-44.9	24.0	101.6
=	0.0	-44.3	24.0	101.6
=	0.0	-43.7	24.0	101.5
=	0.0	-43.1	24.0	101.5
=	0.0	-42.7	24.0	101.5
=	0.0	-42.2	24.0	101.5
=	0.0	-41.7	24.0	101.4
=	0.0	-41.1	24.0	101.4
=	0.0	-40.6	24.0	101.4
=	0.0	-40.1	24.0	101.4
=	0.0	-39.7	24.0	101.4
=	0.0	-39.1	24.0	101.3
=	0.0	-38.5	24.0	101.3
=	0.0	-37.9	24.0	101.3
=	0.0	-37.4	24.0	101.3
=	0.0	-36.7	24.0	101.3
=	0.0	-36.2	24.0	101.3
=	0.0	-35.6	24.0	101.2
=	0.0	-35.1	24.0	101.2
=	0.0	-34.6	24.0	101.2
=	0.0	-34.1	24.0	101.2
=	0.0	-33.3	24.0	101.1
=	0.0	-32.6	24.0	101.1
=	0.0	-32.1	24.0	101.1
=	0.0	-31.4	24.0	101.0
=	0.0	-30.8	24.0	100.9
=	0.0	-30.2	24.0	100.9
=	0.0	-29.6	24.0	100.9
=	0.0	-28.9	24.0	100.9
=	0.0	-28.2	24.0	100.9
=	0.0	-27.7	24.0	100.8
=	0.0	-27.1	24.0	100.8
=	0.0	-26.6	24.0	100.8
=	0.0	-26.0	24.0	100.8
=	0.0	-25.5	24.0	100.7
=	0.0	-24.9	24.0	100.7
=	0.0	-24.3	24.0	100.7
=	0.0	-23.8	24.0	100.7
=	0.0	-23.3	24.0	100.7
=	0.0	-22.6	24.0	100.6
=	0.0	-22.0	24.0	100.6
=	0.0	-21.4	24.0	100.6
=	0.0	-20.9	24.0	100.6
=	0.0	-20.4	24.0	100.6
=	0.0	-19.7	24.0	100.6
=	0.0	-19.1	24.0	100.5
=	0.0	-18.5	24.0	100.5
=	0.0	-17.9	24.0	100.5
=	0.0	-17.3	24.0	100.5
=	0.0	-16.8	24.0	100.4
=	0.0	-16.3	24.0	100.4
=	0.0	-15.8	24.0	100.4
=	0.0	-15.3	24.0	100.4
=	0.0	-14.7	24.0	100.3
=	0.0	-14.1	24.0	100.2
=	0.0	-13.6	24.0	100.2
=	0.0	-12.9	24.0	100.2
=	0.0	-12.3	24.0	100.2
=	0.0	-11.6	24.0	100.2
=	0.0	-11.0	24.0	100.2
=	0.0	-10.4	24.0	100.2
=	0.0	-9.9	24.0	100.1
=	0.0	-9.3	24.0	100.1
=	0.0	-8.6	24.0	100.1
=	0.0	-8.1	24.0	100.1
=	0.0	-7.5	24.0	100.1
=	0.0	-6.9	24.0	100.1
=	0.0	-6.2	24.0	100.0
=	0.0	-5.5	24.0	100.0
=	0.0	-4.9	24.0	100.0
=	0.0	-4.2	24.0	100.0
=	0.0	-3.5	24.0	100.0
=	0.0	-2.9	24.0	100.0
=	0.0	-2.3	24.0	100.0
=	0.0	-1.4	24.0	100.0
=	0.0	-0.7	24.0	100.0
=	0.0	-0.2	24.0	100.0
=	0.0	0.0	24.0	100.0
=	0.0	0.3	24.0	100.0
=	0.0	0.9	24.0	100.0
=	0.0	1.7	24.0	100.0
=	0.0	2.4	24.0	100.0
=	0.0	3.1	24.0	100.0
=	0.0	3.7	24.0	100.0
=	0.0	4.3	24.0	100.0
=	0.0	5.0	24.0	100.0
=	0.0	5.7	24.0	100.0
=	0.0	6.4	24.0	100.0
=	0.0	7.0	24.0	100.1
=	0.0	7.6	24.0	100.1
=	0.0	8.2	24.0	100.1
=	0.0	8.8	24.0	100.1
=	0.0	9.4	24.0	100.1
=	0.0	10.0	24.0	100.1
=	0.0	10.5	24.0	100.2
=	0.0	11.2	24.0	100.2
=	0.0	11.8	24.0	100.2
=	0.0	12.4	24.0	100.2
=	0.0	13.0	24.0	100.2
=	0.0	13.7	24.0	100.2
=	0.0	14.3	24.0	100.3
=	0.0	14.9	24.0	100.3
=	0.0	15.4	24.0	100.4
=	0.0	15.9	24.0	100.4
=	0.0	16.4	24.0	100.4
=	0.0	16.9	24.0	100.4
=	0.0	17.5	24.0	100.5
=	0.0	18.1	24.0	100.5
=	0.0	18.7	24.0	100.5
=	0.0	19.3	24.0	100.6
=	0.0	19.9	24.0	100.6
=	0.0	20.5	24.0	100.6
=	0.0	21.1	24.0	100.6
=	0.0	21.5	24.0	100.6
=	0.0	22.1	24.0	100.6
=	0.0	22.8	24.0	100.6
=	0.0	23.4	24.0	100.7
=	0.0	23.9	24.0	100.7
=	0.0	24.5	24.0	100.7
=	0.0	25.1	24.0	100.7
=	0.0	25.6	24.0	100.7
=	0.0	26.2	24.0	100.8
=	0.0	26.7	24.0	100.8
=	0.0	27.3	24.0	100.8
=	0.0	27.8	24.0	100.8
=	0.0	28.4	24.0	100.9
=	0.0	29.1	24.0	100.9
=	0.0	29.8	24.0	100.9
=	0.0	30.4	24.0	100.9
=	0.0	31.0	24.0	101.0
=	0.0	31.6	24.0	101.0
=	0.0	32.2	24.0	101.1
=	0.0	32.8	24.0	101.1
=	0.0	33.5	24.0	101.2
=	0.0	34.2	24.0	101.2
=	0.0	34.7	24.0	101.2
=	0.0	35.3	24.0	101.2
=	0.0	35.8	24.0	101.2
=	0.0	36.3	24.0	101.3
=	0.0	36.8	24.0	101.3
=	0.0	37.5	24.0	101.3
=	0.0	38.0	24.0	101.3
=	0.0	38.6	24.0	101.3
=	0.0	39.2	24.0	101.3
=	0.0	39.8	24.0	101.4
=	0.0	40.3	24.0	101.4
=	0.0	40.8	24.0	101.4
=	0.0	41.3	24.0	101.4
=	0.0	41.8	24.0	101.4
=	0.0	42.3	24.0	101.5
=	0.0	42.8	24.0	101.5
=	0.0	43.3	24.0	101.5
=	0.0	43.8	24.0	101.5
=	0.0	44.4	24.0	101.6
=	0.0	45.0	24.0	101.6
=	0.0	45.6	24.0	101.6
=	0.0	46.2	24.0	101.6
=	0.0	46.8	24.0	101.6
=	0.0	47.3	24.0	101.6
=	0.0	47.8	24.0	101.7
=	0.0	48.3	24.0	101.7
=	0.0	49.0	24.0	101.7
=	0.0	49.6	24.0	101.7
=	0.0	50.2	24.0	101.7
=	0.0	50.8	24.0	101.8
=	0.0	51.4	24.0	101.8
=	0.0	52.0	24.0	101.8
=	0.0	52.6	24.0	101.8
=	0.0	53.2	24.0	101.9
=	0.0	53.8	24.0	101.9
=	0.0	54.4	24.0	101.9
=	0.0	55.2	24.0	101.9
=	0.0	56.0	24.0	101.9
=	0.0	56.5	24.0	101.9
=	0.0	57.0	24.0	101.9
=	0.0	57.6	24.0	102.0
=	0.0	58.2	24.0	102.0
=	0.0	58.8	24.0	101.9
=	0.0	59.4	24.0	101.9
=	0.0	60.1	24.0	102.0
=	0.0	60.6	24.0	102.0
=	0.0	61.3	24.0	102.0
=	0.0	61.9	24.0	102.0
=	0.0	62.6	24.0	102.0
=	0.0	63.2	24.0	102.0
=	0.0	63.8	24.0	102.0
=	0.0	64.4	24.0	102.0
=	0.0	65.1	24.0	102.0
=	0.0	65.7	24.0	102.0
=	0.0	66.3	24.0	102.0
=	0.0	67.0	24.0	102.0
=	0.0	67.7	24.0	102.0
=	0.0	68.2	24.0	102.0
=	0.0	68.8	24.0	102.0
=	0.0	69.5	24.0	102.0
=	0.0	70.1	24.0	102.0
=	0.0	70.6	24.0	102.0
=	0.0	71.1	24.0	102.0
=	0.0	71.6	24.0	102.0
=	0.0	72.2	24.0	102.0
=	0.0	72.8	24.0	102.0
=	0.0	73.4	24.0	102.0
=	0.0	74.1	24.0	102.0
=	0.0	74.7	24.0	102.0
=	0.0	75.4	24.0	102.0
=	0.0	75.9	24.0	102.0
=	0.0	76.4	24.0	102.0
=	0.0	76.9	24.0	102.0
=	0.0	77.5	24.0	102.0
=	0.0	78.0	24.0	102.0
=	0.0	78.6	24.0	102.0
=	0.0	79.4	24.0	102.0
=	0.0	80.0	24.0	102.0
=	0.0	80.7	24.0	102.0
=	0.0	81.2	24.0	101.9
=	0.0	81.8	24.0	101.9
=	0.0	82.4	24.0	102.0
=	0.0	83.2	24.0	102.0
=	0.0	83.8	24.0	102.0
=	0.0	84.4	24.0	102.0
=	0.0	85.0	24.0	102.0
=	0.0	85.7	24.0	102.0
=	0.0	86.4	24.0	102.0
=	0.0	86.9	24.0	102.0
=	0.0	87.6	24.0	102.0
=	0.0	88.3	24.0	102.0
=	0.0	88.9	24.0	102.0
=	0.0	89.5	24.0	102.0
=	0.0	90.0	24.0	102.0
=	0.0	90.6	24.0	102.0
=	0.0	91.3	24.0	102.0
=	0.0	92.0	24.0	102.0
=	0.0	92.6	24.0	101.9
=	0.0	93.3	24.0	101.9
=	0.0	93.8	24.0	101.9
=	0.0	94.4	24.0	101.9
=	0.0	95.0	24.0	101.9
=	0.0	95.7	24.0	101.9
=	0.0	96.5	24.0	101.9
=	0.0	97.0	24.0	101.9
=	0.0	97.7	24.0	101.8
=	0.0	98.3	24.0	101.8
=	0.0	98.9	24.0	101.8
=	0.0	99.5	24.0	101.8
=	0.0	100.0	24.0	101.8
=	0.0	100.6	24.0	101.8
=	0.0	101.0	24.0	101.8
=	0.0	101.6	24.0	101.8
=	0.0	102.2	24.0	101.8
=	0.0	102.8	24.0	101.8
=	0.0	103.5	24.0	101.8
=	0.0	104.0	24.0	101.8
=	0.0	104.6	24.0	101.8
=	0.0	105.2	24.0	101.7
=	0.0	105.8	24.0	101.7
=	0.0	106.4	24.0	101.7
=	0.0	107.1	24.0	101.7
=	0.0	107.8	24.0	101.6
=	0.0	108.3	24.0	101.6
=	0.0	108.9	24.0	101.6
=	0.0	109.6	24.0	101.6
=	0.0	110.3	24.0	101.6
=	0.0	110.8	24.0	101.6
=	0.0	111.4	24.0	101.6
=	0.0	112.0	24.0	101.6
=	0.0	112.6	24.0	101.6
=	0.0	113.2	24.0	101.6
=	0.0	113.7	24.0	101.6
=	0.0	114.4	24.0	101.5
=	0.0	115.1	24.0	101.5
=	0.0	115.6	24.0	101.5
=	0.0	116.1	24.0	101.5
=	0.0	116.6	24.0	101.5
=	0.0	117.2	24.0	101.5
=	0.0	117.8	24.0	101.4
=	0.0	118.3	24.0	101.4
=	0.0	118.9	24.0	101.4
=	0.0	119.5	24.0	101.4
=	0.0	120.1	24.0	101.4
=	0.0	120.6	24.0	101.4
=	0.0	121.1	24.0	101.4
=	0.0	121.9	24.0	101.3
=	0.0	122.5	24.0	101.3
=	0.0	123.1	24.0	101.3
=	0.0	123.6	24.0	101.3
=	0.0	124.3	24.0	101.3
=	0.0	125.0	24.0	101.3
=	0.0	125.8	24.0	101.2
=	0.0	126.4	24.0	101.2
=	0.0	127.1	24.0	101.1
=	0.0	127.7	24.0	101.1
=	0.0	128.4	24.0	101.1
=	0.0	129.0	24.0	101.1
=	0.0	129.8	24.0	101.0
=	0.0	130.3	24.0	101.0
=	0.0	130.8	24.0	101.0
=	0.0	131.5	24.0	101.0
=	0.0	132.1	24.0	101.0
=	0.0	132.8	24.0	101.0
=	0.0	133.2	24.0	101.0
=	0.0	133.9	24.0	100.9
=	0.0	134.6	24.0	100.9
=	0.0	135.3	24.0	100.9
=	0.0	135.7	24.0	100.9
=	0.0	136.2	24.0	100.8
=	0.0	136.9	24.0	100.8
=	0.0	137.6	24.0	100.8
=	0.0	138.2	24.0	100.8
=	0.0	138.7	24.0	100.7
=	0.0	139.3	24.0	100.7
=	0.0	139.8	24.0	100.7
=	0.0	140.4	24.0	100.7
=	0.0	141.0	24.0	100.7
=	0.0	141.5	24.0	100.7
=	0.0	142.1	24.0	100.6
=	0.0	142.7	24.0	100.6
=	0.0	143.2	24.0	100.6
=	0.0	143.8	24.0	100.6
=	0.0	144.3	24.0	100.6
=	0.0	144.8	24.0	100.6
=	0.0	145.4	24.0	100.6
=	0.0	146.1	24.0	100.6
=	0.0	146.6	24.0	100.6
=	0.0	147.2	24.0	100.5
=	0.0	147.7	24.0	100.5
=	0.0	148.4	24.0	100.5
=	0.0	149.1	24.0	100.5
=	0.0	149.8	24.0	100.5
=	0.0	150.5	24.0	100.5
=	0.0	151.2	24.0	100.4
=	0.0	151.7	24.0	100.4
=	0.0	152.4	24.0	100.4
=	0.0	153.1	24.0	100.4
=	0.0	153.8	24.0	100.4
=	0.0	154.4	24.0	100.4
=	0.0	154.9	24.0	100.4
=	0.0	155.5	24.0	100.4
=	0.0	156.1	24.0	100.3
=	0.0	156.7	24.0	100.3
=	0.0	157.3	24.0	100.3
=	0.0	158.0	24.0	100.3
=	0.0	158.5	24.0	100.3
=	0.0	159.0	24.0	100.2
=	0.0	159.5	24.0	100.2
=	0.0	160.0	24.0	100.2
=	0.0	160.7	24.0	100.2
=	0.0	161.4	24.0	100.2
=	0.0	161.9	24.0	100.2
=	0.0	162.5	24.0	100.2
=	0.0	163.3	24.0	100.2
=	0.0	163.9	24.0	100.2
=	0.0	164.5	24.0	100.2
=	0.0	165.1	24.0	100.2
=	0.0	165.7	24.0	100.2
=	0.0	166.3	24.0	100.1
=	0.0	166.9	24.0	100.1
=	0.0	167.5	24.0	100.1
=	0.0	168.2	24.0	100.1
=	0.0	168.8	24.0	100.0
=	0.0	169.5	24.0	100.0
=	0.0	170.0	24.0	100.0
=	0.0	170.7	24.0	99.9
=	0.0	171.3	24.0	99.9
=	0.0	171.9	24.0	99.9
=	0.0	172.4	24.0	99.8
=	0.0	173.1	24.0	99.8
=	0.0	173.7	24.0	99.8
=	0.0	174.4	24.0	99.8
=	0.0	175.1	24.0	99.7
=	0.0	175.9	24.0	99.7
=	0.0	176.5	24.0	99.7
=	0.0	177.0	24.0	99.7
=	0.0	177.6	24.0	99.6
=	0.0	178.1	24.0	99.6
=	0.0	178.7	24.0	99.5
=	0.0	179.4	24.0	99.5
=	0.0	180.1	24.0	99.4
=	0.0	180.6	24.0	99.3
=	0.0	181.2	24.0	99.2
=	0.0	181.8	24.0	99.2
=	0.0	182.4	24.0	99.2
=	0.0	183.1	24.0	99.1
=	0.0	183.6	24.0	99.1
=	0.0	184.1	24.0	99.0
=	0.0	184.7	24.0	99.0
=	0.0	185.2	24.0	98.9
=	0.0	185.8	24.0	98.8
=	0.0	186.4	24.0	98.7
=	0.0	187.0	24.0	98.5
=	0.0	187.6	24.0	98.5
=	0.0	188.3	24.0	98.4
=	0.0	189.1	24.0	98.3
=	0.0	189.7	24.0	98.1
=	0.0	190.3	24.0	97.9
=	0.0	191.1	24.0	97.7
=	0.0	191.7	24.0	97.5
=	0.0	192.5	24.0	97.2
=	0.0	193.1	24.0	97.0
=	0.0	193.8	24.0	96.8
=	0.0	194.4	24.0	96.4
=	0.0	195.0	24.0	96.0
=	0.0	195.6	24.0	95.6
=	0.0	196.3	24.0	95.0
=	0.0	196.8	24.0	94.4
=	0.0	197.4	24.0	93.6
=	0.0	197.9	24.0	92.8
=	0.0	198.4	24.0	91.7
=	0.0	199.0	24.0	90.2
=	0.0	199.8	24.0	88.0
=	0.0	200.3	24.0	85.9
=	0.0	200.8	24.0	83.1
=	0.0	201.5	24.0	79.0
=	0.0	202.1	24.0	75.3
=	0.0	202.8	24.0	69.5
=	0.0	203.4	24.0	64.5
=	0.0	204.0	24.0	59.7
=	0.0	204.6	24.0	54.6
=	0.0	205.1	24.0	49.9
=	0.0	205.7	24.0	45.4
=	0.0	206.3	24.0	40.1
=	0.0	207.0	24.0	35.2
=	0.0	207.6	24.0	31.6
=	0.0	208.2	24.0	28.1
=	0.0	208.8	24.0	25.0
=	0.0	209.4	24.0	22.6
=	0.0	210.0	24.0	20.8
=	0.0	210.6	24.0	19.2
=	0.0	211.3	24.0	17.9
=	0.0	211.9	24.0	17.0
=	0.0	212.4	24.0	16.3
=	0.0	213.0	24.0	15.7
=	0.0	213.6	24.0	15.2
=	0.0	214.3	24.0	14.7
=	0.0	215.0	24.0	14.3
=	0.0	215.5	24.0	14.0
=	0.0	216.1	24.0	13.7
=	0.0	216.7	24.0	13.5
=	0.0	217.3	24.0	13.3
=	0.0	218.0	24.0	13.0
=	0.0	218.8	24.0	12.8
=	0.0	219.5	24.0	12.6
=	0.0	220.2	24.0	12.5
=	0.0	220.9	24.0	12.3
=	0.0	221.4	24.0	12.2
=	0.0	222.0	24.0	12.1
=	0.0	222.7	24.0	12.0
=	0.0	223.3	24.0	11.8
=	0.0	223.9	24.0	11.7
=	0.0	224.6	24.0	11.6
=	0.0	225.2	24.0	11.5
=	0.0	225.7	24.0	11.4
=	0.0	226.4	24.0	11.3
=	0.0	227.1	24.0	11.2
=	0.0	227.6	24.0	11.1
=	0.0	228.3	24.0	11.0
=	0.0	228.9	24.0	10.9
=	0.0	229.6	24.0	10.8
=	0.0	230.2	24.0	10.7
=	0.0	230.7	24.0	10.6
=	0.0	231.3	24.0	10.6
=	0.0	231.9	24.0	10.5
=	0.0	232.7	24.0	10.4
=	0.0	233.5	24.0	10.3
=	0.0	234.2	24.0	10.1
=	0.0	234.7	24.0	10.1
=	0.0	235.2	24.0	10.0
=	0.0	235.8	24.0	9.9
=	0.0	236.3	24.0	9.9
=	0.0	236.8	24.0	9.8
=	0.0	237.4	24.0	9.7
=	0.0	238.0	24.0	9.7
=	0.0	238.5	24.0	9.6
=	0.0	239.2	24.0	9.6
=	0.0	239.8	24.0	9.5
=	0.0	240.6	24.0	9.4
=	0.0	241.2	24.0	9.3
=	0.0	241.8	24.0	9.3
=	0.0	242.4	24.0	9.2
=	0.0	243.1	24.0	9.1
=	0.0	243.9	24.0	9.1
=	0.0	244.6	24.0	9.0
=	0.0	245.3	24.0	8.9
=	0.0	246.0	24.0	8.8
=	0.0	246.7	24.0	8.8
=	0.0	247.4	24.0	8.7
=	0.0	248.1	24.0	8.6
=	0.0	248.7	24.0	8.6
=	0.0	249.2	24.0	8.5
=	0.0	249.8	24.0	8.5
=	0.0	250.5	24.0	8.4
=	0.0	251.1	24.0	8.4
=	0.0	251.6	24.0	8.3
=	0.0	252.2	24.0	8.2
=	0.0	252.8	24.0	8.2
=	0.0	253.3	24.0	8.1
=	0.0	254.0	24.0	8.1
=	0.0	254.6	24.0	8.1
=	0.0	255.2	24.0	8.0
=	0.0	256.0	24.0	8.0
=	0.0	256.7	24.0	7.9
=	0.0	257.4	24.0	7.8
=	0.0	258.0	24.0	7.8
=	0.0	258.7	24.0	7.7
=	0.0	259.2	24.0	7.7
=	0.0	259.9	24.0	7.6
=	0.0	260.5	24.0	7.6
=	0.0	261.3	24.0	7.5
=	0.0	261.8	24.0	7.5
=	0.0	262.4	24.0	7.5
=	0.0	262.9	24.0	7.4
=	0.0	263.6	24.0	7.4
=	0.0	264.3	24.0	7.4
=	0.0	265.0	24.0	7.3
=	0.0	265.8	24.0	7.3
=	0.0	266.6	24.0	7.2
=	0.0	267.4	24.0	7.1
=	0.0	268.1	24.0	7.1
=	0.0	268.7	24.0	7.1
=	0.0	269.4	24.0	7.0
=	0.0	270.1	24.0	7.0
=	0.0	270.6	24.0	7.0
=	0.0	271.2	24.0	6.9
=	0.0	271.9	24.0	6.9
=	0.0	272.4	24.0	6.8
=	0.0	273.0	24.0	6.8
=	0.0	273.9	24.0	6.8
:EOM # End of Measurement
#
# RFA300 ASCII Measurement Dump ( BDS format )
#
# Measurement number 	2
#
%VNR 1.0
%MOD 	RAT
%TYP 	SCN
%SCN 	PRO
%FLD 	ION
%DAT 	10-14-2011
%TIM 	12:00:00
%FSZ 	400	300
%BMT 	PHO	   10.0
%SSD 	1000
%BUP 	0
%BRD 	1000
%FSH 	1
%ASC 	0
%WEG 	15
%GPO 	0
%CPO 	0
%MEA 	6
%PRD 	50,0
%PTS 	921
%STS 	    0.0	  -283.1	   50.0 # Start Scan values in mm ( X , Y , Z )
%EDS 	    0.0	   282.8	   50.0 # End Scan values in mm ( X , Y , Z )
#
#	  X      Y      Z     Dose
#
=	0.0	-283.1	50.0	6.6
=	0.0	-282.5	50.0	6.6
=	0.0	-281.9	50.0	6.6
=	0.0	-281.3	50.0	6.6
=	0.0	-280.8	50.0	6.7
=	0.0	-280.3	50.0	6.7
=	0.0	-279.6	50.0	6.8
=	0.0	-279.0	50.0	6.8
=	0.0	-278.4	50.0	6.8
=	0.0	-277.6	50.0	6.9
=	0.0	-277.0	50.0	6.9
=	0.0	-276.4	50.0	6.9
=	0.0	-275.7	50.0	7.0
=	0.0	-275.1	50.0	7.0
=	0.0	-274.5	50.0	7.0
=	0.0	-273.9	50.0	7.1
=	0.0	-273.3	50.0	7.1
=	0.0	-272.7	50.0	7.2
=	0.0	-271.9	50.0	7.2
=	0.0	-271.1	50.0	7.3
=	0.0	-270.5	50.0	7.3
=	0.0	-269.8	50.0	7.4
=	0.0	-269.3	50.0	7.4
=	0.0	-268.5	50.0	7.4
=	0.0	-267.7	50.0	7.5
=	0.0	-267.1	50.0	7.6
=	0.0	-266.3	50.0	7.6
=	0.0	-265.8	50.0	7.7
=	0.0	-265.2	50.0	7.7
=	0.0	-264.6	50.0	7.7
=	0.0	-264.1	50.0	7.8
=	0.0	-263.5	50.0	7.8
=	0.0	-262.9	50.0	7.9
=	0.0	-262.2	50.0	7.9
=	0.0	-261.5	50.0	8.0
=	0.0	-260.9	50.0	8.0
=	0.0	-260.4	50.0	8.1
=	0.0	-259.8	50.0	8.1
=	0.0	-259.1	50.0	8.2
=	0.0	-258.4	50.0	8.3
=	0.0	-257.8	50.0	8.3
=	0.0	-257.2	50.0	8.4
=	0.0	-256.6	50.0	8.4
=	0.0	-256.1	50.0	8.5
=	0.0	-255.4	50.0	8.5
=	0.0	-254.9	50.0	8.6
=	0.0	-254.4	50.0	8.6
=	0.0	-253.9	50.0	8.7
=	0.0	-253.3	50.0	8.8
=	0.0	-252.6	50.0	8.8
=	0.0	-251.9	50.0	8.9
=	0.0	-251.2	50.0	8.9
=	0.0	-250.6	50.0	9.0
=	0.0	-250.0	50.0	9.1
=	0.0	-249.2	50.0	9.2
=	0.0	-248.6	50.0	9.2
=	0.0	-247.9	50.0	9.3
=	0.0	-247.2	50.0	9.4
=	0.0	-246.7	50.0	9.4
=	0.0	-246.1	50.0	9.5
=	0.0	-245.5	50.0	9.6
=	0.0	-244.8	50.0	9.6
=	0.0	-244.3	50.0	9.7
=	0.0	-243.8	50.0	9.8
=	0.0	-243.2	50.0	9.9
=	0.0	-242.4	50.0	10.0
=	0.0	-241.7	50.0	10.1
=	0.0	-241.1	50.0	10.1
=	0.0	-240.4	50.0	10.2
=	0.0	-239.8	50.0	10.3
=	0.0	-239.2	50.0	10.4
=	0.0	-238.6	50.0	10.5
=	0.0	-237.9	50.0	10.6
=	0.0	-237.0	50.0	10.7
=	0.0	-236.4	50.0	10.8
=	0.0	-235.7	50.0	10.9
=	0.0	-235.2	50.0	11.0
=	0.0	-234.6	50.0	11.1
=	0.0	-234.0	50.0	11.2
=	0.0	-233.2	50.0	11.3
=	0.0	-232.4	50.0	11.5
=	0.0	-231.8	50.0	11.6
=	0.0	-231.2	50.0	11.7
=	0.0	-230.4	50.0	11.8
=	0.0	-229.8	50.0	12.0
=	0.0	-229.1	50.0	12.1
=	0.0	-228.5	50.0	12.2
=	0.0	-227.8	50.0	12.4
=	0.0	-227.1	50.0	12.6
=	0.0	-226.5	50.0	12.7
=	0.0	-225.9	50.0	12.8
=	0.0	-225.3	50.0	13.0
=	0.0	-224.7	50.0	13.1
=	0.0	-224.0	50.0	13.3
=	0.0	-223.3	50.0	13.5
=	0.0	-222.7	50.0	13.8
=	0.0	-222.0	50.0	14.0
=	0.0	-221.5	50.0	14.2
=	0.0	-220.8	50.0	14.6
=	0.0	-220.1	50.0	15.0
=	0.0	-219.4	50.0	15.4
=	0.0	-218.8	50.0	15.9
=	0.0	-218.4	50.0	16.3
=	0.0	-217.7	50.0	17.0
=	0.0	-217.2	50.0	17.6
=	0.0	-216.5	50.0	18.6
=	0.0	-215.9	50.0	19.7
=	0.0	-215.2	50.0	21.4
=	0.0	-214.5	50.0	23.2
=	0.0	-213.9	50.0	25.5
=	0.0	-213.3	50.0	28.2
=	0.0	-212.6	50.0	32.0
=	0.0	-212.1	50.0	35.0
=	0.0	-211.6	50.0	38.3
=	0.0	-211.0	50.0	42.3
=	0.0	-210.3	50.0	47.5
=	0.0	-209.7	50.0	52.6
=	0.0	-209.1	50.0	57.5
=	0.0	-208.3	50.0	64.2
=	0.0	-207.7	50.0	69.1
=	0.0	-207.1	50.0	72.8
=	0.0	-206.5	50.0	77.0
=	0.0	-205.9	50.0	80.1
=	0.0	-205.4	50.0	82.5
=	0.0	-204.9	50.0	84.4
=	0.0	-204.3	50.0	86.4
=	0.0	-203.7	50.0	88.2
=	0.0	-203.1	50.0	89.4
=	0.0	-202.5	50.0	90.5
=	0.0	-201.9	50.0	91.2
=	0.0	-201.3	50.0	91.9
=	0.0	-200.8	50.0	92.5
=	0.0	-200.2	50.0	93.0
=	0.0	-199.6	50.0	93.4
=	0.0	-199.0	50.0	93.9
=	0.0	-198.4	50.0	94.2
=	0.0	-197.8	50.0	94.5
=	0.0	-197.2	50.0	94.8
=	0.0	-196.5	50.0	95.1
=	0.0	-195.8	50.0	95.4
=	0.0	-195.2	50.0	95.5
=	0.0	-194.5	50.0	95.7
=	0.0	-193.9	50.0	96.0
=	0.0	-193.3	50.0	96.1
=	0.0	-192.5	50.0	96.3
=	0.0	-191.8	50.0	96.4
=	0.0	-191.2	50.0	96.5
=	0.0	-190.5	50.0	96.7
=	0.0	-189.7	50.0	96.9
=	0.0	-189.0	50.0	97.0
=	0.0	-188.3	50.0	97.1
=	0.0	-187.7	50.0	97.1
=	0.0	-187.1	50.0	97.2
=	0.0	-186.3	50.0	97.3
=	0.0	-185.8	50.0	97.4
=	0.0	-185.2	50.0	97.5
=	0.0	-184.6	50.0	97.5
=	0.0	-183.9	50.0	97.6
=	0.0	-183.4	50.0	97.7
=	0.0	-182.7	50.0	97.8
=	0.0	-182.2	50.0	97.9
=	0.0	-181.6	50.0	97.9
=	0.0	-181.0	50.0	98.0
=	0.0	-180.4	50.0	98.0
=	0.0	-179.9	50.0	98.1
=	0.0	-179.3	50.0	98.1
=	0.0	-178.7	50.0	98.1
=	0.0	-178.1	50.0	98.2
=	0.0	-177.6	50.0	98.2
=	0.0	-177.0	50.0	98.3
=	0.0	-176.5	50.0	98.3
=	0.0	-176.0	50.0	98.3
=	0.0	-175.4	50.0	98.4
=	0.0	-174.9	50.0	98.4
=	0.0	-174.3	50.0	98.4
=	0.0	-173.7	50.0	98.5
=	0.0	-173.1	50.0	98.5
=	0.0	-172.5	50.0	98.5
=	0.0	-172.0	50.0	98.6
=	0.0	-171.5	50.0	98.6
=	0.0	-170.9	50.0	98.6
=	0.0	-170.3	50.0	98.6
=	0.0	-169.7	50.0	98.6
=	0.0	-169.1	50.0	98.7
=	0.0	-168.4	50.0	98.7
=	0.0	-167.8	50.0	98.8
=	0.0	-167.2	50.0	98.8
=	0.0	-166.5	50.0	98.8
=	0.0	-165.7	50.0	98.8
=	0.0	-165.2	50.0	98.9
=	0.0	-164.5	50.0	98.9
=	0.0	-163.9	50.0	98.9
=	0.0	-163.3	50.0	98.9
=	0.0	-162.7	50.0	99.0
=	0.0	-162.1	50.0	99.0
=	0.0	-161.5	50.0	99.0
=	0.0	-160.9	50.0	99.0
=	0.0	-160.3	50.0	99.0
=	0.0	-159.8	50.0	99.1
=	0.0	-159.2	50.0	99.1
=	0.0	-158.5	50.0	99.1
=	0.0	-157.7	50.0	99.1
=	0.0	-157.0	50.0	99.2
=	0.0	-156.4	50.0	99.2
=	0.0	-155.8	50.0	99.2
=	0.0	-155.2	50.0	99.2
=	0.0	-154.7	50.0	99.2
=	0.0	-153.9	50.0	99.3
=	0.0	-153.3	50.0	99.3
=	0.0	-152.6	50.0	99.3
=	0.0	-152.0	50.0	99.4
=	0.0	-151.4	50.0	99.4
=	0.0	-150.8	50.0	99.4
=	0.0	-150.1	50.0	99.4
=	0.0	-149.5	50.0	99.5
=	0.0	-148.9	50.0	99.5
=	0.0	-148.3	50.0	99.5
=	0.0	-147.6	50.0	99.5
=	0.0	-147.1	50.0	99.6
=	0.0	-146.5	50.0	99.6
=	0.0	-145.8	50.0	99.6
=	0.0	-145.2	50.0	99.6
=	0.0	-144.6	50.0	99.6
=	0.0	-144.1	50.0	99.6
=	0.0	-143.6	50.0	99.7
=	0.0	-143.0	50.0	99.7
=	0.0	-142.4	50.0	99.7
=	0.0	-141.8	50.0	99.7
=	0.0	-141.1	50.0	99.8
=	0.0	-140.4	50.0	99.8
=	0.0	-139.9	50.0	99.8
=	0.0	-139.3	50.0	99.8
=	0.0	-138.8	50.0	99.8
=	0.0	-138.1	50.0	99.9
=	0.0	-137.6	50.0	99.9
=	0.0	-137.1	50.0	99.9
=	0.0	-136.5	50.0	99.9
=	0.0	-136.0	50.0	99.9
=	0.0	-135.5	50.0	99.9
=	0.0	-134.9	50.0	100.0
=	0.0	-134.3	50.0	100.0
=	0.0	-133.8	50.0	100.0
=	0.0	-133.1	50.0	100.1
=	0.0	-132.5	50.0	100.1
=	0.0	-131.9	50.0	100.1
=	0.0	-131.3	50.0	100.1
=	0.0	-130.6	50.0	100.2
=	0.0	-130.1	50.0	100.2
=	0.0	-129.5	50.0	100.2
=	0.0	-128.8	50.0	100.3
=	0.0	-128.2	50.0	100.3
=	0.0	-127.7	50.0	100.3
=	0.0	-127.1	50.0	100.3
=	0.0	-126.6	50.0	100.4
=	0.0	-126.1	50.0	100.4
=	0.0	-125.6	50.0	100.4
=	0.0	-125.0	50.0	100.4
=	0.0	-124.3	50.0	100.4
=	0.0	-123.7	50.0	100.4
=	0.0	-123.1	50.0	100.4
=	0.0	-122.5	50.0	100.4
=	0.0	-121.7	50.0	100.5
=	0.0	-121.0	50.0	100.5
=	0.0	-120.4	50.0	100.5
=	0.0	-119.9	50.0	100.6
=	0.0	-119.3	50.0	100.6
=	0.0	-118.8	50.0	100.6
=	0.0	-118.2	50.0	100.6
=	0.0	-117.6	50.0	100.6
=	0.0	-116.9	50.0	100.7
=	0.0	-116.3	50.0	100.7
=	0.0	-115.7	50.0	100.7
=	0.0	-115.1	50.0	100.7
=	0.0	-114.6	50.0	100.7
=	0.0	-114.1	50.0	100.8
=	0.0	-113.5	50.0	100.8
=	0.0	-112.9	50.0	100.8
=	0.0	-112.2	50.0	100.8
=	0.0	-111.5	50.0	100.8
=	0.0	-110.9	50.0	100.8
=	0.0	-110.3	50.0	100.8
=	0.0	-109.6	50.0	100.9
=	0.0	-109.0	50.0	100.9
=	0.0	-108.3	50.0	100.9
=	0.0	-107.6	50.0	100.9
=	0.0	-107.2	50.0	100.9
=	0.0	-106.5	50.0	100.9
=	0.0	-105.8	50.0	100.9
=	0.0	-105.0	50.0	101.0
=	0.0	-104.3	50.0	101.0
=	0.0	-103.7	50.0	101.0
=	0.0	-103.1	50.0	101.0
=	0.0	-102.5	50.0	101.1
=	0.0	-101.9	50.0	101.1
=	0.0	-101.1	50.0	101.1
=	0.0	-100.3	50.0	101.1
=	0.0	-99.7	50.0	101.1
=	0.0	-99.1	50.0	101.1
=	0.0	-98.5	50.0	101.1
=	0.0	-97.9	50.0	101.1
=	0.0	-97.1	50.0	101.1
=	0.0	-96.5	50.0	101.1
=	0.0	-95.9	50.0	101.1
=	0.0	-95.3	50.0	101.2
=	0.0	-94.7	50.0	101.2
=	0.0	-94.1	50.0	101.2
=	0.0	-93.6	50.0	101.2
=	0.0	-92.9	50.0	101.2
=	0.0	-92.2	50.0	101.2
=	0.0	-91.6	50.0	101.2
=	0.0	-90.9	50.0	101.3
=	0.0	-90.4	50.0	101.3
=	0.0	-89.7	50.0	101.3
=	0.0	-89.0	50.0	101.3
=	0.0	-88.4	50.0	101.3
=	0.0	-87.8	50.0	101.3
=	0.0	-87.3	50.0	101.4
=	0.0	-86.8	50.0	101.3
=	0.0	-86.1	50.0	101.3
=	0.0	-85.6	50.0	101.3
=	0.0	-85.0	50.0	101.4
=	0.0	-84.4	50.0	101.4
=	0.0	-83.8	50.0	101.4
=	0.0	-83.3	50.0	101.4
=	0.0	-82.7	50.0	101.4
=	0.0	-82.0	50.0	101.4
=	0.0	-81.4	50.0	101.4
=	0.0	-80.7	50.0	101.5
=	0.0	-80.1	50.0	101.5
=	0.0	-79.4	50.0	101.5
=	0.0	-78.8	50.0	101.5
=	0.0	-78.3	50.0	101.5
=	0.0	-77.9	50.0	101.5
=	0.0	-77.4	50.0	101.5
=	0.0	-76.8	50.0	101.5
=	0.0	-76.2	50.0	101.5
=	0.0	-75.6	50.0	101.5
=	0.0	-75.0	50.0	101.5
=	0.0	-74.2	50.0	101.5
=	0.0	-73.7	50.0	101.5
=	0.0	-73.0	50.0	101.5
=	0.0	-72.3	50.0	101.5
=	0.0	-71.8	50.0	101.5
=	0.0	-71.2	50.0	101.5
=	0.0	-70.7	50.0	101.5
=	0.0	-70.0	50.0	101.5
=	0.0	-69.3	50.0	101.5
=	0.0	-68.7	50.0	101.5
=	0.0	-68.1	50.0	101.5
=	0.0	-67.5	50.0	101.5
=	0.0	-66.9	50.0	101.5
=	0.0	-66.3	50.0	101.5
=	0.0	-65.7	50.0	101.5
=	0.0	-65.1	50.0	101.5
=	0.0	-64.4	50.0	101.5
=	0.0	-63.8	50.0	101.5
=	0.0	-63.2	50.0	101.5
=	0.0	-62.6	50.0	101.6
=	0.0	-62.0	50.0	101.6
=	0.0	-61.5	50.0	101.6
=	0.0	-60.9	50.0	101.6
=	0.0	-60.3	50.0	101.6
=	0.0	-59.7	50.0	101.6
=	0.0	-59.0	50.0	101.6
=	0.0	-58.2	50.0	101.6
=	0.0	-57.7	50.0	101.6
=	0.0	-57.0	50.0	101.5
=	0.0	-56.4	50.0	101.5
=	0.0	-55.9	50.0	101.5
=	0.0	-55.4	50.0	101.5
=	0.0	-54.8	50.0	101.5
=	0.0	-54.2	50.0	101.5
=	0.0	-53.5	50.0	101.5
=	0.0	-52.9	50.0	101.5
=	0.0	-52.3	50.0	101.5
=	0.0	-51.6	50.0	101.5
=	0.0	-51.0	50.0	101.4
