:MSR 	5	 # No. of measurement in file
:SYS BDS 0   # Beam Data Scanner System
#
# RFA300 ASCII Measurement Dump ( BDS format )
#
# Measurement number 	1
#
%VNR 1.0
%MOD 	RAT
%TYP 	SCN
%SCN 	DPT
%FLD 	ION
%DAT 	09-21-2011
%TIM 	12:00:00
%FSZ 	040	040
%BMT 	PHO	   10.0
%SSD 	1000
%BUP 	0
%BRD 	1000
%FSH 	1
%ASC 	0
%WEG 	15
%GPO 	0
%CPO 	0
%MEA 	5
%PRD 	0,0
%PTS 	729
%STS 	    0.0	  0.0	   0.0 # Start Scan values in mm ( X , Y , Z )
%EDS 	    0.0	   0.0	   347.3 # End Scan values in mm ( X , Y , Z )
#
#	  X      Y      Z     Dose
#
=	0.0	0.0	0.0	28.0
=	0.0	0.0	0.5	29.4
=	0.0	0.0	0.9	30.9
=	0.0	0.0	1.3	32.9
=	0.0	0.0	1.8	35.4
=	0.0	0.0	2.2	38.6
=	0.0	0.0	2.7	44.1
=	0.0	0.0	3.3	48.7
=	0.0	0.0	3.7	52.4
=	0.0	0.0	4.2	56.2
=	0.0	0.0	4.6	59.6
=	0.0	0.0	5.0	61.6
=	0.0	0.0	5.4	64.4
=	0.0	0.0	5.8	67.1
=	0.0	0.0	6.4	70.3
=	0.0	0.0	6.8	72.5
=	0.0	0.0	7.2	74.3
=	0.0	0.0	7.8	76.8
=	0.0	0.0	8.3	78.9
=	0.0	0.0	8.7	80.3
=	0.0	0.0	9.0	81.6
=	0.0	0.0	9.4	82.8
=	0.0	0.0	9.8	84.1
=	0.0	0.0	10.2	85.4
=	0.0	0.0	10.6	86.6
=	0.0	0.0	11.1	87.9
=	0.0	0.0	11.4	88.6
=	0.0	0.0	11.8	89.6
=	0.0	0.0	12.3	90.5
=	0.0	0.0	12.8	91.5
=	0.0	0.0	13.4	92.8
=	0.0	0.0	13.8	93.4
=	0.0	0.0	14.3	94.1
=	0.0	0.0	14.7	94.6
=	0.0	0.0	15.3	95.2
=	0.0	0.0	15.7	96.0
=	0.0	0.0	16.1	96.3
=	0.0	0.0	16.5	96.6
=	0.0	0.0	16.8	97.1
=	0.0	0.0	17.3	97.6
=	0.0	0.0	17.9	98.0
=	0.0	0.0	18.3	98.3
=	0.0	0.0	18.6	98.5
=	0.0	0.0	19.0	98.8
=	0.0	0.0	19.5	99.0
=	0.0	0.0	20.0	99.2
=	0.0	0.0	20.4	99.4
=	0.0	0.0	20.8	99.5
=	0.0	0.0	21.2	99.6
=	0.0	0.0	21.7	99.7
=	0.0	0.0	22.2	99.8
=	0.0	0.0	22.6	99.9
=	0.0	0.0	23.2	99.9
=	0.0	0.0	23.7	100.0
=	0.0	0.0	24.1	100.0
=	0.0	0.0	24.5	100.0
=	0.0	0.0	25.0	100.0
=	0.0	0.0	25.5	100.0
=	0.0	0.0	25.9	100.0
=	0.0	0.0	26.4	99.9
=	0.0	0.0	26.8	99.9
=	0.0	0.0	27.3	99.8
=	0.0	0.0	27.7	99.8
=	0.0	0.0	28.3	99.6
=	0.0	0.0	28.9	99.5
=	0.0	0.0	29.5	99.3
=	0.0	0.0	29.8	99.2
=	0.0	0.0	30.2	99.1
=	0.0	0.0	30.7	99.0
=	0.0	0.0	31.3	98.8
=	0.0	0.0	31.8	98.6
=	0.0	0.0	32.2	98.5
=	0.0	0.0	32.6	98.4
=	0.0	0.0	33.1	98.2
=	0.0	0.0	33.6	98.0
=	0.0	0.0	34.0	97.9
=	0.0	0.0	34.4	97.7
=	0.0	0.0	35.0	97.6
=	0.0	0.0	35.6	97.4
=	0.0	0.0	36.0	97.1
=	0.0	0.0	36.4	97.0
=	0.0	0.0	37.0	96.8
=	0.0	0.0	37.6	96.5
=	0.0	0.0	38.0	96.3
=	0.0	0.0	38.4	96.1
=	0.0	0.0	38.9	95.9
=	0.0	0.0	39.4	95.8
=	0.0	0.0	39.8	95.5
=	0.0	0.0	40.2	95.4
=	0.0	0.0	40.6	95.3
=	0.0	0.0	41.0	95.1
=	0.0	0.0	41.5	95.0
=	0.0	0.0	42.0	94.7
=	0.0	0.0	42.4	94.5
=	0.0	0.0	42.8	94.4
=	0.0	0.0	43.2	94.3
=	0.0	0.0	43.7	94.0
=	0.0	0.0	44.2	93.7
=	0.0	0.0	44.7	93.5
=	0.0	0.0	45.2	93.3
=	0.0	0.0	45.7	93.1
=	0.0	0.0	46.1	93.0
=	0.0	0.0	46.6	92.8
=	0.0	0.0	47.1	92.5
=	0.0	0.0	47.5	92.3
=	0.0	0.0	48.0	92.0
=	0.0	0.0	48.6	91.7
=	0.0	0.0	49.2	91.6
=	0.0	0.0	49.7	91.3
=	0.0	0.0	50.1	91.1
=	0.0	0.0	50.6	90.8
=	0.0	0.0	51.0	90.7
=	0.0	0.0	51.5	90.6
=	0.0	0.0	51.9	90.4
=	0.0	0.0	52.5	90.2
=	0.0	0.0	53.2	89.9
=	0.0	0.0	53.8	89.6
=	0.0	0.0	54.3	89.3
=	0.0	0.0	54.7	89.1
=	0.0	0.0	55.1	88.9
=	0.0	0.0	55.5	88.7
=	0.0	0.0	55.9	88.5
=	0.0	0.0	56.5	88.3
=	0.0	0.0	57.0	88.1
=	0.0	0.0	57.5	87.9
=	0.0	0.0	57.9	87.8
=	0.0	0.0	58.4	87.6
=	0.0	0.0	58.8	87.4
=	0.0	0.0	59.3	87.2
=	0.0	0.0	59.7	87.0
=	0.0	0.0	60.1	86.9
=	0.0	0.0	60.5	86.8
=	0.0	0.0	60.9	86.5
=	0.0	0.0	61.4	86.3
=	0.0	0.0	62.0	85.9
=	0.0	0.0	62.6	85.7
=	0.0	0.0	63.0	85.6
=	0.0	0.0	63.6	85.3
=	0.0	0.0	64.0	85.2
=	0.0	0.0	64.4	85.0
=	0.0	0.0	64.8	84.9
=	0.0	0.0	65.2	84.7
=	0.0	0.0	65.5	84.5
=	0.0	0.0	65.9	84.5
=	0.0	0.0	66.3	84.3
=	0.0	0.0	66.7	84.2
=	0.0	0.0	67.1	84.0
=	0.0	0.0	67.7	83.8
=	0.0	0.0	68.2	83.6
=	0.0	0.0	68.7	83.4
=	0.0	0.0	69.2	83.2
=	0.0	0.0	69.8	82.9
=	0.0	0.0	70.3	82.7
=	0.0	0.0	70.7	82.6
=	0.0	0.0	71.1	82.4
=	0.0	0.0	71.6	82.2
=	0.0	0.0	72.1	82.0
=	0.0	0.0	72.6	81.9
=	0.0	0.0	73.1	81.7
=	0.0	0.0	73.6	81.5
=	0.0	0.0	74.1	81.2
=	0.0	0.0	74.5	81.1
=	0.0	0.0	74.9	80.9
=	0.0	0.0	75.4	80.8
=	0.0	0.0	76.0	80.7
=	0.0	0.0	76.6	80.4
=	0.0	0.0	77.1	80.1
=	0.0	0.0	77.7	79.8
=	0.0	0.0	78.3	79.6
=	0.0	0.0	78.9	79.4
=	0.0	0.0	79.5	79.2
=	0.0	0.0	79.9	79.1
=	0.0	0.0	80.4	78.8
=	0.0	0.0	81.0	78.7
=	0.0	0.0	81.5	78.4
=	0.0	0.0	81.9	78.2
=	0.0	0.0	82.4	78.0
=	0.0	0.0	82.8	77.9
=	0.0	0.0	83.2	77.8
=	0.0	0.0	83.6	77.6
=	0.0	0.0	84.0	77.4
=	0.0	0.0	84.4	77.2
=	0.0	0.0	84.8	77.0
=	0.0	0.0	85.3	76.8
=	0.0	0.0	85.8	76.6
=	0.0	0.0	86.3	76.5
=	0.0	0.0	86.8	76.3
=	0.0	0.0	87.3	76.2
=	0.0	0.0	87.8	76.0
=	0.0	0.0	88.4	75.8
=	0.0	0.0	88.9	75.5
=	0.0	0.0	89.3	75.2
=	0.0	0.0	89.7	75.1
=	0.0	0.0	90.1	75.0
=	0.0	0.0	90.7	74.8
=	0.0	0.0	91.1	74.7
=	0.0	0.0	91.6	74.5
=	0.0	0.0	92.1	74.4
=	0.0	0.0	92.5	74.2
=	0.0	0.0	92.9	74.1
=	0.0	0.0	93.2	73.9
=	0.0	0.0	93.7	73.7
=	0.0	0.0	94.1	73.6
=	0.0	0.0	94.5	73.5
=	0.0	0.0	95.0	73.3
=	0.0	0.0	95.4	73.1
=	0.0	0.0	95.8	72.9
=	0.0	0.0	96.4	72.7
=	0.0	0.0	96.9	72.5
=	0.0	0.0	97.4	72.4
=	0.0	0.0	98.0	72.2
=	0.0	0.0	98.4	72.0
=	0.0	0.0	98.7	71.8
=	0.0	0.0	99.1	71.7
=	0.0	0.0	99.4	71.5
=	0.0	0.0	99.9	71.4
=	0.0	0.0	100.4	71.3
=	0.0	0.0	100.8	71.1
=	0.0	0.0	101.2	71.0
=	0.0	0.0	101.6	70.9
=	0.0	0.0	102.1	70.7
=	0.0	0.0	102.5	70.5
=	0.0	0.0	102.9	70.4
=	0.0	0.0	103.3	70.2
=	0.0	0.0	103.9	70.1
=	0.0	0.0	104.4	70.0
=	0.0	0.0	104.8	69.8
=	0.0	0.0	105.3	69.5
=	0.0	0.0	105.8	69.4
=	0.0	0.0	106.2	69.2
=	0.0	0.0	106.7	69.1
=	0.0	0.0	107.0	69.0
=	0.0	0.0	107.4	68.9
=	0.0	0.0	107.9	68.7
=	0.0	0.0	108.3	68.5
=	0.0	0.0	108.6	68.4
=	0.0	0.0	108.9	68.2
=	0.0	0.0	109.4	68.1
=	0.0	0.0	109.9	67.9
=	0.0	0.0	110.4	67.8
=	0.0	0.0	110.9	67.7
=	0.0	0.0	111.5	67.5
=	0.0	0.0	112.1	67.2
=	0.0	0.0	112.8	67.0
=	0.0	0.0	113.4	66.8
=	0.0	0.0	113.8	66.7
=	0.0	0.0	114.2	66.5
=	0.0	0.0	114.6	66.3
=	0.0	0.0	115.1	66.2
=	0.0	0.0	115.7	66.1
=	0.0	0.0	116.3	65.9
=	0.0	0.0	116.8	65.7
=	0.0	0.0	117.3	65.6
=	0.0	0.0	117.7	65.4
=	0.0	0.0	118.0	65.2
=	0.0	0.0	118.5	65.1
=	0.0	0.0	118.9	65.0
=	0.0	0.0	119.4	64.9
=	0.0	0.0	119.8	64.7
=	0.0	0.0	120.3	64.5
=	0.0	0.0	120.7	64.4
=	0.0	0.0	121.1	64.3
=	0.0	0.0	121.5	64.2
=	0.0	0.0	121.9	64.0
=	0.0	0.0	122.5	63.8
=	0.0	0.0	123.0	63.7
=	0.0	0.0	123.5	63.6
=	0.0	0.0	124.0	63.5
=	0.0	0.0	124.4	63.2
=	0.0	0.0	125.0	63.0
=	0.0	0.0	125.4	62.9
=	0.0	0.0	125.8	62.8
=	0.0	0.0	126.3	62.7
=	0.0	0.0	126.9	62.4
=	0.0	0.0	127.4	62.4
=	0.0	0.0	127.8	62.3
=	0.0	0.0	128.3	62.2
=	0.0	0.0	128.7	62.0
=	0.0	0.0	129.1	61.8
=	0.0	0.0	129.5	61.7
=	0.0	0.0	130.0	61.5
=	0.0	0.0	130.4	61.4
=	0.0	0.0	130.8	61.3
=	0.0	0.0	131.2	61.2
=	0.0	0.0	131.6	61.0
=	0.0	0.0	132.0	60.9
=	0.0	0.0	132.4	60.8
=	0.0	0.0	132.9	60.6
=	0.0	0.0	133.3	60.4
=	0.0	0.0	133.7	60.2
=	0.0	0.0	134.1	60.2
=	0.0	0.0	134.5	60.1
=	0.0	0.0	135.1	59.9
=	0.0	0.0	135.4	59.9
=	0.0	0.0	135.7	59.8
=	0.0	0.0	136.1	59.7
=	0.0	0.0	136.6	59.6
=	0.0	0.0	137.0	59.4
=	0.0	0.0	137.4	59.4
=	0.0	0.0	137.8	59.3
=	0.0	0.0	138.1	59.1
=	0.0	0.0	138.5	58.9
=	0.0	0.0	138.9	58.8
=	0.0	0.0	139.4	58.7
=	0.0	0.0	139.9	58.5
=	0.0	0.0	140.3	58.4
=	0.0	0.0	140.9	58.3
=	0.0	0.0	141.5	58.0
=	0.0	0.0	141.9	57.9
=	0.0	0.0	142.3	57.8
=	0.0	0.0	142.8	57.7
=	0.0	0.0	143.2	57.6
=	0.0	0.0	143.6	57.5
=	0.0	0.0	143.9	57.4
=	0.0	0.0	144.4	57.3
=	0.0	0.0	144.9	57.2
=	0.0	0.0	145.5	57.0
=	0.0	0.0	146.0	56.7
=	0.0	0.0	146.6	56.6
=	0.0	0.0	147.2	56.5
=	0.0	0.0	147.8	56.4
=	0.0	0.0	148.2	56.2
=	0.0	0.0	148.8	56.0
=	0.0	0.0	149.3	55.9
=	0.0	0.0	149.8	55.7
=	0.0	0.0	150.3	55.6
=	0.0	0.0	150.9	55.5
=	0.0	0.0	151.4	55.2
=	0.0	0.0	151.9	55.1
=	0.0	0.0	152.5	55.0
=	0.0	0.0	153.2	54.9
=	0.0	0.0	153.8	54.8
=	0.0	0.0	154.3	54.6
=	0.0	0.0	154.8	54.4
=	0.0	0.0	155.4	54.3
=	0.0	0.0	156.0	54.1
=	0.0	0.0	156.5	54.0
=	0.0	0.0	156.8	53.9
=	0.0	0.0	157.2	53.7
=	0.0	0.0	157.8	53.6
=	0.0	0.0	158.2	53.5
=	0.0	0.0	158.6	53.3
=	0.0	0.0	159.1	53.2
=	0.0	0.0	159.6	53.1
=	0.0	0.0	160.2	53.0
=	0.0	0.0	160.6	52.9
=	0.0	0.0	161.0	52.8
=	0.0	0.0	161.5	52.7
=	0.0	0.0	162.0	52.5
=	0.0	0.0	162.6	52.4
=	0.0	0.0	163.2	52.2
=	0.0	0.0	163.7	52.1
=	0.0	0.0	164.2	51.9
=	0.0	0.0	164.9	51.8
=	0.0	0.0	165.4	51.7
=	0.0	0.0	165.8	51.6
=	0.0	0.0	166.3	51.4
=	0.0	0.0	166.8	51.3
=	0.0	0.0	167.3	51.2
=	0.0	0.0	167.7	51.1
=	0.0	0.0	168.3	50.9
=	0.0	0.0	168.8	50.7
=	0.0	0.0	169.3	50.5
=	0.0	0.0	169.7	50.4
=	0.0	0.0	170.3	50.3
=	0.0	0.0	170.9	50.3
=	0.0	0.0	171.4	50.2
=	0.0	0.0	172.0	50.0
=	0.0	0.0	172.6	49.9
=	0.0	0.0	173.1	49.7
=	0.0	0.0	173.5	49.6
=	0.0	0.0	173.9	49.5
=	0.0	0.0	174.3	49.4
=	0.0	0.0	174.7	49.4
=	0.0	0.0	175.1	49.3
=	0.0	0.0	175.6	49.2
=	0.0	0.0	176.1	49.0
=	0.0	0.0	176.7	48.9
=	0.0	0.0	177.2	48.7
=	0.0	0.0	177.7	48.6
=	0.0	0.0	178.1	48.6
=	0.0	0.0	178.6	48.5
=	0.0	0.0	179.0	48.4
=	0.0	0.0	179.6	48.3
=	0.0	0.0	180.0	48.2
=	0.0	0.0	180.4	48.1
=	0.0	0.0	180.8	47.9
=	0.0	0.0	181.2	47.8
=	0.0	0.0	181.5	47.7
=	0.0	0.0	181.9	47.7
=	0.0	0.0	182.3	47.6
=	0.0	0.0	182.7	47.5
=	0.0	0.0	183.2	47.4
=	0.0	0.0	183.7	47.3
=	0.0	0.0	184.1	47.2
=	0.0	0.0	184.5	47.1
=	0.0	0.0	184.9	47.0
=	0.0	0.0	185.3	46.9
=	0.0	0.0	185.9	46.7
=	0.0	0.0	186.5	46.6
=	0.0	0.0	186.9	46.5
=	0.0	0.0	187.5	46.4
=	0.0	0.0	187.9	46.3
=	0.0	0.0	188.3	46.3
=	0.0	0.0	188.8	46.1
=	0.0	0.0	189.4	45.9
=	0.0	0.0	189.9	45.8
=	0.0	0.0	190.3	45.7
=	0.0	0.0	190.7	45.6
=	0.0	0.0	191.2	45.5
=	0.0	0.0	191.6	45.5
=	0.0	0.0	192.1	45.3
=	0.0	0.0	192.5	45.2
=	0.0	0.0	193.1	45.1
=	0.0	0.0	193.5	45.0
=	0.0	0.0	194.0	44.9
=	0.0	0.0	194.5	44.7
=	0.0	0.0	195.0	44.7
=	0.0	0.0	195.3	44.6
=	0.0	0.0	195.8	44.5
=	0.0	0.0	196.2	44.5
=	0.0	0.0	196.6	44.4
=	0.0	0.0	197.0	44.3
=	0.0	0.0	197.6	44.1
=	0.0	0.0	198.2	44.0
=	0.0	0.0	198.7	43.8
=	0.0	0.0	199.2	43.7
=	0.0	0.0	199.6	43.6
=	0.0	0.0	200.0	43.5
=	0.0	0.0	200.4	43.5
=	0.0	0.0	200.9	43.4
=	0.0	0.0	201.3	43.3
=	0.0	0.0	201.8	43.2
=	0.0	0.0	202.3	43.1
=	0.0	0.0	202.8	43.1
=	0.0	0.0	203.3	42.9
=	0.0	0.0	203.8	42.8
=	0.0	0.0	204.2	42.7
=	0.0	0.0	204.7	42.7
=	0.0	0.0	205.1	42.6
=	0.0	0.0	205.7	42.5
=	0.0	0.0	206.2	42.4
=	0.0	0.0	206.7	42.2
=	0.0	0.0	207.3	42.1
=	0.0	0.0	208.0	42.0
=	0.0	0.0	208.5	41.8
=	0.0	0.0	209.0	41.7
=	0.0	0.0	209.3	41.7
=	0.0	0.0	209.7	41.6
=	0.0	0.0	210.2	41.5
=	0.0	0.0	210.6	41.4
=	0.0	0.0	211.3	41.3
=	0.0	0.0	211.9	41.1
=	0.0	0.0	212.5	41.0
=	0.0	0.0	213.0	40.9
=	0.0	0.0	213.4	40.8
=	0.0	0.0	213.9	40.7
=	0.0	0.0	214.4	40.6
=	0.0	0.0	214.8	40.5
=	0.0	0.0	215.2	40.5
=	0.0	0.0	215.8	40.4
=	0.0	0.0	216.3	40.3
=	0.0	0.0	216.6	40.3
=	0.0	0.0	217.1	40.1
=	0.0	0.0	217.5	40.1
=	0.0	0.0	218.0	40.0
=	0.0	0.0	218.6	39.9
=	0.0	0.0	219.0	39.7
=	0.0	0.0	219.5	39.7
=	0.0	0.0	220.0	39.6
=	0.0	0.0	220.5	39.5
=	0.0	0.0	220.9	39.4
=	0.0	0.0	221.5	39.3
=	0.0	0.0	221.9	39.2
=	0.0	0.0	222.5	39.1
=	0.0	0.0	222.9	39.0
=	0.0	0.0	223.5	38.9
=	0.0	0.0	224.0	38.9
=	0.0	0.0	224.5	38.7
=	0.0	0.0	225.1	38.7
=	0.0	0.0	225.7	38.6
=	0.0	0.0	226.1	38.5
=	0.0	0.0	226.6	38.4
=	0.0	0.0	227.0	38.3
=	0.0	0.0	227.6	38.2
=	0.0	0.0	228.2	38.1
=	0.0	0.0	228.8	38.0
=	0.0	0.0	229.4	37.9
=	0.0	0.0	230.0	37.8
=	0.0	0.0	230.6	37.6
=	0.0	0.0	231.0	37.5
=	0.0	0.0	231.5	37.4
=	0.0	0.0	231.8	37.3
=	0.0	0.0	232.3	37.3
=	0.0	0.0	232.8	37.2
=	0.0	0.0	233.3	37.1
=	0.0	0.0	233.9	37.0
=	0.0	0.0	234.4	37.0
=	0.0	0.0	234.8	36.9
=	0.0	0.0	235.3	36.8
=	0.0	0.0	235.6	36.7
=	0.0	0.0	236.2	36.6
=	0.0	0.0	236.7	36.5
=	0.0	0.0	237.2	36.4
=	0.0	0.0	237.7	36.4
=	0.0	0.0	238.1	36.3
=	0.0	0.0	238.6	36.2
=	0.0	0.0	239.2	36.1
=	0.0	0.0	239.7	36.0
=	0.0	0.0	240.1	35.9
=	0.0	0.0	240.6	35.8
=	0.0	0.0	241.1	35.7
=	0.0	0.0	241.5	35.6
=	0.0	0.0	242.0	35.5
=	0.0	0.0	242.4	35.4
=	0.0	0.0	243.0	35.4
=	0.0	0.0	243.5	35.3
=	0.0	0.0	244.0	35.2
=	0.0	0.0	244.5	35.1
=	0.0	0.0	245.0	35.1
=	0.0	0.0	245.4	35.0
=	0.0	0.0	245.9	34.9
=	0.0	0.0	246.4	34.8
=	0.0	0.0	246.8	34.7
=	0.0	0.0	247.4	34.6
=	0.0	0.0	247.9	34.6
=	0.0	0.0	248.4	34.5
=	0.0	0.0	248.9	34.4
=	0.0	0.0	249.5	34.3
=	0.0	0.0	249.9	34.2
=	0.0	0.0	250.4	34.2
=	0.0	0.0	250.9	34.1
=	0.0	0.0	251.4	34.0
=	0.0	0.0	251.8	34.0
=	0.0	0.0	252.2	33.9
=	0.0	0.0	252.7	33.8
=	0.0	0.0	253.1	33.7
=	0.0	0.0	253.6	33.6
=	0.0	0.0	253.9	33.6
=	0.0	0.0	254.4	33.5
=	0.0	0.0	254.9	33.4
=	0.0	0.0	255.4	33.4
=	0.0	0.0	256.0	33.3
=	0.0	0.0	256.4	33.2
=	0.0	0.0	256.8	33.1
=	0.0	0.0	257.2	33.1
=	0.0	0.0	257.6	33.0
=	0.0	0.0	257.9	32.9
=	0.0	0.0	258.4	32.9
=	0.0	0.0	258.8	32.9
=	0.0	0.0	259.2	32.8
=	0.0	0.0	259.6	32.8
=	0.0	0.0	260.0	32.7
=	0.0	0.0	260.4	32.6
=	0.0	0.0	260.8	32.5
=	0.0	0.0	261.3	32.5
=	0.0	0.0	261.7	32.4
=	0.0	0.0	262.2	32.3
=	0.0	0.0	262.6	32.3
=	0.0	0.0	263.0	32.2
=	0.0	0.0	263.4	32.1
=	0.0	0.0	264.0	32.1
=	0.0	0.0	264.5	32.0
=	0.0	0.0	265.1	31.8
=	0.0	0.0	265.7	31.8
=	0.0	0.0	266.3	31.7
=	0.0	0.0	266.7	31.6
=	0.0	0.0	267.2	31.6
=	0.0	0.0	267.8	31.5
=	0.0	0.0	268.3	31.4
=	0.0	0.0	268.8	31.3
=	0.0	0.0	269.3	31.2
=	0.0	0.0	269.7	31.2
=	0.0	0.0	270.1	31.1
=	0.0	0.0	270.5	31.1
=	0.0	0.0	270.9	31.0
=	0.0	0.0	271.4	31.0
=	0.0	0.0	272.0	30.9
=	0.0	0.0	272.6	30.8
=	0.0	0.0	273.1	30.7
=	0.0	0.0	273.5	30.6
=	0.0	0.0	273.9	30.6
=	0.0	0.0	274.5	30.5
=	0.0	0.0	274.9	30.4
=	0.0	0.0	275.5	30.3
=	0.0	0.0	276.1	30.2
=	0.0	0.0	276.6	30.2
=	0.0	0.0	277.2	30.1
=	0.0	0.0	277.6	30.0
=	0.0	0.0	278.0	29.9
=	0.0	0.0	278.4	29.9
=	0.0	0.0	278.9	29.9
=	0.0	0.0	279.4	29.8
=	0.0	0.0	279.8	29.7
=	0.0	0.0	280.3	29.7
=	0.0	0.0	280.8	29.6
=	0.0	0.0	281.4	29.5
=	0.0	0.0	281.9	29.4
=	0.0	0.0	282.3	29.3
=	0.0	0.0	282.8	29.2
=	0.0	0.0	283.3	29.2
=	0.0	0.0	283.7	29.1
=	0.0	0.0	284.2	29.1
=	0.0	0.0	284.6	29.1
=	0.0	0.0	285.2	29.0
=	0.0	0.0	285.6	28.9
=	0.0	0.0	286.1	28.9
=	0.0	0.0	286.6	28.8
=	0.0	0.0	287.2	28.7
=	0.0	0.0	287.6	28.6
=	0.0	0.0	288.1	28.6
=	0.0	0.0	288.8	28.5
=	0.0	0.0	289.4	28.4
=	0.0	0.0	289.8	28.4
=	0.0	0.0	290.4	28.3
=	0.0	0.0	290.9	28.2
=	0.0	0.0	291.3	28.2
=	0.0	0.0	291.9	28.1
=	0.0	0.0	292.5	28.0
=	0.0	0.0	293.1	27.9
=	0.0	0.0	293.7	27.8
=	0.0	0.0	294.2	27.7
=	0.0	0.0	294.6	27.7
=	0.0	0.0	295.2	27.6
=	0.0	0.0	295.7	27.6
=	0.0	0.0	296.4	27.5
=	0.0	0.0	297.0	27.5
=	0.0	0.0	297.5	27.4
=	0.0	0.0	298.1	27.3
=	0.0	0.0	298.6	27.2
=	0.0	0.0	299.1	27.2
=	0.0	0.0	299.7	27.1
=	0.0	0.0	300.2	27.0
=	0.0	0.0	300.6	27.0
=	0.0	0.0	301.0	26.9
=	0.0	0.0	301.4	26.9
=	0.0	0.0	301.9	26.8
=	0.0	0.0	302.5	26.8
=	0.0	0.0	303.0	26.7
=	0.0	0.0	303.6	26.7
=	0.0	0.0	304.1	26.6
=	0.0	0.0	304.6	26.5
=	0.0	0.0	305.0	26.4
=	0.0	0.0	305.4	26.4
=	0.0	0.0	305.8	26.4
=	0.0	0.0	306.2	26.3
=	0.0	0.0	306.5	26.2
=	0.0	0.0	307.0	26.2
=	0.0	0.0	307.4	26.1
=	0.0	0.0	307.9	26.1
=	0.0	0.0	308.5	26.0
=	0.0	0.0	308.9	26.0
=	0.0	0.0	309.4	25.9
=	0.0	0.0	310.0	25.8
=	0.0	0.0	310.6	25.7
=	0.0	0.0	311.2	25.6
=	0.0	0.0	311.7	25.6
=	0.0	0.0	312.2	25.5
=	0.0	0.0	312.7	25.5
=	0.0	0.0	313.2	25.4
=	0.0	0.0	313.7	25.4
=	0.0	0.0	314.3	25.3
=	0.0	0.0	314.8	25.2
=	0.0	0.0	315.2	25.2
=	0.0	0.0	315.7	25.2
=	0.0	0.0	316.1	25.1
=	0.0	0.0	316.6	25.1
=	0.0	0.0	317.0	25.0
=	0.0	0.0	317.6	24.9
=	0.0	0.0	318.2	24.8
=	0.0	0.0	318.8	24.7
=	0.0	0.0	319.4	24.7
=	0.0	0.0	320.0	24.6
=	0.0	0.0	320.5	24.6
=	0.0	0.0	321.0	24.5
=	0.0	0.0	321.4	24.5
=	0.0	0.0	321.9	24.4
=	0.0	0.0	322.5	24.4
=	0.0	0.0	323.0	24.3
=	0.0	0.0	323.5	24.3
=	0.0	0.0	324.0	24.2
=	0.0	0.0	324.4	24.2
=	0.0	0.0	324.7	24.1
=	0.0	0.0	325.1	24.1
=	0.0	0.0	325.5	24.0
=	0.0	0.0	325.9	24.0
=	0.0	0.0	326.3	23.9
=	0.0	0.0	326.7	23.9
=	0.0	0.0	327.3	23.9
=	0.0	0.0	327.8	23.8
=	0.0	0.0	328.4	23.7
=	0.0	0.0	328.8	23.6
=	0.0	0.0	329.3	23.6
=	0.0	0.0	329.9	23.5
=	0.0	0.0	330.4	23.5
=	0.0	0.0	330.8	23.4
=	0.0	0.0	331.2	23.4
=	0.0	0.0	331.7	23.3
=	0.0	0.0	332.3	23.3
=	0.0	0.0	332.9	23.2
=	0.0	0.0	333.3	23.2
=	0.0	0.0	333.9	23.1
=	0.0	0.0	334.4	23.1
=	0.0	0.0	334.9	23.0
=	0.0	0.0	335.3	22.9
=	0.0	0.0	335.8	22.9
=	0.0	0.0	336.2	22.8
=	0.0	0.0	336.7	22.8
=	0.0	0.0	337.3	22.8
=	0.0	0.0	337.7	22.7
=	0.0	0.0	338.1	22.7
=	0.0	0.0	338.5	22.6
=	0.0	0.0	338.9	22.6
=	0.0	0.0	339.3	22.6
=	0.0	0.0	339.9	22.5
=	0.0	0.0	340.5	22.5
=	0.0	0.0	340.9	22.4
=	0.0	0.0	341.4	22.3
=	0.0	0.0	341.9	22.3
=	0.0	0.0	342.4	22.2
=	0.0	0.0	343.0	22.1
=	0.0	0.0	343.7	22.1
=	0.0	0.0	344.2	22.0
=	0.0	0.0	344.7	22.0
=	0.0	0.0	345.2	21.9
=	0.0	0.0	345.7	21.9
=	0.0	0.0	346.3	21.8
=	0.0	0.0	346.8	21.8
=	0.0	0.0	347.3	21.7
:EOM # End of Measurement
#
# RFA300 ASCII Measurement Dump ( BDS format )
#
# Measurement number 	2
#
%VNR 1.0
%MOD 	RAT
%TYP 	SCN
%SCN 	DPT
%FLD 	ION
%DAT 	09-21-2011
%TIM 	12:00:00
%FSZ 	100	100
%BMT 	PHO	   10.0
%SSD 	1000
%BUP 	0
%BRD 	1000
%FSH 	1
%ASC 	0
%WEG 	15
%GPO 	0
%CPO 	0
%MEA 	5
%PRD 	0,0
%PTS 	735
%STS 	    0.0	  0.0	   0.0 # Start Scan values in mm ( X , Y , Z )
%EDS 	    0.0	   0.0	   347.9 # End Scan values in mm ( X , Y , Z )
#
#	  X      Y      Z     Dose
#
=	0.0	0.0	0.0	34.2
=	0.0	0.0	0.3	35.1
=	0.0	0.0	0.8	36.5
=	0.0	0.0	1.3	38.6
=	0.0	0.0	1.6	40.5
=	0.0	0.0	2.2	44.3
=	0.0	0.0	2.8	48.8
=	0.0	0.0	3.3	52.6
=	0.0	0.0	3.8	56.8
=	0.0	0.0	4.2	60.1
=	0.0	0.0	4.7	63.4
=	0.0	0.0	5.2	67.0
=	0.0	0.0	5.7	69.7
=	0.0	0.0	6.2	72.7
=	0.0	0.0	6.7	75.0
=	0.0	0.0	7.2	77.3
=	0.0	0.0	7.6	78.9
=	0.0	0.0	8.1	80.8
=	0.0	0.0	8.5	82.2
=	0.0	0.0	9.0	83.8
=	0.0	0.0	9.3	85.0
=	0.0	0.0	9.8	86.2
=	0.0	0.0	10.2	87.3
=	0.0	0.0	10.7	88.9
=	0.0	0.0	11.3	90.0
=	0.0	0.0	11.7	90.8
=	0.0	0.0	12.1	91.6
=	0.0	0.0	12.5	92.4
=	0.0	0.0	12.9	93.1
=	0.0	0.0	13.4	93.9
=	0.0	0.0	13.8	94.5
=	0.0	0.0	14.3	95.1
=	0.0	0.0	14.8	95.9
=	0.0	0.0	15.3	96.3
=	0.0	0.0	15.7	96.7
=	0.0	0.0	16.0	97.1
=	0.0	0.0	16.5	97.4
=	0.0	0.0	16.9	97.9
=	0.0	0.0	17.4	98.2
=	0.0	0.0	17.8	98.4
=	0.0	0.0	18.2	98.7
=	0.0	0.0	18.6	98.9
=	0.0	0.0	19.0	99.1
=	0.0	0.0	19.4	99.3
=	0.0	0.0	19.9	99.4
=	0.0	0.0	20.4	99.6
=	0.0	0.0	20.8	99.7
=	0.0	0.0	21.3	99.8
=	0.0	0.0	21.7	99.9
=	0.0	0.0	22.1	99.9
=	0.0	0.0	22.5	99.9
=	0.0	0.0	22.9	100.0
=	0.0	0.0	23.4	100.0
=	0.0	0.0	24.0	100.0
=	0.0	0.0	24.4	100.0
=	0.0	0.0	24.8	100.0
=	0.0	0.0	25.2	99.9
=	0.0	0.0	25.8	99.9
=	0.0	0.0	26.2	99.9
=	0.0	0.0	26.6	99.8
=	0.0	0.0	27.0	99.8
=	0.0	0.0	27.4	99.7
=	0.0	0.0	27.8	99.6
=	0.0	0.0	28.2	99.6
=	0.0	0.0	28.5	99.5
=	0.0	0.0	28.9	99.4
=	0.0	0.0	29.3	99.4
=	0.0	0.0	29.7	99.3
=	0.0	0.0	30.1	99.2
=	0.0	0.0	30.6	99.1
=	0.0	0.0	31.0	98.9
=	0.0	0.0	31.5	98.7
=	0.0	0.0	32.0	98.7
=	0.0	0.0	32.5	98.5
=	0.0	0.0	33.0	98.3
=	0.0	0.0	33.4	98.2
=	0.0	0.0	33.8	98.1
=	0.0	0.0	34.3	98.0
=	0.0	0.0	34.9	97.8
=	0.0	0.0	35.2	97.6
=	0.0	0.0	35.6	97.4
=	0.0	0.0	36.1	97.3
=	0.0	0.0	36.4	97.2
=	0.0	0.0	36.8	97.0
=	0.0	0.0	37.2	96.9
=	0.0	0.0	37.6	96.7
=	0.0	0.0	38.0	96.6
=	0.0	0.0	38.4	96.3
=	0.0	0.0	38.8	96.2
=	0.0	0.0	39.3	96.0
=	0.0	0.0	39.7	95.9
=	0.0	0.0	40.1	95.8
=	0.0	0.0	40.6	95.6
=	0.0	0.0	41.1	95.4
=	0.0	0.0	41.6	95.2
=	0.0	0.0	42.0	95.0
=	0.0	0.0	42.4	94.9
=	0.0	0.0	43.0	94.6
=	0.0	0.0	43.4	94.5
=	0.0	0.0	43.9	94.3
=	0.0	0.0	44.4	94.1
=	0.0	0.0	44.8	94.0
=	0.0	0.0	45.4	93.8
=	0.0	0.0	45.8	93.6
=	0.0	0.0	46.2	93.5
=	0.0	0.0	46.6	93.3
=	0.0	0.0	47.0	93.1
=	0.0	0.0	47.4	93.0
=	0.0	0.0	47.8	92.9
=	0.0	0.0	48.2	92.8
=	0.0	0.0	48.6	92.6
=	0.0	0.0	49.2	92.2
=	0.0	0.0	49.7	92.0
=	0.0	0.0	50.1	91.9
=	0.0	0.0	50.5	91.8
=	0.0	0.0	51.0	91.7
=	0.0	0.0	51.6	91.5
=	0.0	0.0	52.0	91.4
=	0.0	0.0	52.5	91.2
=	0.0	0.0	52.8	91.1
=	0.0	0.0	53.3	90.8
=	0.0	0.0	53.7	90.6
=	0.0	0.0	54.1	90.4
=	0.0	0.0	54.5	90.3
=	0.0	0.0	55.0	90.1
=	0.0	0.0	55.4	90.0
=	0.0	0.0	55.8	89.8
=	0.0	0.0	56.2	89.7
=	0.0	0.0	56.6	89.5
=	0.0	0.0	57.1	89.4
=	0.0	0.0	57.5	89.2
=	0.0	0.0	57.9	89.0
=	0.0	0.0	58.5	88.8
=	0.0	0.0	59.0	88.5
=	0.0	0.0	59.4	88.4
=	0.0	0.0	59.8	88.3
=	0.0	0.0	60.4	88.2
=	0.0	0.0	60.8	88.0
=	0.0	0.0	61.3	87.8
=	0.0	0.0	61.8	87.6
=	0.0	0.0	62.4	87.4
=	0.0	0.0	62.8	87.3
=	0.0	0.0	63.3	87.1
=	0.0	0.0	63.7	87.0
=	0.0	0.0	64.1	86.8
=	0.0	0.0	64.7	86.6
=	0.0	0.0	65.3	86.2
=	0.0	0.0	65.9	86.0
=	0.0	0.0	66.5	85.9
=	0.0	0.0	67.1	85.6
=	0.0	0.0	67.8	85.3
=	0.0	0.0	68.4	85.2
=	0.0	0.0	68.9	85.1
=	0.0	0.0	69.4	84.9
=	0.0	0.0	69.9	84.7
=	0.0	0.0	70.4	84.6
=	0.0	0.0	70.8	84.4
=	0.0	0.0	71.3	84.2
=	0.0	0.0	71.8	84.0
=	0.0	0.0	72.3	83.9
=	0.0	0.0	72.8	83.7
=	0.0	0.0	73.3	83.4
=	0.0	0.0	73.9	83.2
=	0.0	0.0	74.3	83.1
=	0.0	0.0	74.8	82.9
=	0.0	0.0	75.2	82.8
=	0.0	0.0	75.6	82.7
=	0.0	0.0	76.0	82.6
=	0.0	0.0	76.6	82.3
=	0.0	0.0	77.2	82.0
=	0.0	0.0	77.5	81.8
=	0.0	0.0	78.1	81.7
=	0.0	0.0	78.6	81.5
=	0.0	0.0	79.0	81.4
=	0.0	0.0	79.4	81.3
=	0.0	0.0	79.8	81.2
=	0.0	0.0	80.2	81.0
=	0.0	0.0	80.7	80.9
=	0.0	0.0	81.2	80.7
=	0.0	0.0	81.6	80.5
=	0.0	0.0	82.0	80.3
=	0.0	0.0	82.5	80.2
=	0.0	0.0	82.9	80.1
=	0.0	0.0	83.4	79.9
=	0.0	0.0	83.9	79.7
=	0.0	0.0	84.3	79.6
=	0.0	0.0	84.7	79.5
=	0.0	0.0	85.1	79.4
=	0.0	0.0	85.6	79.2
=	0.0	0.0	86.1	79.0
=	0.0	0.0	86.4	78.9
=	0.0	0.0	86.8	78.8
=	0.0	0.0	87.3	78.6
=	0.0	0.0	87.8	78.4
=	0.0	0.0	88.2	78.3
=	0.0	0.0	88.6	78.2
=	0.0	0.0	89.1	78.0
=	0.0	0.0	89.6	77.8
=	0.0	0.0	90.1	77.7
=	0.0	0.0	90.4	77.5
=	0.0	0.0	90.9	77.3
=	0.0	0.0	91.3	77.2
=	0.0	0.0	91.8	77.1
=	0.0	0.0	92.4	76.8
=	0.0	0.0	92.8	76.6
=	0.0	0.0	93.2	76.5
=	0.0	0.0	93.7	76.3
=	0.0	0.0	94.3	76.1
=	0.0	0.0	94.9	76.0
=	0.0	0.0	95.5	75.8
=	0.0	0.0	96.1	75.6
=	0.0	0.0	96.6	75.4
=	0.0	0.0	97.0	75.2
=	0.0	0.0	97.6	75.0
=	0.0	0.0	98.2	74.8
=	0.0	0.0	98.8	74.7
=	0.0	0.0	99.3	74.4
=	0.0	0.0	99.9	74.3
=	0.0	0.0	100.3	74.2
=	0.0	0.0	100.7	74.1
=	0.0	0.0	101.2	73.9
=	0.0	0.0	101.5	73.8
=	0.0	0.0	102.0	73.6
=	0.0	0.0	102.4	73.5
=	0.0	0.0	102.9	73.3
=	0.0	0.0	103.4	73.1
=	0.0	0.0	103.9	73.0
=	0.0	0.0	104.4	72.8
=	0.0	0.0	104.9	72.6
=	0.0	0.0	105.3	72.5
=	0.0	0.0	105.8	72.3
=	0.0	0.0	106.4	72.1
=	0.0	0.0	107.0	71.9
=	0.0	0.0	107.6	71.7
=	0.0	0.0	108.0	71.6
=	0.0	0.0	108.4	71.4
=	0.0	0.0	108.8	71.4
=	0.0	0.0	109.3	71.1
=	0.0	0.0	109.9	71.0
=	0.0	0.0	110.3	70.9
=	0.0	0.0	110.8	70.7
=	0.0	0.0	111.2	70.6
=	0.0	0.0	111.6	70.5
=	0.0	0.0	112.1	70.3
=	0.0	0.0	112.6	70.1
=	0.0	0.0	113.0	70.0
=	0.0	0.0	113.5	69.8
=	0.0	0.0	114.0	69.6
=	0.0	0.0	114.4	69.5
=	0.0	0.0	114.7	69.5
=	0.0	0.0	115.1	69.4
=	0.0	0.0	115.5	69.3
=	0.0	0.0	115.9	69.1
=	0.0	0.0	116.4	69.0
=	0.0	0.0	116.9	68.8
=	0.0	0.0	117.3	68.7
=	0.0	0.0	117.7	68.6
=	0.0	0.0	118.1	68.5
=	0.0	0.0	118.6	68.3
=	0.0	0.0	119.1	68.1
=	0.0	0.0	119.5	68.0
=	0.0	0.0	120.0	67.9
=	0.0	0.0	120.4	67.8
=	0.0	0.0	120.7	67.7
=	0.0	0.0	121.1	67.7
=	0.0	0.0	121.5	67.5
=	0.0	0.0	121.8	67.3
=	0.0	0.0	122.2	67.2
=	0.0	0.0	122.9	67.1
=	0.0	0.0	123.4	66.9
=	0.0	0.0	123.8	66.7
=	0.0	0.0	124.3	66.6
=	0.0	0.0	124.8	66.4
=	0.0	0.0	125.3	66.2
=	0.0	0.0	125.8	66.1
=	0.0	0.0	126.3	66.0
=	0.0	0.0	126.9	65.8
=	0.0	0.0	127.5	65.5
=	0.0	0.0	127.9	65.5
=	0.0	0.0	128.4	65.3
=	0.0	0.0	129.1	65.1
=	0.0	0.0	129.5	65.0
=	0.0	0.0	130.1	64.8
=	0.0	0.0	130.5	64.6
=	0.0	0.0	130.9	64.6
=	0.0	0.0	131.3	64.5
=	0.0	0.0	131.7	64.4
=	0.0	0.0	132.2	64.3
=	0.0	0.0	132.6	64.1
=	0.0	0.0	133.1	64.0
=	0.0	0.0	133.6	63.8
=	0.0	0.0	134.2	63.6
=	0.0	0.0	134.7	63.6
=	0.0	0.0	135.3	63.4
=	0.0	0.0	135.7	63.3
=	0.0	0.0	136.2	63.2
=	0.0	0.0	136.6	63.0
=	0.0	0.0	137.0	62.8
=	0.0	0.0	137.4	62.8
=	0.0	0.0	138.0	62.7
=	0.0	0.0	138.6	62.5
=	0.0	0.0	139.0	62.4
=	0.0	0.0	139.4	62.2
=	0.0	0.0	139.8	62.1
=	0.0	0.0	140.3	62.0
=	0.0	0.0	140.7	61.9
=	0.0	0.0	141.2	61.7
=	0.0	0.0	141.6	61.6
=	0.0	0.0	142.1	61.4
=	0.0	0.0	142.5	61.3
=	0.0	0.0	143.0	61.2
=	0.0	0.0	143.4	61.1
=	0.0	0.0	143.9	61.0
=	0.0	0.0	144.3	60.8
=	0.0	0.0	144.8	60.7
=	0.0	0.0	145.3	60.5
=	0.0	0.0	145.7	60.4
=	0.0	0.0	146.1	60.3
=	0.0	0.0	146.7	60.2
=	0.0	0.0	147.3	60.0
=	0.0	0.0	147.8	59.9
=	0.0	0.0	148.3	59.7
=	0.0	0.0	148.8	59.6
=	0.0	0.0	149.4	59.4
=	0.0	0.0	150.1	59.3
=	0.0	0.0	150.6	59.1
=	0.0	0.0	151.1	59.0
=	0.0	0.0	151.5	58.9
=	0.0	0.0	152.0	58.8
=	0.0	0.0	152.4	58.6
=	0.0	0.0	153.0	58.5
=	0.0	0.0	153.6	58.4
=	0.0	0.0	154.1	58.2
=	0.0	0.0	154.6	58.1
=	0.0	0.0	155.2	57.9
=	0.0	0.0	155.8	57.7
=	0.0	0.0	156.2	57.6
=	0.0	0.0	156.7	57.4
=	0.0	0.0	157.2	57.3
=	0.0	0.0	157.6	57.2
=	0.0	0.0	158.1	57.2
=	0.0	0.0	158.6	57.0
=	0.0	0.0	159.0	56.9
=	0.0	0.0	159.5	56.8
=	0.0	0.0	159.9	56.6
=	0.0	0.0	160.3	56.5
=	0.0	0.0	160.7	56.4
=	0.0	0.0	161.3	56.3
=	0.0	0.0	161.8	56.2
=	0.0	0.0	162.2	56.1
=	0.0	0.0	162.6	56.0
=	0.0	0.0	163.0	55.8
=	0.0	0.0	163.4	55.7
=	0.0	0.0	163.9	55.7
=	0.0	0.0	164.4	55.6
=	0.0	0.0	164.8	55.5
=	0.0	0.0	165.2	55.4
=	0.0	0.0	165.6	55.3
=	0.0	0.0	166.0	55.1
=	0.0	0.0	166.6	55.0
=	0.0	0.0	167.0	54.9
=	0.0	0.0	167.4	54.8
=	0.0	0.0	167.8	54.7
=	0.0	0.0	168.2	54.7
=	0.0	0.0	168.6	54.5
=	0.0	0.0	169.1	54.4
=	0.0	0.0	169.6	54.2
=	0.0	0.0	170.0	54.1
=	0.0	0.0	170.5	54.0
=	0.0	0.0	171.1	53.8
=	0.0	0.0	171.6	53.7
=	0.0	0.0	172.1	53.6
=	0.0	0.0	172.5	53.5
=	0.0	0.0	173.1	53.4
=	0.0	0.0	173.5	53.2
=	0.0	0.0	173.9	53.1
=	0.0	0.0	174.4	52.9
=	0.0	0.0	175.0	52.9
=	0.0	0.0	175.5	52.8
=	0.0	0.0	175.9	52.7
=	0.0	0.0	176.3	52.6
=	0.0	0.0	176.8	52.5
=	0.0	0.0	177.1	52.4
=	0.0	0.0	177.5	52.3
=	0.0	0.0	177.9	52.2
=	0.0	0.0	178.3	52.1
=	0.0	0.0	178.9	52.0
=	0.0	0.0	179.3	51.9
=	0.0	0.0	179.7	51.8
=	0.0	0.0	180.2	51.7
=	0.0	0.0	180.6	51.6
=	0.0	0.0	181.0	51.5
=	0.0	0.0	181.4	51.4
=	0.0	0.0	181.9	51.3
=	0.0	0.0	182.3	51.2
=	0.0	0.0	182.7	51.1
=	0.0	0.0	183.1	51.0
=	0.0	0.0	183.5	50.9
=	0.0	0.0	183.9	50.8
=	0.0	0.0	184.3	50.7
=	0.0	0.0	184.7	50.6
=	0.0	0.0	185.2	50.5
=	0.0	0.0	185.6	50.4
=	0.0	0.0	186.0	50.3
=	0.0	0.0	186.5	50.2
=	0.0	0.0	187.1	50.1
=	0.0	0.0	187.6	50.0
=	0.0	0.0	188.0	49.9
=	0.0	0.0	188.4	49.8
=	0.0	0.0	188.9	49.7
=	0.0	0.0	189.5	49.6
=	0.0	0.0	189.9	49.4
=	0.0	0.0	190.4	49.3
=	0.0	0.0	190.9	49.2
=	0.0	0.0	191.4	49.1
=	0.0	0.0	191.9	48.9
=	0.0	0.0	192.3	48.9
=	0.0	0.0	192.8	48.8
=	0.0	0.0	193.3	48.7
=	0.0	0.0	193.8	48.5
=	0.0	0.0	194.3	48.4
=	0.0	0.0	194.8	48.3
=	0.0	0.0	195.2	48.2
=	0.0	0.0	195.7	48.2
=	0.0	0.0	196.1	48.1
=	0.0	0.0	196.6	48.0
=	0.0	0.0	197.2	47.8
=	0.0	0.0	197.8	47.7
=	0.0	0.0	198.4	47.5
=	0.0	0.0	199.0	47.3
=	0.0	0.0	199.6	47.2
=	0.0	0.0	200.2	47.1
=	0.0	0.0	200.7	47.0
=	0.0	0.0	201.3	46.9
=	0.0	0.0	201.9	46.8
=	0.0	0.0	202.4	46.7
=	0.0	0.0	202.9	46.6
=	0.0	0.0	203.5	46.4
=	0.0	0.0	204.2	46.2
=	0.0	0.0	204.8	46.1
=	0.0	0.0	205.3	46.0
=	0.0	0.0	205.8	45.9
=	0.0	0.0	206.5	45.8
=	0.0	0.0	207.0	45.7
=	0.0	0.0	207.5	45.6
=	0.0	0.0	207.9	45.5
=	0.0	0.0	208.5	45.4
=	0.0	0.0	208.9	45.3
=	0.0	0.0	209.4	45.3
=	0.0	0.0	209.7	45.2
=	0.0	0.0	210.2	45.1
=	0.0	0.0	210.7	45.0
=	0.0	0.0	211.2	44.9
=	0.0	0.0	211.7	44.7
=	0.0	0.0	212.2	44.6
=	0.0	0.0	212.6	44.5
=	0.0	0.0	213.0	44.4
=	0.0	0.0	213.4	44.4
=	0.0	0.0	213.8	44.3
=	0.0	0.0	214.3	44.2
=	0.0	0.0	214.9	44.1
=	0.0	0.0	215.5	44.0
=	0.0	0.0	216.1	43.9
=	0.0	0.0	216.7	43.7
=	0.0	0.0	217.1	43.7
=	0.0	0.0	217.5	43.6
=	0.0	0.0	218.0	43.5
=	0.0	0.0	218.4	43.4
=	0.0	0.0	218.9	43.3
=	0.0	0.0	219.4	43.2
=	0.0	0.0	219.9	43.1
=	0.0	0.0	220.4	43.0
=	0.0	0.0	221.1	42.9
=	0.0	0.0	221.6	42.8
=	0.0	0.0	222.1	42.7
=	0.0	0.0	222.5	42.6
=	0.0	0.0	222.9	42.5
=	0.0	0.0	223.4	42.5
=	0.0	0.0	223.8	42.4
=	0.0	0.0	224.4	42.3
=	0.0	0.0	224.9	42.2
=	0.0	0.0	225.5	42.0
=	0.0	0.0	226.0	41.9
=	0.0	0.0	226.6	41.8
=	0.0	0.0	227.2	41.7
=	0.0	0.0	227.7	41.6
=	0.0	0.0	228.3	41.6
=	0.0	0.0	228.8	41.5
=	0.0	0.0	229.3	41.3
=	0.0	0.0	229.8	41.2
=	0.0	0.0	230.3	41.1
=	0.0	0.0	230.7	41.1
=	0.0	0.0	231.2	41.0
=	0.0	0.0	231.5	41.0
=	0.0	0.0	232.1	40.8
=	0.0	0.0	232.6	40.7
=	0.0	0.0	232.9	40.6
=	0.0	0.0	233.4	40.5
=	0.0	0.0	233.9	40.5
=	0.0	0.0	234.4	40.4
=	0.0	0.0	234.9	40.3
=	0.0	0.0	235.4	40.2
=	0.0	0.0	235.8	40.1
=	0.0	0.0	236.3	40.0
=	0.0	0.0	236.6	40.0
=	0.0	0.0	237.1	39.9
=	0.0	0.0	237.6	39.8
=	0.0	0.0	238.1	39.7
=	0.0	0.0	238.7	39.6
=	0.0	0.0	239.1	39.5
=	0.0	0.0	239.7	39.4
=	0.0	0.0	240.1	39.4
=	0.0	0.0	240.5	39.3
=	0.0	0.0	241.0	39.2
=	0.0	0.0	241.5	39.1
=	0.0	0.0	242.0	39.0
=	0.0	0.0	242.6	38.9
=	0.0	0.0	243.1	38.8
=	0.0	0.0	243.6	38.7
=	0.0	0.0	244.2	38.6
=	0.0	0.0	244.6	38.6
=	0.0	0.0	245.1	38.5
=	0.0	0.0	245.5	38.3
=	0.0	0.0	245.9	38.2
=	0.0	0.0	246.3	38.2
=	0.0	0.0	246.7	38.1
=	0.0	0.0	247.0	38.1
=	0.0	0.0	247.4	38.0
=	0.0	0.0	247.8	38.0
=	0.0	0.0	248.2	37.9
=	0.0	0.0	248.6	37.8
=	0.0	0.0	249.1	37.8
=	0.0	0.0	249.6	37.7
=	0.0	0.0	250.1	37.6
=	0.0	0.0	250.7	37.5
=	0.0	0.0	251.2	37.4
=	0.0	0.0	251.7	37.3
=	0.0	0.0	252.3	37.3
=	0.0	0.0	252.9	37.2
=	0.0	0.0	253.3	37.0
=	0.0	0.0	253.7	37.0
=	0.0	0.0	254.2	36.9
=	0.0	0.0	254.5	36.8
=	0.0	0.0	254.9	36.8
=	0.0	0.0	255.3	36.7
=	0.0	0.0	255.7	36.7
=	0.0	0.0	256.1	36.6
=	0.0	0.0	256.5	36.6
=	0.0	0.0	256.8	36.5
=	0.0	0.0	257.2	36.4
=	0.0	0.0	257.7	36.4
=	0.0	0.0	258.1	36.3
=	0.0	0.0	258.7	36.2
=	0.0	0.0	259.2	36.1
=	0.0	0.0	259.7	36.0
=	0.0	0.0	260.3	35.9
=	0.0	0.0	260.9	35.8
=	0.0	0.0	261.4	35.7
=	0.0	0.0	262.0	35.7
=	0.0	0.0	262.5	35.6
=	0.0	0.0	263.0	35.5
=	0.0	0.0	263.4	35.4
=	0.0	0.0	263.9	35.3
=	0.0	0.0	264.4	35.3
=	0.0	0.0	264.8	35.2
=	0.0	0.0	265.2	35.1
=	0.0	0.0	265.7	35.1
=	0.0	0.0	266.3	35.0
=	0.0	0.0	266.8	34.9
=	0.0	0.0	267.2	34.8
=	0.0	0.0	267.6	34.7
=	0.0	0.0	268.1	34.6
=	0.0	0.0	268.5	34.5
=	0.0	0.0	269.0	34.5
=	0.0	0.0	269.4	34.4
=	0.0	0.0	269.8	34.4
=	0.0	0.0	270.2	34.3
=	0.0	0.0	270.6	34.3
=	0.0	0.0	271.2	34.2
=	0.0	0.0	271.7	34.1
=	0.0	0.0	272.3	34.0
=	0.0	0.0	272.9	33.9
=	0.0	0.0	273.5	33.8
=	0.0	0.0	274.1	33.7
=	0.0	0.0	274.6	33.7
=	0.0	0.0	275.1	33.6
=	0.0	0.0	275.5	33.5
=	0.0	0.0	276.0	33.5
=	0.0	0.0	276.4	33.4
=	0.0	0.0	276.8	33.3
=	0.0	0.0	277.3	33.2
=	0.0	0.0	277.9	33.2
=	0.0	0.0	278.3	33.1
=	0.0	0.0	278.8	33.0
=	0.0	0.0	279.4	33.0
=	0.0	0.0	279.8	32.9
=	0.0	0.0	280.4	32.8
=	0.0	0.0	281.0	32.7
=	0.0	0.0	281.5	32.7
=	0.0	0.0	281.9	32.6
=	0.0	0.0	282.2	32.5
=	0.0	0.0	282.6	32.5
=	0.0	0.0	283.1	32.4
=	0.0	0.0	283.5	32.3
=	0.0	0.0	284.1	32.3
=	0.0	0.0	284.6	32.2
=	0.0	0.0	285.2	32.1
=	0.0	0.0	285.8	32.0
=	0.0	0.0	286.4	31.9
=	0.0	0.0	287.0	31.8
=	0.0	0.0	287.6	31.8
=	0.0	0.0	288.1	31.7
=	0.0	0.0	288.6	31.6
=	0.0	0.0	289.0	31.5
=	0.0	0.0	289.5	31.4
=	0.0	0.0	289.9	31.4
=	0.0	0.0	290.3	31.3
=	0.0	0.0	290.7	31.3
=	0.0	0.0	291.1	31.2
=	0.0	0.0	291.7	31.1
=	0.0	0.0	292.3	31.1
=	0.0	0.0	292.9	31.0
=	0.0	0.0	293.5	30.9
=	0.0	0.0	294.0	30.8
=	0.0	0.0	294.4	30.8
=	0.0	0.0	294.9	30.7
=	0.0	0.0	295.3	30.7
=	0.0	0.0	295.7	30.6
=	0.0	0.0	296.1	30.5
=	0.0	0.0	296.4	30.5
=	0.0	0.0	297.0	30.4
=	0.0	0.0	297.5	30.3
=	0.0	0.0	298.1	30.3
=	0.0	0.0	298.5	30.2
=	0.0	0.0	299.1	30.1
=	0.0	0.0	299.6	30.1
=	0.0	0.0	300.0	30.0
=	0.0	0.0	300.5	30.0
=	0.0	0.0	300.9	29.9
=	0.0	0.0	301.3	29.9
=	0.0	0.0	301.8	29.8
=	0.0	0.0	302.4	29.7
=	0.0	0.0	302.8	29.7
=	0.0	0.0	303.2	29.6
=	0.0	0.0	303.7	29.6
=	0.0	0.0	304.1	29.5
=	0.0	0.0	304.6	29.4
=	0.0	0.0	305.2	29.3
=	0.0	0.0	305.6	29.3
=	0.0	0.0	306.2	29.2
=	0.0	0.0	306.8	29.1
=	0.0	0.0	307.3	29.1
=	0.0	0.0	307.8	29.0
=	0.0	0.0	308.2	28.9
=	0.0	0.0	308.7	28.9
=	0.0	0.0	309.1	28.8
=	0.0	0.0	309.6	28.8
=	0.0	0.0	310.1	28.7
=	0.0	0.0	310.6	28.7
=	0.0	0.0	311.2	28.6
=	0.0	0.0	311.8	28.4
=	0.0	0.0	312.5	28.4
=	0.0	0.0	313.1	28.3
=	0.0	0.0	313.5	28.2
=	0.0	0.0	314.0	28.2
=	0.0	0.0	314.6	28.1
=	0.0	0.0	314.9	28.1
=	0.0	0.0	315.5	28.0
=	0.0	0.0	316.0	28.0
=	0.0	0.0	316.4	27.9
=	0.0	0.0	316.9	27.8
=	0.0	0.0	317.3	27.8
=	0.0	0.0	317.9	27.7
