:MSR 	25	 # No. of measurement in file
:SYS BDS 0   # Beam Data Scanner System
#
# RFA300 ASCII Measurement Dump ( BDS format )
#
# Measurement number 	1
#
%VNR 1.0
%MOD 	RAT
%TYP 	SCN
%SCN 	PRO
%FLD 	ION
%DAT 	09-21-2011
%TIM 	12:00:00
%FSZ 	040	040
%BMT 	PHO	   10.0
%SSD 	1000
%BUP 	0
%BRD 	1000
%FSH 	1
%ASC 	0
%WEG 	15
%GPO 	0
%CPO 	0
%MEA 	6
%PRD 	24,0
%PTS 	575
%STS 	    -90.4	  0.0	   24.0 # Start Scan values in mm ( X , Y , Z )
%EDS 	    90.1	   0.0	   24.0 # End Scan values in mm ( X , Y , Z )
#
#	  X      Y      Z     Dose
#
=	-90.4	0.0	24.0	0.7
=	-90.2	0.0	24.0	0.7
=	-89.9	0.0	24.0	0.8
=	-89.6	0.0	24.0	0.8
=	-89.2	0.0	24.0	0.8
=	-88.8	0.0	24.0	0.7
=	-88.6	0.0	24.0	0.7
=	-88.4	0.0	24.0	0.7
=	-88.0	0.0	24.0	0.7
=	-87.8	0.0	24.0	0.7
=	-87.5	0.0	24.0	0.7
=	-87.2	0.0	24.0	0.7
=	-86.8	0.0	24.0	0.7
=	-86.6	0.0	24.0	0.7
=	-86.3	0.0	24.0	0.7
=	-86.0	0.0	24.0	0.7
=	-85.7	0.0	24.0	0.7
=	-85.3	0.0	24.0	0.7
=	-85.1	0.0	24.0	0.8
=	-84.8	0.0	24.0	0.8
=	-84.5	0.0	24.0	0.8
=	-84.2	0.0	24.0	0.8
=	-83.9	0.0	24.0	0.8
=	-83.6	0.0	24.0	0.8
=	-83.2	0.0	24.0	0.8
=	-82.9	0.0	24.0	0.8
=	-82.6	0.0	24.0	0.8
=	-82.4	0.0	24.0	0.8
=	-82.1	0.0	24.0	0.8
=	-81.8	0.0	24.0	0.8
=	-81.5	0.0	24.0	0.8
=	-81.3	0.0	24.0	0.8
=	-81.0	0.0	24.0	0.8
=	-80.6	0.0	24.0	0.8
=	-80.3	0.0	24.0	0.8
=	-80.0	0.0	24.0	0.8
=	-79.8	0.0	24.0	0.8
=	-79.3	0.0	24.0	0.8
=	-78.9	0.0	24.0	0.8
=	-78.7	0.0	24.0	0.8
=	-78.3	0.0	24.0	0.8
=	-77.9	0.0	24.0	0.8
=	-77.6	0.0	24.0	0.8
=	-77.3	0.0	24.0	0.8
=	-77.1	0.0	24.0	0.8
=	-76.7	0.0	24.0	0.8
=	-76.4	0.0	24.0	0.8
=	-75.9	0.0	24.0	0.8
=	-75.6	0.0	24.0	0.8
=	-75.3	0.0	24.0	0.8
=	-75.0	0.0	24.0	0.8
=	-74.8	0.0	24.0	0.8
=	-74.6	0.0	24.0	0.8
=	-74.3	0.0	24.0	0.8
=	-74.0	0.0	24.0	0.9
=	-73.7	0.0	24.0	0.9
=	-73.4	0.0	24.0	0.9
=	-73.1	0.0	24.0	0.9
=	-72.8	0.0	24.0	0.9
=	-72.4	0.0	24.0	0.9
=	-72.0	0.0	24.0	0.9
=	-71.7	0.0	24.0	0.9
=	-71.5	0.0	24.0	0.9
=	-71.2	0.0	24.0	0.9
=	-70.9	0.0	24.0	0.9
=	-70.7	0.0	24.0	0.9
=	-70.3	0.0	24.0	0.9
=	-70.1	0.0	24.0	0.9
=	-69.8	0.0	24.0	0.9
=	-69.6	0.0	24.0	0.9
=	-69.3	0.0	24.0	0.9
=	-69.0	0.0	24.0	0.9
=	-68.8	0.0	24.0	0.9
=	-68.6	0.0	24.0	0.9
=	-68.3	0.0	24.0	0.9
=	-68.1	0.0	24.0	0.9
=	-67.8	0.0	24.0	0.9
=	-67.6	0.0	24.0	0.9
=	-67.3	0.0	24.0	0.9
=	-67.1	0.0	24.0	0.9
=	-66.9	0.0	24.0	0.9
=	-66.5	0.0	24.0	0.9
=	-66.2	0.0	24.0	0.9
=	-65.9	0.0	24.0	1.0
=	-65.7	0.0	24.0	1.0
=	-65.4	0.0	24.0	1.0
=	-65.2	0.0	24.0	1.0
=	-64.9	0.0	24.0	1.0
=	-64.7	0.0	24.0	1.0
=	-64.4	0.0	24.0	1.0
=	-63.9	0.0	24.0	1.0
=	-63.6	0.0	24.0	1.0
=	-63.4	0.0	24.0	1.0
=	-63.1	0.0	24.0	1.0
=	-62.7	0.0	24.0	1.0
=	-62.4	0.0	24.0	1.0
=	-62.1	0.0	24.0	1.0
=	-61.7	0.0	24.0	1.0
=	-61.2	0.0	24.0	1.0
=	-60.9	0.0	24.0	1.0
=	-60.6	0.0	24.0	1.0
=	-60.2	0.0	24.0	1.1
=	-59.9	0.0	24.0	1.1
=	-59.6	0.0	24.0	1.1
=	-59.3	0.0	24.0	1.1
=	-58.9	0.0	24.0	1.1
=	-58.6	0.0	24.0	1.1
=	-58.3	0.0	24.0	1.1
=	-58.0	0.0	24.0	1.1
=	-57.7	0.0	24.0	1.1
=	-57.4	0.0	24.0	1.1
=	-57.1	0.0	24.0	1.1
=	-56.8	0.0	24.0	1.1
=	-56.4	0.0	24.0	1.1
=	-56.2	0.0	24.0	1.1
=	-55.9	0.0	24.0	1.2
=	-55.6	0.0	24.0	1.2
=	-55.4	0.0	24.0	1.2
=	-55.0	0.0	24.0	1.2
=	-54.7	0.0	24.0	1.2
=	-54.4	0.0	24.0	1.2
=	-54.0	0.0	24.0	1.2
=	-53.6	0.0	24.0	1.2
=	-53.4	0.0	24.0	1.2
=	-53.1	0.0	24.0	1.2
=	-52.8	0.0	24.0	1.2
=	-52.4	0.0	24.0	1.3
=	-52.1	0.0	24.0	1.3
=	-51.8	0.0	24.0	1.3
=	-51.5	0.0	24.0	1.3
=	-51.1	0.0	24.0	1.3
=	-50.8	0.0	24.0	1.3
=	-50.5	0.0	24.0	1.3
=	-50.3	0.0	24.0	1.4
=	-49.9	0.0	24.0	1.4
=	-49.5	0.0	24.0	1.4
=	-49.1	0.0	24.0	1.4
=	-48.8	0.0	24.0	1.4
=	-48.5	0.0	24.0	1.4
=	-48.1	0.0	24.0	1.4
=	-47.8	0.0	24.0	1.5
=	-47.4	0.0	24.0	1.5
=	-47.0	0.0	24.0	1.5
=	-46.6	0.0	24.0	1.5
=	-46.3	0.0	24.0	1.5
=	-46.1	0.0	24.0	1.5
=	-45.8	0.0	24.0	1.5
=	-45.5	0.0	24.0	1.6
=	-45.2	0.0	24.0	1.6
=	-44.9	0.0	24.0	1.6
=	-44.5	0.0	24.0	1.6
=	-44.0	0.0	24.0	1.6
=	-43.7	0.0	24.0	1.6
=	-43.4	0.0	24.0	1.7
=	-43.0	0.0	24.0	1.7
=	-42.6	0.0	24.0	1.7
=	-42.2	0.0	24.0	1.8
=	-41.8	0.0	24.0	1.8
=	-41.5	0.0	24.0	1.8
=	-41.3	0.0	24.0	1.8
=	-41.0	0.0	24.0	1.8
=	-40.7	0.0	24.0	1.9
=	-40.4	0.0	24.0	1.9
=	-40.1	0.0	24.0	1.9
=	-39.9	0.0	24.0	2.0
=	-39.5	0.0	24.0	2.0
=	-39.3	0.0	24.0	2.0
=	-39.0	0.0	24.0	2.0
=	-38.6	0.0	24.0	2.1
=	-38.2	0.0	24.0	2.1
=	-38.0	0.0	24.0	2.1
=	-37.7	0.0	24.0	2.1
=	-37.3	0.0	24.0	2.2
=	-37.0	0.0	24.0	2.2
=	-36.7	0.0	24.0	2.3
=	-36.4	0.0	24.0	2.3
=	-36.1	0.0	24.0	2.4
=	-35.9	0.0	24.0	2.4
=	-35.5	0.0	24.0	2.5
=	-35.2	0.0	24.0	2.5
=	-34.9	0.0	24.0	2.6
=	-34.5	0.0	24.0	2.6
=	-34.3	0.0	24.0	2.7
=	-33.9	0.0	24.0	2.8
=	-33.5	0.0	24.0	2.9
=	-33.2	0.0	24.0	2.9
=	-33.0	0.0	24.0	3.0
=	-32.7	0.0	24.0	3.0
=	-32.4	0.0	24.0	3.2
=	-32.1	0.0	24.0	3.3
=	-31.8	0.0	24.0	3.4
=	-31.4	0.0	24.0	3.6
=	-31.0	0.0	24.0	3.7
=	-30.7	0.0	24.0	3.8
=	-30.4	0.0	24.0	4.0
=	-30.1	0.0	24.0	4.2
=	-29.8	0.0	24.0	4.3
=	-29.5	0.0	24.0	4.5
=	-29.2	0.0	24.0	4.7
=	-28.8	0.0	24.0	5.1
=	-28.5	0.0	24.0	5.4
=	-28.2	0.0	24.0	5.7
=	-28.0	0.0	24.0	6.0
=	-27.7	0.0	24.0	6.3
=	-27.4	0.0	24.0	6.8
=	-26.9	0.0	24.0	7.4
=	-26.6	0.0	24.0	8.0
=	-26.1	0.0	24.0	8.9
=	-25.8	0.0	24.0	9.8
=	-25.5	0.0	24.0	10.5
=	-25.2	0.0	24.0	11.4
=	-25.0	0.0	24.0	12.3
=	-24.7	0.0	24.0	13.4
=	-24.3	0.0	24.0	15.0
=	-24.0	0.0	24.0	16.7
=	-23.7	0.0	24.0	18.4
=	-23.5	0.0	24.0	20.2
=	-23.2	0.0	24.0	22.1
=	-22.9	0.0	24.0	24.8
=	-22.5	0.0	24.0	28.1
=	-22.2	0.0	24.0	30.8
=	-22.0	0.0	24.0	33.6
=	-21.7	0.0	24.0	36.0
=	-21.4	0.0	24.0	39.2
=	-21.1	0.0	24.0	43.2
=	-20.8	0.0	24.0	47.0
=	-20.5	0.0	24.0	50.5
=	-20.2	0.0	24.0	53.5
=	-19.9	0.0	24.0	57.7
=	-19.5	0.0	24.0	61.9
=	-19.2	0.0	24.0	65.3
=	-18.8	0.0	24.0	69.4
=	-18.6	0.0	24.0	72.1
=	-18.4	0.0	24.0	74.4
=	-18.1	0.0	24.0	76.5
=	-17.8	0.0	24.0	79.0
=	-17.6	0.0	24.0	81.6
=	-17.2	0.0	24.0	84.2
=	-16.8	0.0	24.0	87.0
=	-16.4	0.0	24.0	89.4
=	-16.0	0.0	24.0	91.4
=	-15.6	0.0	24.0	92.9
=	-15.3	0.0	24.0	93.8
=	-14.9	0.0	24.0	94.9
=	-14.6	0.0	24.0	95.8
=	-14.4	0.0	24.0	96.3
=	-14.2	0.0	24.0	96.7
=	-14.0	0.0	24.0	97.0
=	-13.6	0.0	24.0	97.3
=	-13.4	0.0	24.0	97.8
=	-13.1	0.0	24.0	98.2
=	-12.8	0.0	24.0	98.5
=	-12.4	0.0	24.0	98.9
=	-12.1	0.0	24.0	99.1
=	-11.9	0.0	24.0	99.3
=	-11.6	0.0	24.0	99.5
=	-11.4	0.0	24.0	99.6
=	-11.1	0.0	24.0	99.7
=	-10.9	0.0	24.0	99.8
=	-10.6	0.0	24.0	99.9
=	-10.4	0.0	24.0	100.0
=	-9.9	0.0	24.0	100.2
=	-9.6	0.0	24.0	100.3
=	-9.4	0.0	24.0	100.3
=	-9.1	0.0	24.0	100.3
=	-8.7	0.0	24.0	100.3
=	-8.3	0.0	24.0	100.4
=	-8.0	0.0	24.0	100.4
=	-7.7	0.0	24.0	100.4
=	-7.4	0.0	24.0	100.4
=	-7.2	0.0	24.0	100.5
=	-6.9	0.0	24.0	100.5
=	-6.5	0.0	24.0	100.6
=	-6.0	0.0	24.0	100.6
=	-5.6	0.0	24.0	100.6
=	-5.2	0.0	24.0	100.6
=	-4.9	0.0	24.0	100.5
=	-4.6	0.0	24.0	100.5
=	-4.3	0.0	24.0	100.5
=	-4.0	0.0	24.0	100.5
=	-3.7	0.0	24.0	100.5
=	-3.5	0.0	24.0	100.5
=	-3.2	0.0	24.0	100.4
=	-2.8	0.0	24.0	100.4
=	-2.4	0.0	24.0	100.4
=	-2.0	0.0	24.0	100.3
=	-1.6	0.0	24.0	100.3
=	-1.4	0.0	24.0	100.3
=	-1.0	0.0	24.0	100.2
=	-0.6	0.0	24.0	100.1
=	-0.2	0.0	24.0	100.0
=	0.0	0.0	24.0	100.0
=	0.2	0.0	24.0	100.0
=	0.5	0.0	24.0	99.9
=	0.8	0.0	24.0	99.9
=	1.1	0.0	24.0	99.9
=	1.4	0.0	24.0	99.8
=	1.7	0.0	24.0	99.8
=	2.1	0.0	24.0	99.7
=	2.4	0.0	24.0	99.7
=	2.6	0.0	24.0	99.7
=	3.0	0.0	24.0	99.6
=	3.2	0.0	24.0	99.6
=	3.5	0.0	24.0	99.6
=	3.8	0.0	24.0	99.5
=	4.0	0.0	24.0	99.4
=	4.3	0.0	24.0	99.4
=	4.6	0.0	24.0	99.4
=	4.9	0.0	24.0	99.4
=	5.2	0.0	24.0	99.3
=	5.6	0.0	24.0	99.3
=	5.9	0.0	24.0	99.2
=	6.3	0.0	24.0	99.1
=	6.7	0.0	24.0	99.0
=	7.1	0.0	24.0	98.8
=	7.5	0.0	24.0	98.7
=	7.9	0.0	24.0	98.6
=	8.3	0.0	24.0	98.4
=	8.6	0.0	24.0	98.3
=	9.0	0.0	24.0	98.2
=	9.4	0.0	24.0	98.0
=	9.7	0.0	24.0	97.8
=	10.1	0.0	24.0	97.5
=	10.4	0.0	24.0	97.3
=	10.7	0.0	24.0	97.2
=	11.0	0.0	24.0	97.0
=	11.4	0.0	24.0	96.8
=	11.7	0.0	24.0	96.5
=	12.0	0.0	24.0	96.2
=	12.3	0.0	24.0	95.9
=	12.6	0.0	24.0	95.4
=	13.0	0.0	24.0	95.0
=	13.4	0.0	24.0	94.5
=	13.7	0.0	24.0	93.9
=	14.0	0.0	24.0	93.5
=	14.3	0.0	24.0	93.0
=	14.6	0.0	24.0	92.4
=	14.9	0.0	24.0	91.7
=	15.1	0.0	24.0	90.8
=	15.4	0.0	24.0	90.1
=	15.6	0.0	24.0	89.1
=	15.9	0.0	24.0	88.0
=	16.3	0.0	24.0	86.4
=	16.5	0.0	24.0	84.9
=	16.9	0.0	24.0	82.5
=	17.3	0.0	24.0	79.5
=	17.7	0.0	24.0	76.3
=	18.0	0.0	24.0	73.1
=	18.3	0.0	24.0	70.5
=	18.7	0.0	24.0	66.5
=	19.1	0.0	24.0	62.2
=	19.5	0.0	24.0	57.7
=	19.8	0.0	24.0	54.0
=	20.1	0.0	24.0	51.2
=	20.4	0.0	24.0	48.1
=	20.6	0.0	24.0	45.5
=	21.0	0.0	24.0	41.2
=	21.4	0.0	24.0	37.0
=	21.7	0.0	24.0	33.1
=	22.1	0.0	24.0	29.8
=	22.3	0.0	24.0	27.8
=	22.5	0.0	24.0	25.4
=	22.9	0.0	24.0	22.0
=	23.3	0.0	24.0	19.5
=	23.5	0.0	24.0	17.9
=	23.8	0.0	24.0	16.0
=	24.1	0.0	24.0	14.7
=	24.4	0.0	24.0	13.6
=	24.8	0.0	24.0	12.0
=	25.1	0.0	24.0	11.0
=	25.4	0.0	24.0	10.1
=	25.7	0.0	24.0	9.3
=	26.1	0.0	24.0	8.5
=	26.3	0.0	24.0	8.0
=	26.7	0.0	24.0	7.4
=	27.0	0.0	24.0	6.8
=	27.3	0.0	24.0	6.4
=	27.5	0.0	24.0	6.1
=	27.9	0.0	24.0	5.8
=	28.1	0.0	24.0	5.5
=	28.4	0.0	24.0	5.3
=	28.6	0.0	24.0	5.1
=	28.9	0.0	24.0	4.9
=	29.1	0.0	24.0	4.6
=	29.4	0.0	24.0	4.4
=	29.7	0.0	24.0	4.2
=	30.0	0.0	24.0	4.0
=	30.4	0.0	24.0	3.8
=	30.7	0.0	24.0	3.7
=	31.0	0.0	24.0	3.6
=	31.2	0.0	24.0	3.5
=	31.4	0.0	24.0	3.4
=	31.7	0.0	24.0	3.3
=	32.1	0.0	24.0	3.1
=	32.5	0.0	24.0	3.0
=	32.9	0.0	24.0	2.9
=	33.2	0.0	24.0	2.8
=	33.5	0.0	24.0	2.7
=	34.0	0.0	24.0	2.6
=	34.4	0.0	24.0	2.5
=	34.8	0.0	24.0	2.5
=	35.1	0.0	24.0	2.4
=	35.4	0.0	24.0	2.3
=	35.6	0.0	24.0	2.3
=	35.9	0.0	24.0	2.3
=	36.2	0.0	24.0	2.2
=	36.5	0.0	24.0	2.2
=	36.9	0.0	24.0	2.1
=	37.2	0.0	24.0	2.1
=	37.4	0.0	24.0	2.1
=	37.7	0.0	24.0	2.0
=	37.9	0.0	24.0	2.0
=	38.2	0.0	24.0	2.0
=	38.5	0.0	24.0	1.9
=	38.7	0.0	24.0	1.9
=	39.0	0.0	24.0	1.9
=	39.4	0.0	24.0	1.8
=	39.6	0.0	24.0	1.8
=	39.8	0.0	24.0	1.8
=	40.1	0.0	24.0	1.8
=	40.4	0.0	24.0	1.8
=	40.7	0.0	24.0	1.7
=	41.0	0.0	24.0	1.7
=	41.3	0.0	24.0	1.7
=	41.6	0.0	24.0	1.7
=	42.0	0.0	24.0	1.7
=	42.3	0.0	24.0	1.6
=	42.7	0.0	24.0	1.6
=	43.0	0.0	24.0	1.6
=	43.3	0.0	24.0	1.6
=	43.7	0.0	24.0	1.6
=	44.1	0.0	24.0	1.6
=	44.4	0.0	24.0	1.5
=	44.7	0.0	24.0	1.5
=	45.1	0.0	24.0	1.5
=	45.4	0.0	24.0	1.5
=	45.6	0.0	24.0	1.5
=	45.9	0.0	24.0	1.4
=	46.3	0.0	24.0	1.4
=	46.7	0.0	24.0	1.4
=	47.0	0.0	24.0	1.4
=	47.4	0.0	24.0	1.4
=	47.8	0.0	24.0	1.3
=	48.1	0.0	24.0	1.3
=	48.4	0.0	24.0	1.3
=	48.7	0.0	24.0	1.3
=	49.0	0.0	24.0	1.3
=	49.3	0.0	24.0	1.3
=	49.5	0.0	24.0	1.3
=	49.9	0.0	24.0	1.3
=	50.2	0.0	24.0	1.3
=	50.4	0.0	24.0	1.2
=	50.8	0.0	24.0	1.2
=	51.2	0.0	24.0	1.2
=	51.5	0.0	24.0	1.2
=	51.8	0.0	24.0	1.2
=	52.2	0.0	24.0	1.2
=	52.5	0.0	24.0	1.2
=	52.8	0.0	24.0	1.2
=	53.3	0.0	24.0	1.2
=	53.6	0.0	24.0	1.1
=	53.9	0.0	24.0	1.1
=	54.1	0.0	24.0	1.1
=	54.4	0.0	24.0	1.1
=	54.7	0.0	24.0	1.1
=	54.9	0.0	24.0	1.1
=	55.2	0.0	24.0	1.1
=	55.5	0.0	24.0	1.1
=	55.7	0.0	24.0	1.1
=	56.0	0.0	24.0	1.1
=	56.3	0.0	24.0	1.1
=	56.6	0.0	24.0	1.1
=	56.9	0.0	24.0	1.0
=	57.2	0.0	24.0	1.0
=	57.5	0.0	24.0	1.0
=	57.8	0.0	24.0	1.0
=	58.1	0.0	24.0	1.0
=	58.5	0.0	24.0	1.0
=	58.9	0.0	24.0	1.0
=	59.3	0.0	24.0	1.0
=	59.8	0.0	24.0	1.0
=	60.2	0.0	24.0	1.0
=	60.5	0.0	24.0	1.0
=	60.8	0.0	24.0	1.0
=	61.1	0.0	24.0	0.9
=	61.4	0.0	24.0	0.9
=	61.6	0.0	24.0	0.9
=	62.0	0.0	24.0	0.9
=	62.3	0.0	24.0	0.9
=	62.7	0.0	24.0	0.9
=	63.1	0.0	24.0	0.9
=	63.3	0.0	24.0	0.9
=	63.6	0.0	24.0	0.9
=	63.8	0.0	24.0	0.9
=	64.2	0.0	24.0	0.9
=	64.6	0.0	24.0	0.9
=	65.0	0.0	24.0	0.9
=	65.3	0.0	24.0	0.9
=	65.6	0.0	24.0	0.9
=	65.8	0.0	24.0	0.9
=	66.1	0.0	24.0	0.9
=	66.4	0.0	24.0	0.9
=	66.7	0.0	24.0	0.9
=	67.0	0.0	24.0	0.9
=	67.2	0.0	24.0	0.9
=	67.5	0.0	24.0	0.9
=	67.8	0.0	24.0	0.9
=	68.1	0.0	24.0	0.9
=	68.4	0.0	24.0	0.9
=	68.8	0.0	24.0	0.8
=	69.2	0.0	24.0	0.8
=	69.6	0.0	24.0	0.8
=	70.0	0.0	24.0	0.8
=	70.4	0.0	24.0	0.8
=	70.8	0.0	24.0	0.8
=	71.1	0.0	24.0	0.8
=	71.4	0.0	24.0	0.8
=	71.8	0.0	24.0	0.8
=	72.0	0.0	24.0	0.8
=	72.3	0.0	24.0	0.8
=	72.6	0.0	24.0	0.8
=	72.9	0.0	24.0	0.8
=	73.3	0.0	24.0	0.8
=	73.6	0.0	24.0	0.8
=	73.9	0.0	24.0	0.8
=	74.3	0.0	24.0	0.8
=	74.5	0.0	24.0	0.8
=	74.8	0.0	24.0	0.8
=	75.2	0.0	24.0	0.8
=	75.5	0.0	24.0	0.8
=	75.9	0.0	24.0	0.8
=	76.3	0.0	24.0	0.8
=	76.7	0.0	24.0	0.8
=	77.1	0.0	24.0	0.8
=	77.4	0.0	24.0	0.7
=	77.7	0.0	24.0	0.7
=	78.0	0.0	24.0	0.7
=	78.3	0.0	24.0	0.7
=	78.5	0.0	24.0	0.7
=	78.8	0.0	24.0	0.7
=	79.1	0.0	24.0	0.7
=	79.3	0.0	24.0	0.7
=	79.5	0.0	24.0	0.7
=	79.8	0.0	24.0	0.7
=	80.1	0.0	24.0	0.7
=	80.5	0.0	24.0	0.7
=	80.8	0.0	24.0	0.7
=	81.2	0.0	24.0	0.7
=	81.6	0.0	24.0	0.7
=	82.0	0.0	24.0	0.7
=	82.3	0.0	24.0	0.7
=	82.6	0.0	24.0	0.7
=	82.8	0.0	24.0	0.7
=	83.2	0.0	24.0	0.7
=	83.5	0.0	24.0	0.7
=	83.8	0.0	24.0	0.7
=	84.2	0.0	24.0	0.7
=	84.5	0.0	24.0	0.7
=	84.8	0.0	24.0	0.7
=	85.2	0.0	24.0	0.7
=	85.6	0.0	24.0	0.7
=	85.9	0.0	24.0	0.7
=	86.2	0.0	24.0	0.7
=	86.5	0.0	24.0	0.7
=	86.8	0.0	24.0	0.7
=	87.2	0.0	24.0	0.7
=	87.4	0.0	24.0	0.7
=	87.8	0.0	24.0	0.7
=	88.2	0.0	24.0	0.7
=	88.6	0.0	24.0	0.7
=	88.8	0.0	24.0	0.7
=	89.1	0.0	24.0	0.7
=	89.4	0.0	24.0	0.7
=	89.8	0.0	24.0	0.7
=	90.1	0.0	24.0	0.7
:EOM # End of Measurement
#
# RFA300 ASCII Measurement Dump ( BDS format )
#
# Measurement number 	2
#
%VNR 1.0
%MOD 	RAT
%TYP 	SCN
%SCN 	PRO
%FLD 	ION
%DAT 	09-21-2011
%TIM 	12:00:00
%FSZ 	040	040
%BMT 	PHO	   10.0
%SSD 	1000
%BUP 	0
%BRD 	1000
%FSH 	1
%ASC 	0
%WEG 	15
%GPO 	0
%CPO 	0
%MEA 	6
%PRD 	50,0
%PTS 	607
%STS 	    -94.3	  0.0	   50.0 # Start Scan values in mm ( X , Y , Z )
%EDS 	    94.2	   0.0	   50.0 # End Scan values in mm ( X , Y , Z )
#
#	  X      Y      Z     Dose
#
=	-94.3	0.0	50.0	0.7
=	-94.0	0.0	50.0	0.7
=	-93.7	0.0	50.0	0.7
=	-93.3	0.0	50.0	0.7
=	-92.9	0.0	50.0	0.7
=	-92.7	0.0	50.0	0.7
=	-92.4	0.0	50.0	0.7
=	-92.2	0.0	50.0	0.7
=	-91.9	0.0	50.0	0.7
=	-91.6	0.0	50.0	0.7
=	-91.3	0.0	50.0	0.7
=	-90.9	0.0	50.0	0.7
=	-90.6	0.0	50.0	0.7
=	-90.2	0.0	50.0	0.7
=	-89.9	0.0	50.0	0.7
=	-89.6	0.0	50.0	0.7
=	-89.3	0.0	50.0	0.7
=	-89.0	0.0	50.0	0.7
=	-88.7	0.0	50.0	0.7
=	-88.4	0.0	50.0	0.7
=	-88.1	0.0	50.0	0.7
=	-87.8	0.0	50.0	0.8
=	-87.4	0.0	50.0	0.8
=	-87.2	0.0	50.0	0.8
=	-86.8	0.0	50.0	0.8
=	-86.5	0.0	50.0	0.8
=	-86.1	0.0	50.0	0.8
=	-85.9	0.0	50.0	0.8
=	-85.6	0.0	50.0	0.8
=	-85.2	0.0	50.0	0.8
=	-84.8	0.0	50.0	0.8
=	-84.4	0.0	50.0	0.8
=	-84.1	0.0	50.0	0.8
=	-83.7	0.0	50.0	0.8
=	-83.5	0.0	50.0	0.8
=	-83.2	0.0	50.0	0.8
=	-82.9	0.0	50.0	0.8
=	-82.5	0.0	50.0	0.8
=	-82.2	0.0	50.0	0.8
=	-81.8	0.0	50.0	0.8
=	-81.6	0.0	50.0	0.8
=	-81.3	0.0	50.0	0.8
=	-81.0	0.0	50.0	0.8
=	-80.6	0.0	50.0	0.8
=	-80.3	0.0	50.0	0.8
=	-80.1	0.0	50.0	0.8
=	-79.7	0.0	50.0	0.8
=	-79.3	0.0	50.0	0.8
=	-78.8	0.0	50.0	0.8
=	-78.5	0.0	50.0	0.8
=	-78.2	0.0	50.0	0.8
=	-77.9	0.0	50.0	0.8
=	-77.6	0.0	50.0	0.8
=	-77.3	0.0	50.0	0.9
=	-77.0	0.0	50.0	0.9
=	-76.8	0.0	50.0	0.9
=	-76.4	0.0	50.0	0.9
=	-76.1	0.0	50.0	0.9
=	-75.8	0.0	50.0	0.9
=	-75.4	0.0	50.0	0.9
=	-75.0	0.0	50.0	0.9
=	-74.6	0.0	50.0	0.9
=	-74.1	0.0	50.0	0.9
=	-73.7	0.0	50.0	0.9
=	-73.3	0.0	50.0	0.9
=	-72.9	0.0	50.0	0.9
=	-72.7	0.0	50.0	0.9
=	-72.4	0.0	50.0	0.9
=	-72.1	0.0	50.0	0.9
=	-71.8	0.0	50.0	0.9
=	-71.5	0.0	50.0	0.9
=	-71.2	0.0	50.0	0.9
=	-71.0	0.0	50.0	0.9
=	-70.8	0.0	50.0	0.9
=	-70.5	0.0	50.0	0.9
=	-70.2	0.0	50.0	0.9
=	-69.9	0.0	50.0	0.9
=	-69.5	0.0	50.0	0.9
=	-69.3	0.0	50.0	0.9
=	-68.9	0.0	50.0	1.0
=	-68.5	0.0	50.0	1.0
=	-68.3	0.0	50.0	1.0
=	-68.0	0.0	50.0	1.0
=	-67.7	0.0	50.0	1.0
=	-67.4	0.0	50.0	1.0
=	-67.2	0.0	50.0	1.0
=	-66.9	0.0	50.0	1.0
=	-66.7	0.0	50.0	1.0
=	-66.3	0.0	50.0	1.0
=	-65.9	0.0	50.0	1.0
=	-65.5	0.0	50.0	1.0
=	-65.1	0.0	50.0	1.0
=	-64.8	0.0	50.0	1.0
=	-64.4	0.0	50.0	1.0
=	-64.2	0.0	50.0	1.0
=	-63.9	0.0	50.0	1.0
=	-63.6	0.0	50.0	1.0
=	-63.4	0.0	50.0	1.1
=	-63.0	0.0	50.0	1.1
=	-62.7	0.0	50.0	1.1
=	-62.4	0.0	50.0	1.1
=	-62.1	0.0	50.0	1.1
=	-61.9	0.0	50.0	1.1
=	-61.6	0.0	50.0	1.1
=	-61.3	0.0	50.0	1.1
=	-61.0	0.0	50.0	1.1
=	-60.6	0.0	50.0	1.1
=	-60.4	0.0	50.0	1.1
=	-60.0	0.0	50.0	1.1
=	-59.6	0.0	50.0	1.1
=	-59.2	0.0	50.0	1.1
=	-58.9	0.0	50.0	1.1
=	-58.7	0.0	50.0	1.1
=	-58.3	0.0	50.0	1.1
=	-58.0	0.0	50.0	1.2
=	-57.7	0.0	50.0	1.2
=	-57.3	0.0	50.0	1.2
=	-56.9	0.0	50.0	1.2
=	-56.5	0.0	50.0	1.2
=	-56.3	0.0	50.0	1.2
=	-56.1	0.0	50.0	1.2
=	-55.8	0.0	50.0	1.2
=	-55.6	0.0	50.0	1.2
=	-55.3	0.0	50.0	1.3
=	-54.9	0.0	50.0	1.3
=	-54.5	0.0	50.0	1.3
=	-54.2	0.0	50.0	1.3
=	-53.9	0.0	50.0	1.3
=	-53.5	0.0	50.0	1.3
=	-53.1	0.0	50.0	1.3
=	-52.7	0.0	50.0	1.3
=	-52.4	0.0	50.0	1.3
=	-52.0	0.0	50.0	1.4
=	-51.7	0.0	50.0	1.4
=	-51.4	0.0	50.0	1.4
=	-51.0	0.0	50.0	1.4
=	-50.6	0.0	50.0	1.4
=	-50.3	0.0	50.0	1.4
=	-49.9	0.0	50.0	1.5
=	-49.6	0.0	50.0	1.5
=	-49.4	0.0	50.0	1.5
=	-49.1	0.0	50.0	1.5
=	-48.7	0.0	50.0	1.5
=	-48.5	0.0	50.0	1.5
=	-48.2	0.0	50.0	1.5
=	-47.9	0.0	50.0	1.5
=	-47.6	0.0	50.0	1.6
=	-47.3	0.0	50.0	1.6
=	-47.0	0.0	50.0	1.6
=	-46.7	0.0	50.0	1.6
=	-46.4	0.0	50.0	1.6
=	-46.2	0.0	50.0	1.7
=	-45.8	0.0	50.0	1.7
=	-45.5	0.0	50.0	1.7
=	-45.2	0.0	50.0	1.7
=	-44.9	0.0	50.0	1.8
=	-44.6	0.0	50.0	1.8
=	-44.2	0.0	50.0	1.8
=	-43.8	0.0	50.0	1.9
=	-43.5	0.0	50.0	1.9
=	-43.2	0.0	50.0	1.9
=	-42.9	0.0	50.0	1.9
=	-42.5	0.0	50.0	2.0
=	-42.3	0.0	50.0	2.0
=	-42.0	0.0	50.0	2.0
=	-41.6	0.0	50.0	2.0
=	-41.3	0.0	50.0	2.1
=	-41.1	0.0	50.0	2.1
=	-40.8	0.0	50.0	2.1
=	-40.5	0.0	50.0	2.2
=	-40.2	0.0	50.0	2.2
=	-39.9	0.0	50.0	2.2
=	-39.7	0.0	50.0	2.3
=	-39.3	0.0	50.0	2.3
=	-39.0	0.0	50.0	2.3
=	-38.6	0.0	50.0	2.4
=	-38.2	0.0	50.0	2.4
=	-37.9	0.0	50.0	2.5
=	-37.7	0.0	50.0	2.6
=	-37.5	0.0	50.0	2.6
=	-37.2	0.0	50.0	2.6
=	-37.0	0.0	50.0	2.7
=	-36.7	0.0	50.0	2.8
=	-36.4	0.0	50.0	2.8
=	-36.2	0.0	50.0	2.9
=	-35.8	0.0	50.0	2.9
=	-35.6	0.0	50.0	3.0
=	-35.3	0.0	50.0	3.1
=	-35.0	0.0	50.0	3.1
=	-34.6	0.0	50.0	3.2
=	-34.2	0.0	50.0	3.4
=	-33.8	0.0	50.0	3.5
=	-33.4	0.0	50.0	3.6
=	-33.0	0.0	50.0	3.7
=	-32.6	0.0	50.0	3.9
=	-32.2	0.0	50.0	4.1
=	-31.8	0.0	50.0	4.3
=	-31.6	0.0	50.0	4.5
=	-31.3	0.0	50.0	4.7
=	-30.9	0.0	50.0	4.9
=	-30.7	0.0	50.0	5.1
=	-30.4	0.0	50.0	5.2
=	-30.2	0.0	50.0	5.5
=	-29.9	0.0	50.0	5.7
=	-29.6	0.0	50.0	5.9
=	-29.2	0.0	50.0	6.3
=	-28.7	0.0	50.0	6.9
=	-28.5	0.0	50.0	7.3
=	-28.2	0.0	50.0	7.6
=	-27.9	0.0	50.0	8.1
=	-27.5	0.0	50.0	8.7
=	-27.2	0.0	50.0	9.2
=	-26.9	0.0	50.0	9.8
=	-26.7	0.0	50.0	10.5
=	-26.3	0.0	50.0	11.5
=	-25.9	0.0	50.0	12.6
=	-25.6	0.0	50.0	13.6
=	-25.3	0.0	50.0	14.7
=	-25.0	0.0	50.0	15.9
=	-24.8	0.0	50.0	16.8
=	-24.5	0.0	50.0	18.3
=	-24.2	0.0	50.0	20.0
=	-24.0	0.0	50.0	21.8
=	-23.7	0.0	50.0	24.0
=	-23.4	0.0	50.0	26.1
=	-23.2	0.0	50.0	28.1
=	-23.0	0.0	50.0	30.1
=	-22.7	0.0	50.0	32.4
=	-22.4	0.0	50.0	35.5
=	-22.2	0.0	50.0	38.0
=	-21.8	0.0	50.0	41.6
=	-21.4	0.0	50.0	46.1
=	-21.2	0.0	50.0	49.0
=	-20.8	0.0	50.0	53.0
=	-20.5	0.0	50.0	56.4
=	-20.2	0.0	50.0	59.8
=	-19.9	0.0	50.0	62.9
=	-19.7	0.0	50.0	65.7
=	-19.4	0.0	50.0	68.6
=	-19.1	0.0	50.0	71.3
=	-18.8	0.0	50.0	74.5
=	-18.4	0.0	50.0	78.3
=	-18.1	0.0	50.0	80.6
=	-17.7	0.0	50.0	83.5
=	-17.3	0.0	50.0	86.1
=	-17.0	0.0	50.0	88.1
=	-16.7	0.0	50.0	89.2
=	-16.4	0.0	50.0	90.6
=	-16.1	0.0	50.0	91.7
=	-15.7	0.0	50.0	92.9
=	-15.3	0.0	50.0	94.0
=	-15.1	0.0	50.0	94.8
=	-14.8	0.0	50.0	95.4
=	-14.5	0.0	50.0	95.9
=	-14.3	0.0	50.0	96.2
=	-14.0	0.0	50.0	96.6
=	-13.7	0.0	50.0	96.9
=	-13.4	0.0	50.0	97.4
=	-13.1	0.0	50.0	97.8
=	-12.8	0.0	50.0	98.1
=	-12.5	0.0	50.0	98.3
=	-12.1	0.0	50.0	98.5
=	-11.7	0.0	50.0	98.9
=	-11.4	0.0	50.0	99.2
=	-11.1	0.0	50.0	99.3
=	-10.7	0.0	50.0	99.4
=	-10.4	0.0	50.0	99.5
=	-10.1	0.0	50.0	99.7
=	-9.8	0.0	50.0	99.8
=	-9.6	0.0	50.0	99.8
=	-9.3	0.0	50.0	99.9
=	-9.0	0.0	50.0	99.9
=	-8.6	0.0	50.0	100.0
=	-8.3	0.0	50.0	100.1
=	-8.0	0.0	50.0	100.2
=	-7.5	0.0	50.0	100.3
=	-7.2	0.0	50.0	100.3
=	-6.8	0.0	50.0	100.3
=	-6.4	0.0	50.0	100.3
=	-5.9	0.0	50.0	100.3
=	-5.6	0.0	50.0	100.3
=	-5.3	0.0	50.0	100.3
=	-5.0	0.0	50.0	100.3
=	-4.8	0.0	50.0	100.3
=	-4.5	0.0	50.0	100.3
=	-4.2	0.0	50.0	100.3
=	-3.9	0.0	50.0	100.2
=	-3.7	0.0	50.0	100.2
=	-3.4	0.0	50.0	100.2
=	-3.1	0.0	50.0	100.1
=	-2.8	0.0	50.0	100.1
=	-2.5	0.0	50.0	100.1
=	-2.3	0.0	50.0	100.1
=	-2.0	0.0	50.0	100.1
=	-1.8	0.0	50.0	100.1
=	-1.5	0.0	50.0	100.1
=	-1.2	0.0	50.0	100.1
=	-0.9	0.0	50.0	100.0
=	-0.6	0.0	50.0	100.0
=	-0.2	0.0	50.0	100.0
=	0.0	0.0	50.0	100.0
=	0.2	0.0	50.0	100.0
=	0.4	0.0	50.0	100.0
=	0.6	0.0	50.0	99.9
=	0.9	0.0	50.0	99.9
=	1.3	0.0	50.0	99.8
=	1.6	0.0	50.0	99.8
=	1.9	0.0	50.0	99.7
=	2.2	0.0	50.0	99.7
=	2.5	0.0	50.0	99.7
=	2.7	0.0	50.0	99.6
=	2.9	0.0	50.0	99.6
=	3.3	0.0	50.0	99.5
=	3.6	0.0	50.0	99.4
=	3.9	0.0	50.0	99.3
=	4.3	0.0	50.0	99.2
=	4.6	0.0	50.0	99.2
=	4.8	0.0	50.0	99.1
=	5.2	0.0	50.0	99.1
=	5.4	0.0	50.0	99.0
=	5.8	0.0	50.0	98.9
=	6.2	0.0	50.0	98.8
=	6.6	0.0	50.0	98.7
=	6.9	0.0	50.0	98.7
=	7.2	0.0	50.0	98.6
=	7.4	0.0	50.0	98.5
=	7.7	0.0	50.0	98.5
=	8.0	0.0	50.0	98.4
=	8.4	0.0	50.0	98.3
=	8.8	0.0	50.0	98.1
=	9.1	0.0	50.0	97.8
=	9.5	0.0	50.0	97.6
=	9.8	0.0	50.0	97.5
=	10.2	0.0	50.0	97.2
=	10.6	0.0	50.0	97.0
=	10.9	0.0	50.0	96.8
=	11.1	0.0	50.0	96.6
=	11.5	0.0	50.0	96.4
=	11.9	0.0	50.0	96.0
=	12.1	0.0	50.0	95.7
=	12.4	0.0	50.0	95.5
=	12.6	0.0	50.0	95.2
=	12.9	0.0	50.0	94.9
=	13.1	0.0	50.0	94.5
=	13.4	0.0	50.0	94.3
=	13.6	0.0	50.0	94.1
=	13.9	0.0	50.0	93.6
=	14.2	0.0	50.0	93.1
=	14.5	0.0	50.0	92.2
=	14.7	0.0	50.0	91.9
=	14.9	0.0	50.0	91.4
=	15.2	0.0	50.0	90.7
=	15.5	0.0	50.0	89.9
=	15.8	0.0	50.0	88.9
=	16.1	0.0	50.0	87.7
=	16.5	0.0	50.0	86.3
=	16.7	0.0	50.0	85.1
=	17.0	0.0	50.0	83.6
=	17.2	0.0	50.0	82.2
=	17.5	0.0	50.0	80.1
=	17.7	0.0	50.0	78.7
=	18.0	0.0	50.0	77.0
=	18.2	0.0	50.0	75.1
=	18.5	0.0	50.0	72.5
=	18.8	0.0	50.0	69.7
=	19.2	0.0	50.0	66.1
=	19.4	0.0	50.0	63.7
=	19.6	0.0	50.0	61.0
=	19.9	0.0	50.0	58.1
=	20.3	0.0	50.0	54.7
=	20.5	0.0	50.0	52.4
=	20.8	0.0	50.0	48.8
=	21.1	0.0	50.0	46.0
=	21.3	0.0	50.0	43.5
=	21.6	0.0	50.0	39.8
=	21.9	0.0	50.0	37.2
=	22.1	0.0	50.0	35.0
=	22.4	0.0	50.0	31.6
=	22.8	0.0	50.0	28.7
=	23.1	0.0	50.0	25.5
=	23.4	0.0	50.0	23.4
=	23.6	0.0	50.0	21.8
=	23.9	0.0	50.0	19.8
=	24.2	0.0	50.0	18.2
=	24.5	0.0	50.0	16.7
=	24.7	0.0	50.0	15.6
=	24.9	0.0	50.0	14.6
=	25.2	0.0	50.0	13.4
=	25.6	0.0	50.0	12.1
=	25.9	0.0	50.0	11.3
=	26.1	0.0	50.0	10.6
=	26.4	0.0	50.0	9.9
=	26.7	0.0	50.0	9.4
=	26.9	0.0	50.0	8.9
=	27.1	0.0	50.0	8.5
=	27.4	0.0	50.0	8.1
=	27.7	0.0	50.0	7.7
=	28.0	0.0	50.0	7.2
=	28.2	0.0	50.0	6.8
=	28.5	0.0	50.0	6.5
=	28.7	0.0	50.0	6.2
=	29.0	0.0	50.0	6.0
=	29.3	0.0	50.0	5.7
=	29.7	0.0	50.0	5.4
=	30.0	0.0	50.0	5.2
=	30.3	0.0	50.0	4.9
=	30.7	0.0	50.0	4.6
=	31.0	0.0	50.0	4.4
=	31.3	0.0	50.0	4.3
=	31.6	0.0	50.0	4.1
=	31.9	0.0	50.0	3.9
=	32.2	0.0	50.0	3.9
=	32.5	0.0	50.0	3.7
=	32.8	0.0	50.0	3.6
=	33.2	0.0	50.0	3.5
=	33.5	0.0	50.0	3.4
=	33.8	0.0	50.0	3.3
=	34.0	0.0	50.0	3.2
=	34.3	0.0	50.0	3.1
=	34.7	0.0	50.0	3.0
=	35.1	0.0	50.0	2.9
=	35.5	0.0	50.0	2.8
=	35.9	0.0	50.0	2.8
=	36.1	0.0	50.0	2.7
=	36.5	0.0	50.0	2.6
=	36.8	0.0	50.0	2.6
=	37.0	0.0	50.0	2.5
=	37.4	0.0	50.0	2.5
=	37.8	0.0	50.0	2.4
=	38.1	0.0	50.0	2.3
=	38.6	0.0	50.0	2.3
=	38.9	0.0	50.0	2.2
=	39.2	0.0	50.0	2.2
=	39.6	0.0	50.0	2.1
=	39.9	0.0	50.0	2.1
=	40.2	0.0	50.0	2.1
=	40.4	0.0	50.0	2.0
=	40.8	0.0	50.0	2.0
=	41.2	0.0	50.0	2.0
=	41.6	0.0	50.0	1.9
=	42.0	0.0	50.0	1.9
=	42.4	0.0	50.0	1.8
=	42.7	0.0	50.0	1.8
=	43.0	0.0	50.0	1.8
=	43.3	0.0	50.0	1.7
=	43.6	0.0	50.0	1.7
=	43.9	0.0	50.0	1.7
=	44.2	0.0	50.0	1.7
=	44.5	0.0	50.0	1.7
=	44.7	0.0	50.0	1.7
=	44.9	0.0	50.0	1.6
=	45.2	0.0	50.0	1.6
=	45.4	0.0	50.0	1.6
=	45.8	0.0	50.0	1.6
=	46.0	0.0	50.0	1.6
=	46.3	0.0	50.0	1.6
=	46.6	0.0	50.0	1.6
=	46.9	0.0	50.0	1.5
=	47.2	0.0	50.0	1.5
=	47.5	0.0	50.0	1.5
=	47.9	0.0	50.0	1.5
=	48.3	0.0	50.0	1.5
=	48.8	0.0	50.0	1.4
=	49.1	0.0	50.0	1.4
=	49.5	0.0	50.0	1.4
=	49.8	0.0	50.0	1.4
=	50.1	0.0	50.0	1.4
=	50.6	0.0	50.0	1.4
=	50.9	0.0	50.0	1.3
=	51.2	0.0	50.0	1.3
=	51.5	0.0	50.0	1.3
=	51.7	0.0	50.0	1.3
=	52.0	0.0	50.0	1.3
=	52.3	0.0	50.0	1.3
=	52.7	0.0	50.0	1.3
=	53.0	0.0	50.0	1.2
=	53.3	0.0	50.0	1.2
=	53.6	0.0	50.0	1.2
=	53.9	0.0	50.0	1.2
=	54.2	0.0	50.0	1.2
=	54.5	0.0	50.0	1.2
=	54.8	0.0	50.0	1.2
=	55.1	0.0	50.0	1.2
=	55.4	0.0	50.0	1.2
=	55.7	0.0	50.0	1.2
=	56.0	0.0	50.0	1.1
=	56.4	0.0	50.0	1.1
=	56.8	0.0	50.0	1.1
=	57.2	0.0	50.0	1.1
=	57.6	0.0	50.0	1.1
=	58.0	0.0	50.0	1.1
=	58.2	0.0	50.0	1.1
=	58.7	0.0	50.0	1.1
=	59.1	0.0	50.0	1.1
=	59.4	0.0	50.0	1.1
=	59.7	0.0	50.0	1.1
=	59.9	0.0	50.0	1.0
=	60.2	0.0	50.0	1.0
=	60.4	0.0	50.0	1.0
=	60.7	0.0	50.0	1.0
=	61.1	0.0	50.0	1.0
=	61.4	0.0	50.0	1.0
=	61.8	0.0	50.0	1.0
=	62.1	0.0	50.0	1.0
=	62.3	0.0	50.0	1.0
=	62.5	0.0	50.0	1.0
=	62.8	0.0	50.0	1.0
=	63.2	0.0	50.0	1.0
=	63.4	0.0	50.0	1.0
=	63.9	0.0	50.0	1.0
=	64.3	0.0	50.0	1.0
=	64.7	0.0	50.0	1.0
=	65.1	0.0	50.0	1.0
=	65.4	0.0	50.0	0.9
=	65.8	0.0	50.0	0.9
=	66.1	0.0	50.0	0.9
=	66.4	0.0	50.0	0.9
=	66.6	0.0	50.0	0.9
=	67.0	0.0	50.0	0.9
=	67.3	0.0	50.0	0.9
=	67.6	0.0	50.0	0.9
=	67.9	0.0	50.0	0.9
=	68.3	0.0	50.0	0.9
=	68.6	0.0	50.0	0.9
=	69.0	0.0	50.0	0.9
=	69.3	0.0	50.0	0.9
=	69.6	0.0	50.0	0.9
=	70.0	0.0	50.0	0.9
=	70.4	0.0	50.0	0.9
=	70.8	0.0	50.0	0.9
=	71.1	0.0	50.0	0.9
=	71.4	0.0	50.0	0.9
=	71.7	0.0	50.0	0.8
=	72.0	0.0	50.0	0.8
=	72.2	0.0	50.0	0.8
=	72.4	0.0	50.0	0.8
=	72.7	0.0	50.0	0.8
=	72.9	0.0	50.0	0.8
=	73.2	0.0	50.0	0.8
=	73.5	0.0	50.0	0.8
=	73.8	0.0	50.0	0.8
=	74.1	0.0	50.0	0.8
=	74.4	0.0	50.0	0.8
=	74.8	0.0	50.0	0.8
=	75.1	0.0	50.0	0.8
=	75.4	0.0	50.0	0.8
=	75.7	0.0	50.0	0.8
=	76.0	0.0	50.0	0.8
=	76.4	0.0	50.0	0.8
=	76.7	0.0	50.0	0.8
=	77.1	0.0	50.0	0.8
=	77.3	0.0	50.0	0.8
=	77.7	0.0	50.0	0.8
=	77.9	0.0	50.0	0.8
=	78.2	0.0	50.0	0.8
=	78.5	0.0	50.0	0.8
=	78.8	0.0	50.0	0.8
=	79.1	0.0	50.0	0.8
=	79.3	0.0	50.0	0.8
=	79.5	0.0	50.0	0.8
=	79.9	0.0	50.0	0.8
=	80.2	0.0	50.0	0.7
=	80.5	0.0	50.0	0.7
=	80.9	0.0	50.0	0.7
=	81.4	0.0	50.0	0.7
=	81.8	0.0	50.0	0.7
=	82.2	0.0	50.0	0.7
=	82.5	0.0	50.0	0.7
=	82.8	0.0	50.0	0.7
=	83.2	0.0	50.0	0.7
=	83.4	0.0	50.0	0.7
=	83.8	0.0	50.0	0.7
=	84.0	0.0	50.0	0.7
=	84.4	0.0	50.0	0.7
=	84.8	0.0	50.0	0.7
=	85.1	0.0	50.0	0.7
=	85.4	0.0	50.0	0.7
=	85.6	0.0	50.0	0.7
=	85.8	0.0	50.0	0.7
=	86.1	0.0	50.0	0.7
=	86.3	0.0	50.0	0.7
=	86.6	0.0	50.0	0.7
=	86.9	0.0	50.0	0.7
=	87.2	0.0	50.0	0.7
=	87.6	0.0	50.0	0.7
=	87.8	0.0	50.0	0.7
=	88.1	0.0	50.0	0.7
=	88.4	0.0	50.0	0.7
=	88.7	0.0	50.0	0.7
=	89.1	0.0	50.0	0.7
=	89.5	0.0	50.0	0.7
=	89.8	0.0	50.0	0.7
=	90.1	0.0	50.0	0.7
=	90.5	0.0	50.0	0.7
=	90.9	0.0	50.0	0.7
=	91.2	0.0	50.0	0.7
=	91.4	0.0	50.0	0.7
=	91.7	0.0	50.0	0.7
=	91.9	0.0	50.0	0.7
=	92.1	0.0	50.0	0.7
=	92.4	0.0	50.0	0.7
=	92.7	0.0	50.0	0.7
=	93.1	0.0	50.0	0.7
=	93.3	0.0	50.0	0.7
=	93.7	0.0	50.0	0.7
=	94.0	0.0	50.0	0.7
=	94.2	0.0	50.0	0.7
:EOM # End of Measurement
#
# RFA300 ASCII Measurement Dump ( BDS format )
#
# Measurement number 	3
#
%VNR 1.0
%MOD 	RAT
%TYP 	SCN
%SCN 	PRO
%FLD 	ION
%DAT 	09-21-2011
%TIM 	12:00:00
%FSZ 	040	040
%BMT 	PHO	   10.0
%SSD 	1000
%BUP 	0
%BRD 	1000
%FSH 	1
%ASC 	0
%WEG 	15
%GPO 	0
%CPO 	0
%MEA 	6
%PRD 	100,0
%PTS 	617
%STS 	    -98.9	  0.0	   100.0 # Start Scan values in mm ( X , Y , Z )
%EDS 	    98.9	   0.0	   100.0 # End Scan values in mm ( X , Y , Z )
#
#	  X      Y      Z     Dose
#
=	-98.9	0.0	100.0	0.7
=	-98.7	0.0	100.0	0.7
=	-98.4	0.0	100.0	0.7
=	-98.1	0.0	100.0	0.8
=	-97.8	0.0	100.0	0.8
=	-97.5	0.0	100.0	0.8
=	-97.2	0.0	100.0	0.8
=	-96.8	0.0	100.0	0.8
=	-96.5	0.0	100.0	0.8
=	-96.3	0.0	100.0	0.8
=	-95.9	0.0	100.0	0.8
=	-95.5	0.0	100.0	0.9
=	-95.1	0.0	100.0	0.9
=	-94.9	0.0	100.0	0.9
=	-94.6	0.0	100.0	0.9
=	-94.3	0.0	100.0	0.9
=	-94.0	0.0	100.0	0.9
=	-93.8	0.0	100.0	0.9
=	-93.5	0.0	100.0	0.9
=	-93.2	0.0	100.0	0.9
=	-92.9	0.0	100.0	0.9
=	-92.6	0.0	100.0	0.9
=	-92.4	0.0	100.0	0.9
=	-92.1	0.0	100.0	0.9
=	-91.9	0.0	100.0	0.9
=	-91.6	0.0	100.0	0.9
=	-91.3	0.0	100.0	0.9
=	-90.9	0.0	100.0	0.9
=	-90.7	0.0	100.0	0.9
=	-90.3	0.0	100.0	0.9
=	-89.9	0.0	100.0	0.9
=	-89.7	0.0	100.0	0.9
=	-89.4	0.0	100.0	0.9
=	-89.0	0.0	100.0	0.9
=	-88.6	0.0	100.0	0.9
=	-88.3	0.0	100.0	0.9
=	-87.8	0.0	100.0	1.0
=	-87.4	0.0	100.0	1.0
=	-87.1	0.0	100.0	1.0
=	-86.8	0.0	100.0	1.0
=	-86.6	0.0	100.0	1.0
=	-86.2	0.0	100.0	1.0
=	-85.8	0.0	100.0	1.0
=	-85.6	0.0	100.0	1.0
=	-85.2	0.0	100.0	1.0
=	-85.0	0.0	100.0	1.0
=	-84.6	0.0	100.0	1.0
=	-84.3	0.0	100.0	1.0
=	-84.0	0.0	100.0	1.0
=	-83.6	0.0	100.0	1.0
=	-83.3	0.0	100.0	1.0
=	-83.0	0.0	100.0	1.0
=	-82.7	0.0	100.0	1.0
=	-82.5	0.0	100.0	1.0
=	-82.2	0.0	100.0	1.0
=	-81.9	0.0	100.0	1.0
=	-81.6	0.0	100.0	1.0
=	-81.3	0.0	100.0	1.0
=	-80.9	0.0	100.0	1.0
=	-80.5	0.0	100.0	1.0
=	-80.1	0.0	100.0	1.0
=	-79.9	0.0	100.0	1.0
=	-79.6	0.0	100.0	1.0
=	-79.3	0.0	100.0	1.0
=	-79.1	0.0	100.0	1.1
=	-78.8	0.0	100.0	1.1
=	-78.5	0.0	100.0	1.1
=	-78.1	0.0	100.0	1.1
=	-77.6	0.0	100.0	1.1
=	-77.2	0.0	100.0	1.1
=	-77.0	0.0	100.0	1.1
=	-76.7	0.0	100.0	1.1
=	-76.4	0.0	100.0	1.1
=	-76.1	0.0	100.0	1.1
=	-75.8	0.0	100.0	1.1
=	-75.4	0.0	100.0	1.1
=	-75.0	0.0	100.0	1.1
=	-74.7	0.0	100.0	1.1
=	-74.5	0.0	100.0	1.1
=	-74.2	0.0	100.0	1.1
=	-73.9	0.0	100.0	1.1
=	-73.7	0.0	100.0	1.1
=	-73.4	0.0	100.0	1.1
=	-73.1	0.0	100.0	1.1
=	-72.7	0.0	100.0	1.1
=	-72.3	0.0	100.0	1.2
=	-71.9	0.0	100.0	1.2
=	-71.5	0.0	100.0	1.2
=	-71.1	0.0	100.0	1.2
=	-70.7	0.0	100.0	1.2
=	-70.5	0.0	100.0	1.2
=	-70.1	0.0	100.0	1.2
=	-69.9	0.0	100.0	1.2
=	-69.5	0.0	100.0	1.2
=	-69.1	0.0	100.0	1.2
=	-68.8	0.0	100.0	1.3
=	-68.6	0.0	100.0	1.3
=	-68.2	0.0	100.0	1.3
=	-68.0	0.0	100.0	1.3
=	-67.7	0.0	100.0	1.3
=	-67.4	0.0	100.0	1.3
=	-67.0	0.0	100.0	1.3
=	-66.8	0.0	100.0	1.3
=	-66.5	0.0	100.0	1.3
=	-66.3	0.0	100.0	1.3
=	-65.8	0.0	100.0	1.3
=	-65.4	0.0	100.0	1.3
=	-65.1	0.0	100.0	1.3
=	-64.8	0.0	100.0	1.4
=	-64.6	0.0	100.0	1.4
=	-64.3	0.0	100.0	1.4
=	-63.9	0.0	100.0	1.4
=	-63.4	0.0	100.0	1.4
=	-63.0	0.0	100.0	1.4
=	-62.7	0.0	100.0	1.5
=	-62.4	0.0	100.0	1.5
=	-62.1	0.0	100.0	1.5
=	-61.8	0.0	100.0	1.5
=	-61.4	0.0	100.0	1.5
=	-61.0	0.0	100.0	1.5
=	-60.6	0.0	100.0	1.5
=	-60.2	0.0	100.0	1.5
=	-59.9	0.0	100.0	1.6
=	-59.5	0.0	100.0	1.6
=	-59.2	0.0	100.0	1.6
=	-59.0	0.0	100.0	1.6
=	-58.7	0.0	100.0	1.6
=	-58.5	0.0	100.0	1.6
=	-58.1	0.0	100.0	1.6
=	-57.7	0.0	100.0	1.7
=	-57.4	0.0	100.0	1.7
=	-57.1	0.0	100.0	1.7
=	-56.8	0.0	100.0	1.7
=	-56.5	0.0	100.0	1.7
=	-56.2	0.0	100.0	1.7
=	-55.9	0.0	100.0	1.7
=	-55.5	0.0	100.0	1.7
=	-55.1	0.0	100.0	1.8
=	-54.8	0.0	100.0	1.8
=	-54.5	0.0	100.0	1.8
=	-54.2	0.0	100.0	1.8
=	-53.9	0.0	100.0	1.8
=	-53.6	0.0	100.0	1.8
=	-53.3	0.0	100.0	1.8
=	-53.1	0.0	100.0	1.9
=	-52.7	0.0	100.0	1.9
=	-52.3	0.0	100.0	1.9
=	-51.9	0.0	100.0	1.9
=	-51.6	0.0	100.0	2.0
=	-51.2	0.0	100.0	2.0
=	-50.8	0.0	100.0	2.0
=	-50.5	0.0	100.0	2.0
=	-50.2	0.0	100.0	2.0
=	-50.0	0.0	100.0	2.1
=	-49.6	0.0	100.0	2.1
=	-49.2	0.0	100.0	2.1
=	-48.9	0.0	100.0	2.2
=	-48.6	0.0	100.0	2.2
=	-48.2	0.0	100.0	2.2
=	-47.8	0.0	100.0	2.2
=	-47.6	0.0	100.0	2.3
=	-47.2	0.0	100.0	2.3
=	-46.9	0.0	100.0	2.3
=	-46.6	0.0	100.0	2.3
=	-46.2	0.0	100.0	2.4
=	-45.8	0.0	100.0	2.4
=	-45.3	0.0	100.0	2.4
=	-44.9	0.0	100.0	2.5
=	-44.5	0.0	100.0	2.5
=	-44.1	0.0	100.0	2.6
=	-43.8	0.0	100.0	2.6
=	-43.5	0.0	100.0	2.7
=	-43.2	0.0	100.0	2.7
=	-42.9	0.0	100.0	2.7
=	-42.7	0.0	100.0	2.8
=	-42.4	0.0	100.0	2.8
=	-42.1	0.0	100.0	2.8
=	-41.9	0.0	100.0	2.9
=	-41.6	0.0	100.0	2.9
=	-41.3	0.0	100.0	3.0
