:MSR 	5	 # No. of measurement in file
:SYS BDS 0   # Beam Data Scanner System
#
# RFA300 ASCII Measurement Dump ( BDS format )
#
# Measurement number 	1
#
%VNR 1.0
%MOD 	RAT
%TYP 	SCN
%SCN 	PRO
%FLD 	ION
%DAT 	10-14-2011
%TIM 	12:00:00
%FSZ 	400	300
%BMT 	PHO	   10.0
%SSD 	1000
%BUP 	0
%BRD 	1000
%FSH 	1
%ASC 	0
%WEG 	15
%GPO 	0
%CPO 	0
%MEA 	6
%PRD 	24,0
%PTS 	898
%STS 	    -274.4	  0.0	   24.0 # Start Scan values in mm ( X , Y , Z )
%EDS 	    273.9	   0.0	   24.0 # End Scan values in mm ( X , Y , Z )
#
#	  X      Y      Z     Dose
#
=	-274.4	0.0	24.0	6.7
=	-273.7	0.0	24.0	6.8
=	-272.8	0.0	24.0	6.8
=	-272.2	0.0	24.0	6.8
=	-271.7	0.0	24.0	6.9
=	-271.1	0.0	24.0	6.9
=	-270.5	0.0	24.0	7.0
=	-269.9	0.0	24.0	7.0
=	-269.2	0.0	24.0	7.0
=	-268.5	0.0	24.0	7.1
=	-268.0	0.0	24.0	7.1
=	-267.2	0.0	24.0	7.2
=	-266.4	0.0	24.0	7.2
=	-265.6	0.0	24.0	7.3
=	-264.9	0.0	24.0	7.3
=	-264.1	0.0	24.0	7.4
=	-263.4	0.0	24.0	7.4
=	-262.8	0.0	24.0	7.4
=	-262.2	0.0	24.0	7.5
=	-261.7	0.0	24.0	7.5
=	-261.1	0.0	24.0	7.5
=	-260.4	0.0	24.0	7.6
=	-259.7	0.0	24.0	7.6
=	-259.1	0.0	24.0	7.7
=	-258.6	0.0	24.0	7.7
=	-257.9	0.0	24.0	7.8
=	-257.3	0.0	24.0	7.8
=	-256.5	0.0	24.0	7.9
=	-255.8	0.0	24.0	8.0
=	-255.1	0.0	24.0	8.0
=	-254.4	0.0	24.0	8.1
=	-253.8	0.0	24.0	8.1
=	-253.2	0.0	24.0	8.2
=	-252.7	0.0	24.0	8.2
=	-252.1	0.0	24.0	8.3
=	-251.5	0.0	24.0	8.3
=	-250.9	0.0	24.0	8.4
=	-250.3	0.0	24.0	8.4
=	-249.6	0.0	24.0	8.5
=	-249.1	0.0	24.0	8.5
=	-248.5	0.0	24.0	8.6
=	-247.9	0.0	24.0	8.7
=	-247.2	0.0	24.0	8.7
=	-246.5	0.0	24.0	8.8
=	-245.8	0.0	24.0	8.9
=	-245.1	0.0	24.0	8.9
=	-244.4	0.0	24.0	9.0
=	-243.7	0.0	24.0	9.1
=	-242.9	0.0	24.0	9.1
=	-242.3	0.0	24.0	9.2
=	-241.7	0.0	24.0	9.3
=	-241.0	0.0	24.0	9.3
=	-240.4	0.0	24.0	9.4
=	-239.7	0.0	24.0	9.5
=	-239.0	0.0	24.0	9.6
=	-238.4	0.0	24.0	9.6
=	-237.8	0.0	24.0	9.7
=	-237.2	0.0	24.0	9.8
=	-236.6	0.0	24.0	9.8
=	-236.2	0.0	24.0	9.9
=	-235.6	0.0	24.0	10.0
=	-235.1	0.0	24.0	10.0
=	-234.6	0.0	24.0	10.1
=	-234.0	0.0	24.0	10.2
=	-233.3	0.0	24.0	10.3
=	-232.5	0.0	24.0	10.4
=	-231.8	0.0	24.0	10.5
=	-231.2	0.0	24.0	10.6
=	-230.6	0.0	24.0	10.7
=	-230.0	0.0	24.0	10.7
=	-229.4	0.0	24.0	10.8
=	-228.8	0.0	24.0	10.9
=	-228.1	0.0	24.0	11.0
=	-227.5	0.0	24.0	11.1
=	-226.9	0.0	24.0	11.2
=	-226.2	0.0	24.0	11.3
=	-225.5	0.0	24.0	11.5
=	-225.1	0.0	24.0	11.5
=	-224.4	0.0	24.0	11.6
=	-223.7	0.0	24.0	11.8
=	-223.1	0.0	24.0	11.9
=	-222.5	0.0	24.0	12.0
=	-221.9	0.0	24.0	12.1
=	-221.3	0.0	24.0	12.2
=	-220.7	0.0	24.0	12.3
=	-220.0	0.0	24.0	12.5
=	-219.3	0.0	24.0	12.7
=	-218.6	0.0	24.0	12.8
=	-217.8	0.0	24.0	13.1
=	-217.1	0.0	24.0	13.3
=	-216.5	0.0	24.0	13.6
=	-215.9	0.0	24.0	13.8
=	-215.4	0.0	24.0	14.1
=	-214.8	0.0	24.0	14.4
=	-214.2	0.0	24.0	14.8
=	-213.5	0.0	24.0	15.3
=	-212.9	0.0	24.0	15.9
=	-212.3	0.0	24.0	16.5
=	-211.7	0.0	24.0	17.3
=	-211.1	0.0	24.0	18.2
=	-210.5	0.0	24.0	19.6
=	-209.8	0.0	24.0	21.3
=	-209.2	0.0	24.0	23.1
=	-208.6	0.0	24.0	25.7
=	-208.0	0.0	24.0	29.1
=	-207.4	0.0	24.0	32.4
=	-206.8	0.0	24.0	36.2
=	-206.1	0.0	24.0	41.6
=	-205.5	0.0	24.0	46.5
=	-205.0	0.0	24.0	51.0
=	-204.4	0.0	24.0	55.8
=	-203.8	0.0	24.0	60.9
=	-203.3	0.0	24.0	65.7
=	-202.7	0.0	24.0	71.0
=	-202.0	0.0	24.0	76.4
=	-201.4	0.0	24.0	80.0
=	-200.7	0.0	24.0	84.0
=	-200.2	0.0	24.0	86.4
=	-199.6	0.0	24.0	88.6
=	-198.9	0.0	24.0	90.7
=	-198.3	0.0	24.0	92.0
=	-197.8	0.0	24.0	93.0
=	-197.2	0.0	24.0	93.8
=	-196.7	0.0	24.0	94.6
=	-196.1	0.0	24.0	95.1
=	-195.5	0.0	24.0	95.7
=	-194.9	0.0	24.0	96.1
=	-194.2	0.0	24.0	96.5
=	-193.6	0.0	24.0	96.8
=	-192.9	0.0	24.0	97.0
=	-192.3	0.0	24.0	97.3
=	-191.5	0.0	24.0	97.5
=	-190.9	0.0	24.0	97.8
=	-190.1	0.0	24.0	98.0
=	-189.5	0.0	24.0	98.1
=	-188.9	0.0	24.0	98.3
=	-188.1	0.0	24.0	98.4
=	-187.5	0.0	24.0	98.5
=	-186.8	0.0	24.0	98.6
=	-186.3	0.0	24.0	98.7
=	-185.7	0.0	24.0	98.8
=	-185.1	0.0	24.0	98.9
=	-184.5	0.0	24.0	99.0
=	-184.0	0.0	24.0	99.0
=	-183.5	0.0	24.0	99.1
=	-182.9	0.0	24.0	99.1
=	-182.3	0.0	24.0	99.2
=	-181.7	0.0	24.0	99.2
=	-181.1	0.0	24.0	99.3
=	-180.5	0.0	24.0	99.4
=	-179.9	0.0	24.0	99.4
=	-179.3	0.0	24.0	99.5
=	-178.5	0.0	24.0	99.5
=	-177.9	0.0	24.0	99.6
=	-177.4	0.0	24.0	99.6
=	-176.9	0.0	24.0	99.7
=	-176.4	0.0	24.0	99.7
=	-175.7	0.0	24.0	99.7
=	-175.0	0.0	24.0	99.7
=	-174.2	0.0	24.0	99.8
=	-173.6	0.0	24.0	99.8
=	-172.9	0.0	24.0	99.8
=	-172.3	0.0	24.0	99.8
=	-171.7	0.0	24.0	99.9
=	-171.1	0.0	24.0	99.9
=	-170.5	0.0	24.0	100.0
=	-169.9	0.0	24.0	100.0
=	-169.3	0.0	24.0	100.0
=	-168.6	0.0	24.0	100.0
=	-168.0	0.0	24.0	100.1
=	-167.4	0.0	24.0	100.1
=	-166.8	0.0	24.0	100.1
=	-166.1	0.0	24.0	100.1
=	-165.6	0.0	24.0	100.2
=	-164.9	0.0	24.0	100.2
=	-164.3	0.0	24.0	100.2
=	-163.7	0.0	24.0	100.2
=	-163.1	0.0	24.0	100.2
=	-162.3	0.0	24.0	100.2
=	-161.8	0.0	24.0	100.2
=	-161.2	0.0	24.0	100.2
=	-160.5	0.0	24.0	100.2
=	-159.9	0.0	24.0	100.2
=	-159.4	0.0	24.0	100.2
=	-158.9	0.0	24.0	100.3
=	-158.4	0.0	24.0	100.3
=	-157.8	0.0	24.0	100.3
=	-157.2	0.0	24.0	100.3
=	-156.6	0.0	24.0	100.3
=	-156.0	0.0	24.0	100.3
=	-155.4	0.0	24.0	100.4
=	-154.8	0.0	24.0	100.4
=	-154.3	0.0	24.0	100.4
=	-153.6	0.0	24.0	100.4
=	-152.9	0.0	24.0	100.4
=	-152.3	0.0	24.0	100.4
=	-151.6	0.0	24.0	100.4
=	-151.0	0.0	24.0	100.4
=	-150.3	0.0	24.0	100.5
=	-149.6	0.0	24.0	100.5
=	-149.0	0.0	24.0	100.5
=	-148.2	0.0	24.0	100.5
=	-147.6	0.0	24.0	100.5
=	-147.0	0.0	24.0	100.5
=	-146.5	0.0	24.0	100.6
=	-146.0	0.0	24.0	100.6
=	-145.2	0.0	24.0	100.6
=	-144.6	0.0	24.0	100.6
=	-144.2	0.0	24.0	100.6
=	-143.6	0.0	24.0	100.6
=	-143.1	0.0	24.0	100.6
=	-142.6	0.0	24.0	100.6
=	-142.0	0.0	24.0	100.6
=	-141.3	0.0	24.0	100.7
=	-140.8	0.0	24.0	100.7
=	-140.3	0.0	24.0	100.7
=	-139.7	0.0	24.0	100.7
=	-139.1	0.0	24.0	100.7
=	-138.6	0.0	24.0	100.7
=	-138.0	0.0	24.0	100.8
=	-137.5	0.0	24.0	100.8
=	-136.7	0.0	24.0	100.8
=	-136.1	0.0	24.0	100.8
=	-135.6	0.0	24.0	100.9
=	-135.1	0.0	24.0	100.9
=	-134.5	0.0	24.0	100.9
=	-133.7	0.0	24.0	100.9
=	-133.1	0.0	24.0	101.0
=	-132.6	0.0	24.0	101.0
=	-132.0	0.0	24.0	101.0
=	-131.3	0.0	24.0	101.0
=	-130.7	0.0	24.0	101.0
=	-130.2	0.0	24.0	101.0
=	-129.6	0.0	24.0	101.0
=	-128.9	0.0	24.0	101.1
=	-128.2	0.0	24.0	101.1
=	-127.6	0.0	24.0	101.1
=	-126.9	0.0	24.0	101.2
=	-126.3	0.0	24.0	101.2
=	-125.6	0.0	24.0	101.2
=	-124.8	0.0	24.0	101.3
=	-124.1	0.0	24.0	101.3
=	-123.5	0.0	24.0	101.3
=	-122.9	0.0	24.0	101.3
=	-122.3	0.0	24.0	101.3
=	-121.7	0.0	24.0	101.3
=	-121.0	0.0	24.0	101.4
=	-120.5	0.0	24.0	101.4
=	-120.0	0.0	24.0	101.4
=	-119.3	0.0	24.0	101.4
=	-118.7	0.0	24.0	101.4
=	-118.1	0.0	24.0	101.4
=	-117.6	0.0	24.0	101.4
=	-117.1	0.0	24.0	101.5
=	-116.5	0.0	24.0	101.5
=	-116.0	0.0	24.0	101.5
=	-115.5	0.0	24.0	101.5
=	-114.9	0.0	24.0	101.5
=	-114.2	0.0	24.0	101.5
=	-113.6	0.0	24.0	101.6
=	-113.1	0.0	24.0	101.6
=	-112.5	0.0	24.0	101.6
=	-111.9	0.0	24.0	101.6
=	-111.3	0.0	24.0	101.6
=	-110.7	0.0	24.0	101.6
=	-110.1	0.0	24.0	101.6
=	-109.4	0.0	24.0	101.6
=	-108.8	0.0	24.0	101.6
=	-108.2	0.0	24.0	101.6
=	-107.7	0.0	24.0	101.7
=	-106.9	0.0	24.0	101.7
=	-106.2	0.0	24.0	101.7
=	-105.7	0.0	24.0	101.7
=	-105.0	0.0	24.0	101.7
=	-104.4	0.0	24.0	101.8
=	-103.9	0.0	24.0	101.8
=	-103.3	0.0	24.0	101.8
=	-102.7	0.0	24.0	101.8
=	-102.0	0.0	24.0	101.8
=	-101.4	0.0	24.0	101.9
=	-100.9	0.0	24.0	101.8
=	-100.4	0.0	24.0	101.8
=	-99.9	0.0	24.0	101.8
=	-99.3	0.0	24.0	101.8
=	-98.7	0.0	24.0	101.8
=	-98.2	0.0	24.0	101.8
=	-97.6	0.0	24.0	101.9
=	-96.9	0.0	24.0	101.9
=	-96.3	0.0	24.0	101.9
=	-95.5	0.0	24.0	101.9
=	-94.9	0.0	24.0	101.9
=	-94.2	0.0	24.0	101.9
=	-93.7	0.0	24.0	101.9
=	-93.1	0.0	24.0	101.9
=	-92.5	0.0	24.0	101.9
=	-91.8	0.0	24.0	102.0
=	-91.1	0.0	24.0	102.0
=	-90.4	0.0	24.0	102.0
=	-89.9	0.0	24.0	102.0
=	-89.3	0.0	24.0	102.0
=	-88.8	0.0	24.0	102.0
=	-88.1	0.0	24.0	102.0
=	-87.5	0.0	24.0	102.0
=	-86.8	0.0	24.0	102.0
=	-86.2	0.0	24.0	102.0
=	-85.5	0.0	24.0	102.0
=	-84.9	0.0	24.0	102.0
=	-84.2	0.0	24.0	102.0
=	-83.7	0.0	24.0	102.0
=	-83.0	0.0	24.0	102.0
=	-82.3	0.0	24.0	102.0
=	-81.6	0.0	24.0	101.9
=	-81.1	0.0	24.0	101.9
=	-80.5	0.0	24.0	102.0
=	-79.8	0.0	24.0	102.0
=	-79.2	0.0	24.0	102.0
=	-78.5	0.0	24.0	102.0
=	-77.9	0.0	24.0	102.0
=	-77.3	0.0	24.0	102.0
=	-76.8	0.0	24.0	102.0
=	-76.3	0.0	24.0	102.0
=	-75.8	0.0	24.0	102.0
=	-75.2	0.0	24.0	102.0
=	-74.6	0.0	24.0	102.0
=	-73.9	0.0	24.0	102.0
=	-73.3	0.0	24.0	102.0
=	-72.6	0.0	24.0	102.0
=	-72.1	0.0	24.0	102.0
=	-71.5	0.0	24.0	102.0
=	-71.0	0.0	24.0	102.0
=	-70.5	0.0	24.0	102.0
=	-70.0	0.0	24.0	102.0
=	-69.3	0.0	24.0	102.0
=	-68.6	0.0	24.0	102.0
=	-68.1	0.0	24.0	102.0
=	-67.5	0.0	24.0	102.0
=	-66.8	0.0	24.0	102.0
=	-66.2	0.0	24.0	102.0
=	-65.5	0.0	24.0	102.0
=	-64.9	0.0	24.0	102.0
=	-64.2	0.0	24.0	102.0
=	-63.6	0.0	24.0	102.0
=	-63.1	0.0	24.0	102.0
=	-62.4	0.0	24.0	102.0
=	-61.7	0.0	24.0	102.0
=	-61.1	0.0	24.0	102.0
=	-60.5	0.0	24.0	102.0
=	-59.9	0.0	24.0	102.0
=	-59.3	0.0	24.0	101.9
=	-58.6	0.0	24.0	101.9
=	-58.0	0.0	24.0	102.0
=	-57.5	0.0	24.0	102.0
=	-56.9	0.0	24.0	101.9
=	-56.4	0.0	24.0	101.9
=	-55.8	0.0	24.0	101.9
=	-55.0	0.0	24.0	101.9
=	-54.2	0.0	24.0	101.9
=	-53.7	0.0	24.0	101.9
=	-53.1	0.0	24.0	101.9
=	-52.4	0.0	24.0	101.8
=	-51.8	0.0	24.0	101.8
=	-51.2	0.0	24.0	101.8
=	-50.7	0.0	24.0	101.8
=	-50.1	0.0	24.0	101.7
=	-49.4	0.0	24.0	101.7
=	-48.8	0.0	24.0	101.7
=	-48.1	0.0	24.0	101.7
=	-47.6	0.0	24.0	101.6
=	-47.2	0.0	24.0	101.6
=	-46.7	0.0	24.0	101.6
=	-46.1	0.0	24.0	101.6
=	-45.5	0.0	24.0	101.6
=	-44.9	0.0	24.0	101.6
=	-44.3	0.0	24.0	101.6
=	-43.7	0.0	24.0	101.5
=	-43.1	0.0	24.0	101.5
=	-42.7	0.0	24.0	101.5
=	-42.2	0.0	24.0	101.5
=	-41.7	0.0	24.0	101.4
=	-41.1	0.0	24.0	101.4
=	-40.6	0.0	24.0	101.4
=	-40.1	0.0	24.0	101.4
=	-39.7	0.0	24.0	101.4
=	-39.1	0.0	24.0	101.3
=	-38.5	0.0	24.0	101.3
=	-37.9	0.0	24.0	101.3
=	-37.4	0.0	24.0	101.3
=	-36.7	0.0	24.0	101.3
=	-36.2	0.0	24.0	101.3
=	-35.6	0.0	24.0	101.2
=	-35.1	0.0	24.0	101.2
=	-34.6	0.0	24.0	101.2
=	-34.1	0.0	24.0	101.2
=	-33.3	0.0	24.0	101.1
=	-32.6	0.0	24.0	101.1
=	-32.1	0.0	24.0	101.1
=	-31.4	0.0	24.0	101.0
=	-30.8	0.0	24.0	100.9
=	-30.2	0.0	24.0	100.9
=	-29.6	0.0	24.0	100.9
=	-28.9	0.0	24.0	100.9
=	-28.2	0.0	24.0	100.9
=	-27.7	0.0	24.0	100.8
=	-27.1	0.0	24.0	100.8
=	-26.6	0.0	24.0	100.8
=	-26.0	0.0	24.0	100.8
=	-25.5	0.0	24.0	100.7
=	-24.9	0.0	24.0	100.7
=	-24.3	0.0	24.0	100.7
=	-23.8	0.0	24.0	100.7
=	-23.3	0.0	24.0	100.7
=	-22.6	0.0	24.0	100.6
=	-22.0	0.0	24.0	100.6
=	-21.4	0.0	24.0	100.6
=	-20.9	0.0	24.0	100.6
=	-20.4	0.0	24.0	100.6
=	-19.7	0.0	24.0	100.6
=	-19.1	0.0	24.0	100.5
=	-18.5	0.0	24.0	100.5
=	-17.9	0.0	24.0	100.5
=	-17.3	0.0	24.0	100.5
=	-16.8	0.0	24.0	100.4
=	-16.3	0.0	24.0	100.4
=	-15.8	0.0	24.0	100.4
=	-15.3	0.0	24.0	100.4
=	-14.7	0.0	24.0	100.3
=	-14.1	0.0	24.0	100.2
=	-13.6	0.0	24.0	100.2
=	-12.9	0.0	24.0	100.2
=	-12.3	0.0	24.0	100.2
=	-11.6	0.0	24.0	100.2
=	-11.0	0.0	24.0	100.2
=	-10.4	0.0	24.0	100.2
=	-9.9	0.0	24.0	100.1
=	-9.3	0.0	24.0	100.1
=	-8.6	0.0	24.0	100.1
=	-8.1	0.0	24.0	100.1
=	-7.5	0.0	24.0	100.1
=	-6.9	0.0	24.0	100.1
=	-6.2	0.0	24.0	100.0
=	-5.5	0.0	24.0	100.0
=	-4.9	0.0	24.0	100.0
=	-4.2	0.0	24.0	100.0
=	-3.5	0.0	24.0	100.0
=	-2.9	0.0	24.0	100.0
=	-2.3	0.0	24.0	100.0
=	-1.4	0.0	24.0	100.0
=	-0.7	0.0	24.0	100.0
=	-0.2	0.0	24.0	100.0
=	0.0	0.0	24.0	100.0
=	0.3	0.0	24.0	100.0
=	0.9	0.0	24.0	100.0
=	1.7	0.0	24.0	100.0
=	2.4	0.0	24.0	100.0
=	3.1	0.0	24.0	100.0
=	3.7	0.0	24.0	100.0
=	4.3	0.0	24.0	100.0
=	5.0	0.0	24.0	100.0
=	5.7	0.0	24.0	100.0
=	6.4	0.0	24.0	100.0
=	7.0	0.0	24.0	100.1
=	7.6	0.0	24.0	100.1
=	8.2	0.0	24.0	100.1
=	8.8	0.0	24.0	100.1
=	9.4	0.0	24.0	100.1
=	10.0	0.0	24.0	100.1
=	10.5	0.0	24.0	100.2
=	11.2	0.0	24.0	100.2
=	11.8	0.0	24.0	100.2
=	12.4	0.0	24.0	100.2
=	13.0	0.0	24.0	100.2
=	13.7	0.0	24.0	100.2
=	14.3	0.0	24.0	100.3
=	14.9	0.0	24.0	100.3
=	15.4	0.0	24.0	100.4
=	15.9	0.0	24.0	100.4
=	16.4	0.0	24.0	100.4
=	16.9	0.0	24.0	100.4
=	17.5	0.0	24.0	100.5
=	18.1	0.0	24.0	100.5
=	18.7	0.0	24.0	100.5
=	19.3	0.0	24.0	100.6
=	19.9	0.0	24.0	100.6
=	20.5	0.0	24.0	100.6
=	21.1	0.0	24.0	100.6
=	21.5	0.0	24.0	100.6
=	22.1	0.0	24.0	100.6
=	22.8	0.0	24.0	100.6
=	23.4	0.0	24.0	100.7
=	23.9	0.0	24.0	100.7
=	24.5	0.0	24.0	100.7
=	25.1	0.0	24.0	100.7
=	25.6	0.0	24.0	100.7
=	26.2	0.0	24.0	100.8
=	26.7	0.0	24.0	100.8
=	27.3	0.0	24.0	100.8
=	27.8	0.0	24.0	100.8
=	28.4	0.0	24.0	100.9
=	29.1	0.0	24.0	100.9
=	29.8	0.0	24.0	100.9
=	30.4	0.0	24.0	100.9
=	31.0	0.0	24.0	101.0
=	31.6	0.0	24.0	101.0
=	32.2	0.0	24.0	101.1
=	32.8	0.0	24.0	101.1
=	33.5	0.0	24.0	101.2
=	34.2	0.0	24.0	101.2
=	34.7	0.0	24.0	101.2
=	35.3	0.0	24.0	101.2
=	35.8	0.0	24.0	101.2
=	36.3	0.0	24.0	101.3
=	36.8	0.0	24.0	101.3
=	37.5	0.0	24.0	101.3
=	38.0	0.0	24.0	101.3
=	38.6	0.0	24.0	101.3
=	39.2	0.0	24.0	101.3
=	39.8	0.0	24.0	101.4
=	40.3	0.0	24.0	101.4
=	40.8	0.0	24.0	101.4
=	41.3	0.0	24.0	101.4
=	41.8	0.0	24.0	101.4
=	42.3	0.0	24.0	101.5
=	42.8	0.0	24.0	101.5
=	43.3	0.0	24.0	101.5
=	43.8	0.0	24.0	101.5
=	44.4	0.0	24.0	101.6
=	45.0	0.0	24.0	101.6
=	45.6	0.0	24.0	101.6
=	46.2	0.0	24.0	101.6
=	46.8	0.0	24.0	101.6
=	47.3	0.0	24.0	101.6
=	47.8	0.0	24.0	101.7
=	48.3	0.0	24.0	101.7
=	49.0	0.0	24.0	101.7
=	49.6	0.0	24.0	101.7
=	50.2	0.0	24.0	101.7
=	50.8	0.0	24.0	101.8
=	51.4	0.0	24.0	101.8
=	52.0	0.0	24.0	101.8
=	52.6	0.0	24.0	101.8
=	53.2	0.0	24.0	101.9
=	53.8	0.0	24.0	101.9
=	54.4	0.0	24.0	101.9
=	55.2	0.0	24.0	101.9
=	56.0	0.0	24.0	101.9
=	56.5	0.0	24.0	101.9
=	57.0	0.0	24.0	101.9
=	57.6	0.0	24.0	102.0
=	58.2	0.0	24.0	102.0
=	58.8	0.0	24.0	101.9
=	59.4	0.0	24.0	101.9
=	60.1	0.0	24.0	102.0
=	60.6	0.0	24.0	102.0
=	61.3	0.0	24.0	102.0
=	61.9	0.0	24.0	102.0
=	62.6	0.0	24.0	102.0
=	63.2	0.0	24.0	102.0
=	63.8	0.0	24.0	102.0
=	64.4	0.0	24.0	102.0
=	65.1	0.0	24.0	102.0
=	65.7	0.0	24.0	102.0
=	66.3	0.0	24.0	102.0
=	67.0	0.0	24.0	102.0
=	67.7	0.0	24.0	102.0
=	68.2	0.0	24.0	102.0
=	68.8	0.0	24.0	102.0
=	69.5	0.0	24.0	102.0
=	70.1	0.0	24.0	102.0
=	70.6	0.0	24.0	102.0
=	71.1	0.0	24.0	102.0
=	71.6	0.0	24.0	102.0
=	72.2	0.0	24.0	102.0
=	72.8	0.0	24.0	102.0
=	73.4	0.0	24.0	102.0
=	74.1	0.0	24.0	102.0
=	74.7	0.0	24.0	102.0
=	75.4	0.0	24.0	102.0
=	75.9	0.0	24.0	102.0
=	76.4	0.0	24.0	102.0
=	76.9	0.0	24.0	102.0
=	77.5	0.0	24.0	102.0
=	78.0	0.0	24.0	102.0
=	78.6	0.0	24.0	102.0
=	79.4	0.0	24.0	102.0
=	80.0	0.0	24.0	102.0
=	80.7	0.0	24.0	102.0
=	81.2	0.0	24.0	101.9
=	81.8	0.0	24.0	101.9
=	82.4	0.0	24.0	102.0
=	83.2	0.0	24.0	102.0
=	83.8	0.0	24.0	102.0
=	84.4	0.0	24.0	102.0
=	85.0	0.0	24.0	102.0
=	85.7	0.0	24.0	102.0
=	86.4	0.0	24.0	102.0
=	86.9	0.0	24.0	102.0
=	87.6	0.0	24.0	102.0
=	88.3	0.0	24.0	102.0
=	88.9	0.0	24.0	102.0
=	89.5	0.0	24.0	102.0
=	90.0	0.0	24.0	102.0
=	90.6	0.0	24.0	102.0
=	91.3	0.0	24.0	102.0
=	92.0	0.0	24.0	102.0
=	92.6	0.0	24.0	101.9
=	93.3	0.0	24.0	101.9
=	93.8	0.0	24.0	101.9
=	94.4	0.0	24.0	101.9
=	95.0	0.0	24.0	101.9
=	95.7	0.0	24.0	101.9
=	96.5	0.0	24.0	101.9
=	97.0	0.0	24.0	101.9
=	97.7	0.0	24.0	101.8
=	98.3	0.0	24.0	101.8
=	98.9	0.0	24.0	101.8
=	99.5	0.0	24.0	101.8
=	100.0	0.0	24.0	101.8
=	100.6	0.0	24.0	101.8
=	101.0	0.0	24.0	101.8
=	101.6	0.0	24.0	101.8
=	102.2	0.0	24.0	101.8
=	102.8	0.0	24.0	101.8
=	103.5	0.0	24.0	101.8
=	104.0	0.0	24.0	101.8
=	104.6	0.0	24.0	101.8
=	105.2	0.0	24.0	101.7
=	105.8	0.0	24.0	101.7
=	106.4	0.0	24.0	101.7
=	107.1	0.0	24.0	101.7
=	107.8	0.0	24.0	101.6
=	108.3	0.0	24.0	101.6
=	108.9	0.0	24.0	101.6
=	109.6	0.0	24.0	101.6
=	110.3	0.0	24.0	101.6
=	110.8	0.0	24.0	101.6
=	111.4	0.0	24.0	101.6
=	112.0	0.0	24.0	101.6
=	112.6	0.0	24.0	101.6
=	113.2	0.0	24.0	101.6
=	113.7	0.0	24.0	101.6
=	114.4	0.0	24.0	101.5
=	115.1	0.0	24.0	101.5
=	115.6	0.0	24.0	101.5
=	116.1	0.0	24.0	101.5
=	116.6	0.0	24.0	101.5
=	117.2	0.0	24.0	101.5
=	117.8	0.0	24.0	101.4
=	118.3	0.0	24.0	101.4
=	118.9	0.0	24.0	101.4
=	119.5	0.0	24.0	101.4
=	120.1	0.0	24.0	101.4
=	120.6	0.0	24.0	101.4
=	121.1	0.0	24.0	101.4
=	121.9	0.0	24.0	101.3
=	122.5	0.0	24.0	101.3
=	123.1	0.0	24.0	101.3
=	123.6	0.0	24.0	101.3
=	124.3	0.0	24.0	101.3
=	125.0	0.0	24.0	101.3
=	125.8	0.0	24.0	101.2
=	126.4	0.0	24.0	101.2
=	127.1	0.0	24.0	101.1
=	127.7	0.0	24.0	101.1
=	128.4	0.0	24.0	101.1
=	129.0	0.0	24.0	101.1
=	129.8	0.0	24.0	101.0
=	130.3	0.0	24.0	101.0
=	130.8	0.0	24.0	101.0
=	131.5	0.0	24.0	101.0
=	132.1	0.0	24.0	101.0
=	132.8	0.0	24.0	101.0
=	133.2	0.0	24.0	101.0
=	133.9	0.0	24.0	100.9
=	134.6	0.0	24.0	100.9
=	135.3	0.0	24.0	100.9
=	135.7	0.0	24.0	100.9
=	136.2	0.0	24.0	100.8
=	136.9	0.0	24.0	100.8
=	137.6	0.0	24.0	100.8
=	138.2	0.0	24.0	100.8
=	138.7	0.0	24.0	100.7
=	139.3	0.0	24.0	100.7
=	139.8	0.0	24.0	100.7
=	140.4	0.0	24.0	100.7
=	141.0	0.0	24.0	100.7
=	141.5	0.0	24.0	100.7
=	142.1	0.0	24.0	100.6
=	142.7	0.0	24.0	100.6
=	143.2	0.0	24.0	100.6
=	143.8	0.0	24.0	100.6
=	144.3	0.0	24.0	100.6
=	144.8	0.0	24.0	100.6
=	145.4	0.0	24.0	100.6
=	146.1	0.0	24.0	100.6
=	146.6	0.0	24.0	100.6
=	147.2	0.0	24.0	100.5
=	147.7	0.0	24.0	100.5
=	148.4	0.0	24.0	100.5
=	149.1	0.0	24.0	100.5
=	149.8	0.0	24.0	100.5
=	150.5	0.0	24.0	100.5
=	151.2	0.0	24.0	100.4
=	151.7	0.0	24.0	100.4
=	152.4	0.0	24.0	100.4
=	153.1	0.0	24.0	100.4
=	153.8	0.0	24.0	100.4
=	154.4	0.0	24.0	100.4
=	154.9	0.0	24.0	100.4
=	155.5	0.0	24.0	100.4
=	156.1	0.0	24.0	100.3
=	156.7	0.0	24.0	100.3
=	157.3	0.0	24.0	100.3
=	158.0	0.0	24.0	100.3
=	158.5	0.0	24.0	100.3
=	159.0	0.0	24.0	100.2
=	159.5	0.0	24.0	100.2
=	160.0	0.0	24.0	100.2
=	160.7	0.0	24.0	100.2
=	161.4	0.0	24.0	100.2
=	161.9	0.0	24.0	100.2
=	162.5	0.0	24.0	100.2
=	163.3	0.0	24.0	100.2
=	163.9	0.0	24.0	100.2
=	164.5	0.0	24.0	100.2
=	165.1	0.0	24.0	100.2
=	165.7	0.0	24.0	100.2
=	166.3	0.0	24.0	100.1
=	166.9	0.0	24.0	100.1
=	167.5	0.0	24.0	100.1
=	168.2	0.0	24.0	100.1
=	168.8	0.0	24.0	100.0
=	169.5	0.0	24.0	100.0
=	170.0	0.0	24.0	100.0
=	170.7	0.0	24.0	99.9
=	171.3	0.0	24.0	99.9
=	171.9	0.0	24.0	99.9
=	172.4	0.0	24.0	99.8
=	173.1	0.0	24.0	99.8
=	173.7	0.0	24.0	99.8
=	174.4	0.0	24.0	99.8
=	175.1	0.0	24.0	99.7
=	175.9	0.0	24.0	99.7
=	176.5	0.0	24.0	99.7
=	177.0	0.0	24.0	99.7
=	177.6	0.0	24.0	99.6
=	178.1	0.0	24.0	99.6
=	178.7	0.0	24.0	99.5
=	179.4	0.0	24.0	99.5
=	180.1	0.0	24.0	99.4
=	180.6	0.0	24.0	99.3
=	181.2	0.0	24.0	99.2
=	181.8	0.0	24.0	99.2
=	182.4	0.0	24.0	99.2
=	183.1	0.0	24.0	99.1
=	183.6	0.0	24.0	99.1
=	184.1	0.0	24.0	99.0
=	184.7	0.0	24.0	99.0
=	185.2	0.0	24.0	98.9
=	185.8	0.0	24.0	98.8
=	186.4	0.0	24.0	98.7
=	187.0	0.0	24.0	98.5
=	187.6	0.0	24.0	98.5
=	188.3	0.0	24.0	98.4
=	189.1	0.0	24.0	98.3
=	189.7	0.0	24.0	98.1
=	190.3	0.0	24.0	97.9
=	191.1	0.0	24.0	97.7
=	191.7	0.0	24.0	97.5
=	192.5	0.0	24.0	97.2
=	193.1	0.0	24.0	97.0
=	193.8	0.0	24.0	96.8
=	194.4	0.0	24.0	96.4
=	195.0	0.0	24.0	96.0
=	195.6	0.0	24.0	95.6
=	196.3	0.0	24.0	95.0
=	196.8	0.0	24.0	94.4
=	197.4	0.0	24.0	93.6
=	197.9	0.0	24.0	92.8
=	198.4	0.0	24.0	91.7
=	199.0	0.0	24.0	90.2
=	199.8	0.0	24.0	88.0
=	200.3	0.0	24.0	85.9
=	200.8	0.0	24.0	83.1
=	201.5	0.0	24.0	79.0
=	202.1	0.0	24.0	75.3
=	202.8	0.0	24.0	69.5
=	203.4	0.0	24.0	64.5
=	204.0	0.0	24.0	59.7
=	204.6	0.0	24.0	54.6
=	205.1	0.0	24.0	49.9
=	205.7	0.0	24.0	45.4
=	206.3	0.0	24.0	40.1
=	207.0	0.0	24.0	35.2
=	207.6	0.0	24.0	31.6
=	208.2	0.0	24.0	28.1
=	208.8	0.0	24.0	25.0
=	209.4	0.0	24.0	22.6
=	210.0	0.0	24.0	20.8
=	210.6	0.0	24.0	19.2
=	211.3	0.0	24.0	17.9
=	211.9	0.0	24.0	17.0
=	212.4	0.0	24.0	16.3
=	213.0	0.0	24.0	15.7
=	213.6	0.0	24.0	15.2
=	214.3	0.0	24.0	14.7
=	215.0	0.0	24.0	14.3
=	215.5	0.0	24.0	14.0
=	216.1	0.0	24.0	13.7
=	216.7	0.0	24.0	13.5
=	217.3	0.0	24.0	13.3
=	218.0	0.0	24.0	13.0
=	218.8	0.0	24.0	12.8
=	219.5	0.0	24.0	12.6
=	220.2	0.0	24.0	12.5
=	220.9	0.0	24.0	12.3
=	221.4	0.0	24.0	12.2
=	222.0	0.0	24.0	12.1
=	222.7	0.0	24.0	12.0
=	223.3	0.0	24.0	11.8
=	223.9	0.0	24.0	11.7
=	224.6	0.0	24.0	11.6
=	225.2	0.0	24.0	11.5
=	225.7	0.0	24.0	11.4
=	226.4	0.0	24.0	11.3
=	227.1	0.0	24.0	11.2
=	227.6	0.0	24.0	11.1
=	228.3	0.0	24.0	11.0
=	228.9	0.0	24.0	10.9
=	229.6	0.0	24.0	10.8
=	230.2	0.0	24.0	10.7
=	230.7	0.0	24.0	10.6
=	231.3	0.0	24.0	10.6
=	231.9	0.0	24.0	10.5
=	232.7	0.0	24.0	10.4
=	233.5	0.0	24.0	10.3
=	234.2	0.0	24.0	10.1
=	234.7	0.0	24.0	10.1
=	235.2	0.0	24.0	10.0
=	235.8	0.0	24.0	9.9
=	236.3	0.0	24.0	9.9
=	236.8	0.0	24.0	9.8
=	237.4	0.0	24.0	9.7
=	238.0	0.0	24.0	9.7
=	238.5	0.0	24.0	9.6
=	239.2	0.0	24.0	9.6
=	239.8	0.0	24.0	9.5
=	240.6	0.0	24.0	9.4
=	241.2	0.0	24.0	9.3
=	241.8	0.0	24.0	9.3
=	242.4	0.0	24.0	9.2
=	243.1	0.0	24.0	9.1
=	243.9	0.0	24.0	9.1
=	244.6	0.0	24.0	9.0
=	245.3	0.0	24.0	8.9
=	246.0	0.0	24.0	8.8
=	246.7	0.0	24.0	8.8
=	247.4	0.0	24.0	8.7
=	248.1	0.0	24.0	8.6
=	248.7	0.0	24.0	8.6
=	249.2	0.0	24.0	8.5
=	249.8	0.0	24.0	8.5
=	250.5	0.0	24.0	8.4
=	251.1	0.0	24.0	8.4
=	251.6	0.0	24.0	8.3
=	252.2	0.0	24.0	8.2
=	252.8	0.0	24.0	8.2
=	253.3	0.0	24.0	8.1
=	254.0	0.0	24.0	8.1
=	254.6	0.0	24.0	8.1
=	255.2	0.0	24.0	8.0
=	256.0	0.0	24.0	8.0
=	256.7	0.0	24.0	7.9
=	257.4	0.0	24.0	7.8
=	258.0	0.0	24.0	7.8
=	258.7	0.0	24.0	7.7
=	259.2	0.0	24.0	7.7
=	259.9	0.0	24.0	7.6
=	260.5	0.0	24.0	7.6
=	261.3	0.0	24.0	7.5
=	261.8	0.0	24.0	7.5
=	262.4	0.0	24.0	7.5
=	262.9	0.0	24.0	7.4
=	263.6	0.0	24.0	7.4
=	264.3	0.0	24.0	7.4
=	265.0	0.0	24.0	7.3
=	265.8	0.0	24.0	7.3
=	266.6	0.0	24.0	7.2
=	267.4	0.0	24.0	7.1
=	268.1	0.0	24.0	7.1
=	268.7	0.0	24.0	7.1
=	269.4	0.0	24.0	7.0
=	270.1	0.0	24.0	7.0
=	270.6	0.0	24.0	7.0
=	271.2	0.0	24.0	6.9
=	271.9	0.0	24.0	6.9
=	272.4	0.0	24.0	6.8
=	273.0	0.0	24.0	6.8
=	273.9	0.0	24.0	6.8
:EOM # End of Measurement
#
# RFA300 ASCII Measurement Dump ( BDS format )
#
# Measurement number 	2
#
%VNR 1.0
%MOD 	RAT
%TYP 	SCN
%SCN 	PRO
%FLD 	ION
%DAT 	10-14-2011
%TIM 	12:00:00
%FSZ 	400	300
%BMT 	PHO	   10.0
%SSD 	1000
%BUP 	0
%BRD 	1000
%FSH 	1
%ASC 	0
%WEG 	15
%GPO 	0
%CPO 	0
%MEA 	6
%PRD 	50,0
%PTS 	921
%STS 	    -283.1	  0.0	   50.0 # Start Scan values in mm ( X , Y , Z )
%EDS 	    282.8	   0.0	   50.0 # End Scan values in mm ( X , Y , Z )
#
#	  X      Y      Z     Dose
#
=	-283.1	0.0	50.0	6.6
=	-282.5	0.0	50.0	6.6
=	-281.9	0.0	50.0	6.6
=	-281.3	0.0	50.0	6.6
=	-280.8	0.0	50.0	6.7
=	-280.3	0.0	50.0	6.7
=	-279.6	0.0	50.0	6.8
=	-279.0	0.0	50.0	6.8
=	-278.4	0.0	50.0	6.8
=	-277.6	0.0	50.0	6.9
=	-277.0	0.0	50.0	6.9
=	-276.4	0.0	50.0	6.9
=	-275.7	0.0	50.0	7.0
=	-275.1	0.0	50.0	7.0
=	-274.5	0.0	50.0	7.0
=	-273.9	0.0	50.0	7.1
=	-273.3	0.0	50.0	7.1
=	-272.7	0.0	50.0	7.2
=	-271.9	0.0	50.0	7.2
=	-271.1	0.0	50.0	7.3
=	-270.5	0.0	50.0	7.3
=	-269.8	0.0	50.0	7.4
=	-269.3	0.0	50.0	7.4
=	-268.5	0.0	50.0	7.4
=	-267.7	0.0	50.0	7.5
=	-267.1	0.0	50.0	7.6
=	-266.3	0.0	50.0	7.6
=	-265.8	0.0	50.0	7.7
=	-265.2	0.0	50.0	7.7
=	-264.6	0.0	50.0	7.7
=	-264.1	0.0	50.0	7.8
=	-263.5	0.0	50.0	7.8
=	-262.9	0.0	50.0	7.9
=	-262.2	0.0	50.0	7.9
=	-261.5	0.0	50.0	8.0
=	-260.9	0.0	50.0	8.0
=	-260.4	0.0	50.0	8.1
=	-259.8	0.0	50.0	8.1
=	-259.1	0.0	50.0	8.2
=	-258.4	0.0	50.0	8.3
=	-257.8	0.0	50.0	8.3
=	-257.2	0.0	50.0	8.4
=	-256.6	0.0	50.0	8.4
=	-256.1	0.0	50.0	8.5
=	-255.4	0.0	50.0	8.5
=	-254.9	0.0	50.0	8.6
=	-254.4	0.0	50.0	8.6
=	-253.9	0.0	50.0	8.7
=	-253.3	0.0	50.0	8.8
=	-252.6	0.0	50.0	8.8
=	-251.9	0.0	50.0	8.9
=	-251.2	0.0	50.0	8.9
=	-250.6	0.0	50.0	9.0
=	-250.0	0.0	50.0	9.1
=	-249.2	0.0	50.0	9.2
=	-248.6	0.0	50.0	9.2
=	-247.9	0.0	50.0	9.3
=	-247.2	0.0	50.0	9.4
=	-246.7	0.0	50.0	9.4
=	-246.1	0.0	50.0	9.5
=	-245.5	0.0	50.0	9.6
=	-244.8	0.0	50.0	9.6
=	-244.3	0.0	50.0	9.7
=	-243.8	0.0	50.0	9.8
=	-243.2	0.0	50.0	9.9
=	-242.4	0.0	50.0	10.0
=	-241.7	0.0	50.0	10.1
=	-241.1	0.0	50.0	10.1
=	-240.4	0.0	50.0	10.2
=	-239.8	0.0	50.0	10.3
=	-239.2	0.0	50.0	10.4
=	-238.6	0.0	50.0	10.5
=	-237.9	0.0	50.0	10.6
=	-237.0	0.0	50.0	10.7
=	-236.4	0.0	50.0	10.8
=	-235.7	0.0	50.0	10.9
=	-235.2	0.0	50.0	11.0
=	-234.6	0.0	50.0	11.1
=	-234.0	0.0	50.0	11.2
=	-233.2	0.0	50.0	11.3
=	-232.4	0.0	50.0	11.5
=	-231.8	0.0	50.0	11.6
=	-231.2	0.0	50.0	11.7
=	-230.4	0.0	50.0	11.8
=	-229.8	0.0	50.0	12.0
=	-229.1	0.0	50.0	12.1
=	-228.5	0.0	50.0	12.2
=	-227.8	0.0	50.0	12.4
=	-227.1	0.0	50.0	12.6
=	-226.5	0.0	50.0	12.7
=	-225.9	0.0	50.0	12.8
=	-225.3	0.0	50.0	13.0
=	-224.7	0.0	50.0	13.1
=	-224.0	0.0	50.0	13.3
=	-223.3	0.0	50.0	13.5
=	-222.7	0.0	50.0	13.8
=	-222.0	0.0	50.0	14.0
=	-221.5	0.0	50.0	14.2
=	-220.8	0.0	50.0	14.6
=	-220.1	0.0	50.0	15.0
=	-219.4	0.0	50.0	15.4
=	-218.8	0.0	50.0	15.9
=	-218.4	0.0	50.0	16.3
=	-217.7	0.0	50.0	17.0
=	-217.2	0.0	50.0	17.6
=	-216.5	0.0	50.0	18.6
=	-215.9	0.0	50.0	19.7
=	-215.2	0.0	50.0	21.4
=	-214.5	0.0	50.0	23.2
=	-213.9	0.0	50.0	25.5
=	-213.3	0.0	50.0	28.2
=	-212.6	0.0	50.0	32.0
=	-212.1	0.0	50.0	35.0
=	-211.6	0.0	50.0	38.3
=	-211.0	0.0	50.0	42.3
=	-210.3	0.0	50.0	47.5
=	-209.7	0.0	50.0	52.6
=	-209.1	0.0	50.0	57.5
=	-208.3	0.0	50.0	64.2
=	-207.7	0.0	50.0	69.1
=	-207.1	0.0	50.0	72.8
=	-206.5	0.0	50.0	77.0
=	-205.9	0.0	50.0	80.1
=	-205.4	0.0	50.0	82.5
=	-204.9	0.0	50.0	84.4
=	-204.3	0.0	50.0	86.4
=	-203.7	0.0	50.0	88.2
=	-203.1	0.0	50.0	89.4
=	-202.5	0.0	50.0	90.5
=	-201.9	0.0	50.0	91.2
=	-201.3	0.0	50.0	91.9
=	-200.8	0.0	50.0	92.5
=	-200.2	0.0	50.0	93.0
=	-199.6	0.0	50.0	93.4
=	-199.0	0.0	50.0	93.9
=	-198.4	0.0	50.0	94.2
=	-197.8	0.0	50.0	94.5
=	-197.2	0.0	50.0	94.8
=	-196.5	0.0	50.0	95.1
=	-195.8	0.0	50.0	95.4
=	-195.2	0.0	50.0	95.5
=	-194.5	0.0	50.0	95.7
=	-193.9	0.0	50.0	96.0
=	-193.3	0.0	50.0	96.1
=	-192.5	0.0	50.0	96.3
=	-191.8	0.0	50.0	96.4
=	-191.2	0.0	50.0	96.5
=	-190.5	0.0	50.0	96.7
=	-189.7	0.0	50.0	96.9
=	-189.0	0.0	50.0	97.0
=	-188.3	0.0	50.0	97.1
=	-187.7	0.0	50.0	97.1
=	-187.1	0.0	50.0	97.2
=	-186.3	0.0	50.0	97.3
=	-185.8	0.0	50.0	97.4
=	-185.2	0.0	50.0	97.5
=	-184.6	0.0	50.0	97.5
=	-183.9	0.0	50.0	97.6
=	-183.4	0.0	50.0	97.7
=	-182.7	0.0	50.0	97.8
=	-182.2	0.0	50.0	97.9
=	-181.6	0.0	50.0	97.9
=	-181.0	0.0	50.0	98.0
=	-180.4	0.0	50.0	98.0
=	-179.9	0.0	50.0	98.1
=	-179.3	0.0	50.0	98.1
=	-178.7	0.0	50.0	98.1
=	-178.1	0.0	50.0	98.2
=	-177.6	0.0	50.0	98.2
=	-177.0	0.0	50.0	98.3
=	-176.5	0.0	50.0	98.3
=	-176.0	0.0	50.0	98.3
=	-175.4	0.0	50.0	98.4
=	-174.9	0.0	50.0	98.4
=	-174.3	0.0	50.0	98.4
=	-173.7	0.0	50.0	98.5
=	-173.1	0.0	50.0	98.5
=	-172.5	0.0	50.0	98.5
=	-172.0	0.0	50.0	98.6
=	-171.5	0.0	50.0	98.6
=	-170.9	0.0	50.0	98.6
=	-170.3	0.0	50.0	98.6
=	-169.7	0.0	50.0	98.6
=	-169.1	0.0	50.0	98.7
=	-168.4	0.0	50.0	98.7
=	-167.8	0.0	50.0	98.8
=	-167.2	0.0	50.0	98.8
=	-166.5	0.0	50.0	98.8
=	-165.7	0.0	50.0	98.8
=	-165.2	0.0	50.0	98.9
=	-164.5	0.0	50.0	98.9
=	-163.9	0.0	50.0	98.9
=	-163.3	0.0	50.0	98.9
=	-162.7	0.0	50.0	99.0
=	-162.1	0.0	50.0	99.0
=	-161.5	0.0	50.0	99.0
=	-160.9	0.0	50.0	99.0
=	-160.3	0.0	50.0	99.0
=	-159.8	0.0	50.0	99.1
=	-159.2	0.0	50.0	99.1
=	-158.5	0.0	50.0	99.1
=	-157.7	0.0	50.0	99.1
=	-157.0	0.0	50.0	99.2
=	-156.4	0.0	50.0	99.2
=	-155.8	0.0	50.0	99.2
=	-155.2	0.0	50.0	99.2
=	-154.7	0.0	50.0	99.2
=	-153.9	0.0	50.0	99.3
=	-153.3	0.0	50.0	99.3
=	-152.6	0.0	50.0	99.3
=	-152.0	0.0	50.0	99.4
=	-151.4	0.0	50.0	99.4
=	-150.8	0.0	50.0	99.4
=	-150.1	0.0	50.0	99.4
=	-149.5	0.0	50.0	99.5
=	-148.9	0.0	50.0	99.5
=	-148.3	0.0	50.0	99.5
=	-147.6	0.0	50.0	99.5
=	-147.1	0.0	50.0	99.6
=	-146.5	0.0	50.0	99.6
=	-145.8	0.0	50.0	99.6
=	-145.2	0.0	50.0	99.6
=	-144.6	0.0	50.0	99.6
=	-144.1	0.0	50.0	99.6
=	-143.6	0.0	50.0	99.7
=	-143.0	0.0	50.0	99.7
=	-142.4	0.0	50.0	99.7
=	-141.8	0.0	50.0	99.7
=	-141.1	0.0	50.0	99.8
=	-140.4	0.0	50.0	99.8
=	-139.9	0.0	50.0	99.8
=	-139.3	0.0	50.0	99.8
=	-138.8	0.0	50.0	99.8
=	-138.1	0.0	50.0	99.9
=	-137.6	0.0	50.0	99.9
=	-137.1	0.0	50.0	99.9
=	-136.5	0.0	50.0	99.9
=	-136.0	0.0	50.0	99.9
=	-135.5	0.0	50.0	99.9
=	-134.9	0.0	50.0	100.0
=	-134.3	0.0	50.0	100.0
=	-133.8	0.0	50.0	100.0
=	-133.1	0.0	50.0	100.1
=	-132.5	0.0	50.0	100.1
=	-131.9	0.0	50.0	100.1
=	-131.3	0.0	50.0	100.1
=	-130.6	0.0	50.0	100.2
=	-130.1	0.0	50.0	100.2
=	-129.5	0.0	50.0	100.2
=	-128.8	0.0	50.0	100.3
=	-128.2	0.0	50.0	100.3
=	-127.7	0.0	50.0	100.3
=	-127.1	0.0	50.0	100.3
=	-126.6	0.0	50.0	100.4
=	-126.1	0.0	50.0	100.4
=	-125.6	0.0	50.0	100.4
=	-125.0	0.0	50.0	100.4
=	-124.3	0.0	50.0	100.4
=	-123.7	0.0	50.0	100.4
=	-123.1	0.0	50.0	100.4
=	-122.5	0.0	50.0	100.4
=	-121.7	0.0	50.0	100.5
=	-121.0	0.0	50.0	100.5
=	-120.4	0.0	50.0	100.5
=	-119.9	0.0	50.0	100.6
=	-119.3	0.0	50.0	100.6
=	-118.8	0.0	50.0	100.6
=	-118.2	0.0	50.0	100.6
=	-117.6	0.0	50.0	100.6
=	-116.9	0.0	50.0	100.7
=	-116.3	0.0	50.0	100.7
=	-115.7	0.0	50.0	100.7
=	-115.1	0.0	50.0	100.7
=	-114.6	0.0	50.0	100.7
=	-114.1	0.0	50.0	100.8
=	-113.5	0.0	50.0	100.8
=	-112.9	0.0	50.0	100.8
=	-112.2	0.0	50.0	100.8
=	-111.5	0.0	50.0	100.8
=	-110.9	0.0	50.0	100.8
=	-110.3	0.0	50.0	100.8
=	-109.6	0.0	50.0	100.9
=	-109.0	0.0	50.0	100.9
=	-108.3	0.0	50.0	100.9
=	-107.6	0.0	50.0	100.9
=	-107.2	0.0	50.0	100.9
=	-106.5	0.0	50.0	100.9
=	-105.8	0.0	50.0	100.9
=	-105.0	0.0	50.0	101.0
=	-104.3	0.0	50.0	101.0
=	-103.7	0.0	50.0	101.0
=	-103.1	0.0	50.0	101.0
=	-102.5	0.0	50.0	101.1
=	-101.9	0.0	50.0	101.1
=	-101.1	0.0	50.0	101.1
=	-100.3	0.0	50.0	101.1
=	-99.7	0.0	50.0	101.1
=	-99.1	0.0	50.0	101.1
=	-98.5	0.0	50.0	101.1
=	-97.9	0.0	50.0	101.1
=	-97.1	0.0	50.0	101.1
=	-96.5	0.0	50.0	101.1
=	-95.9	0.0	50.0	101.1
=	-95.3	0.0	50.0	101.2
=	-94.7	0.0	50.0	101.2
=	-94.1	0.0	50.0	101.2
=	-93.6	0.0	50.0	101.2
=	-92.9	0.0	50.0	101.2
=	-92.2	0.0	50.0	101.2
=	-91.6	0.0	50.0	101.2
=	-90.9	0.0	50.0	101.3
=	-90.4	0.0	50.0	101.3
=	-89.7	0.0	50.0	101.3
=	-89.0	0.0	50.0	101.3
=	-88.4	0.0	50.0	101.3
=	-87.8	0.0	50.0	101.3
=	-87.3	0.0	50.0	101.4
=	-86.8	0.0	50.0	101.3
=	-86.1	0.0	50.0	101.3
=	-85.6	0.0	50.0	101.3
=	-85.0	0.0	50.0	101.4
=	-84.4	0.0	50.0	101.4
=	-83.8	0.0	50.0	101.4
=	-83.3	0.0	50.0	101.4
=	-82.7	0.0	50.0	101.4
=	-82.0	0.0	50.0	101.4
=	-81.4	0.0	50.0	101.4
=	-80.7	0.0	50.0	101.5
=	-80.1	0.0	50.0	101.5
=	-79.4	0.0	50.0	101.5
=	-78.8	0.0	50.0	101.5
=	-78.3	0.0	50.0	101.5
=	-77.9	0.0	50.0	101.5
=	-77.4	0.0	50.0	101.5
=	-76.8	0.0	50.0	101.5
=	-76.2	0.0	50.0	101.5
=	-75.6	0.0	50.0	101.5
=	-75.0	0.0	50.0	101.5
=	-74.2	0.0	50.0	101.5
=	-73.7	0.0	50.0	101.5
=	-73.0	0.0	50.0	101.5
=	-72.3	0.0	50.0	101.5
=	-71.8	0.0	50.0	101.5
=	-71.2	0.0	50.0	101.5
=	-70.7	0.0	50.0	101.5
=	-70.0	0.0	50.0	101.5
=	-69.3	0.0	50.0	101.5
=	-68.7	0.0	50.0	101.5
=	-68.1	0.0	50.0	101.5
=	-67.5	0.0	50.0	101.5
=	-66.9	0.0	50.0	101.5
=	-66.3	0.0	50.0	101.5
=	-65.7	0.0	50.0	101.5
=	-65.1	0.0	50.0	101.5
=	-64.4	0.0	50.0	101.5
=	-63.8	0.0	50.0	101.5
=	-63.2	0.0	50.0	101.5
=	-62.6	0.0	50.0	101.6
=	-62.0	0.0	50.0	101.6
=	-61.5	0.0	50.0	101.6
=	-60.9	0.0	50.0	101.6
=	-60.3	0.0	50.0	101.6
=	-59.7	0.0	50.0	101.6
=	-59.0	0.0	50.0	101.6
=	-58.2	0.0	50.0	101.6
=	-57.7	0.0	50.0	101.6
=	-57.0	0.0	50.0	101.5
=	-56.4	0.0	50.0	101.5
=	-55.9	0.0	50.0	101.5
=	-55.4	0.0	50.0	101.5
=	-54.8	0.0	50.0	101.5
=	-54.2	0.0	50.0	101.5
=	-53.5	0.0	50.0	101.5
=	-52.9	0.0	50.0	101.5
=	-52.3	0.0	50.0	101.5
=	-51.6	0.0	50.0	101.5
=	-51.0	0.0	50.0	101.4
