:MSR 	41	 # No. of measurement in file
:SYS BDS 0   # Beam Data Scanner System
#
# RFA300 ASCII Measurement Dump ( BDS format )
#
# Measurement number 	1
#
%VNR 1.0
%MOD 	RAT
%TYP 	SCN
%SCN 	PRO
%FLD 	ION
%DAT 	10-06-2011
%TIM 	12:00:00
%FSZ 	030	030
%BMT 	PHO	   10.0
%SSD 	1000
%BUP 	0
%BRD 	1000
%FSH 	1
%ASC 	0
%WEG 	0
%GPO 	0
%CPO 	0
%MEA 	2
%PRD 	24,0
%PTS 	262
%STS 	    -65.2	  0.0	   24.0 # Start Scan values in mm ( X , Y , Z )
%EDS 	    64.8	   0.0	   24.0 # End Scan values in mm ( X , Y , Z )
#
#	  X      Y      Z     Dose
#
=	-65.2	0.0	24.0	0.3
=	-64.7	0.0	24.0	0.3
=	-64.2	0.0	24.0	0.3
=	-63.7	0.0	24.0	0.3
=	-63.2	0.0	24.0	0.3
=	-62.7	0.0	24.0	0.3
=	-62.2	0.0	24.0	0.3
=	-61.7	0.0	24.0	0.3
=	-61.2	0.0	24.0	0.3
=	-60.7	0.0	24.0	0.3
=	-60.2	0.0	24.0	0.3
=	-59.7	0.0	24.0	0.4
=	-59.2	0.0	24.0	0.4
=	-58.7	0.0	24.0	0.4
=	-58.2	0.0	24.0	0.4
=	-57.7	0.0	24.0	0.4
=	-57.2	0.0	24.0	0.4
=	-56.7	0.0	24.0	0.4
=	-56.2	0.0	24.0	0.4
=	-55.7	0.0	24.0	0.4
=	-55.2	0.0	24.0	0.4
=	-54.7	0.0	24.0	0.4
=	-54.2	0.0	24.0	0.4
=	-53.7	0.0	24.0	0.4
=	-53.2	0.0	24.0	0.4
=	-52.7	0.0	24.0	0.4
=	-52.2	0.0	24.0	0.4
=	-51.7	0.0	24.0	0.4
=	-51.2	0.0	24.0	0.4
=	-50.7	0.0	24.0	0.4
=	-50.2	0.0	24.0	0.4
=	-49.7	0.0	24.0	0.4
=	-49.2	0.0	24.0	0.4
=	-48.7	0.0	24.0	0.4
=	-48.2	0.0	24.0	0.4
=	-47.7	0.0	24.0	0.5
=	-47.2	0.0	24.0	0.5
=	-46.7	0.0	24.0	0.5
=	-46.2	0.0	24.0	0.5
=	-45.7	0.0	24.0	0.5
=	-45.2	0.0	24.0	0.5
=	-44.7	0.0	24.0	0.5
=	-44.2	0.0	24.0	0.5
=	-43.7	0.0	24.0	0.5
=	-43.2	0.0	24.0	0.5
=	-42.7	0.0	24.0	0.5
=	-42.2	0.0	24.0	0.5
=	-41.7	0.0	24.0	0.5
=	-41.2	0.0	24.0	0.6
=	-40.7	0.0	24.0	0.6
=	-40.2	0.0	24.0	0.6
=	-39.7	0.0	24.0	0.6
=	-39.2	0.0	24.0	0.6
=	-38.7	0.0	24.0	0.6
=	-38.2	0.0	24.0	0.6
=	-37.7	0.0	24.0	0.6
=	-37.2	0.0	24.0	0.7
=	-36.7	0.0	24.0	0.7
=	-36.2	0.0	24.0	0.7
=	-35.7	0.0	24.0	0.7
=	-35.2	0.0	24.0	0.7
=	-34.7	0.0	24.0	0.8
=	-34.2	0.0	24.0	0.8
=	-33.7	0.0	24.0	0.8
=	-33.2	0.0	24.0	0.8
=	-32.7	0.0	24.0	0.9
=	-32.2	0.0	24.0	0.9
=	-31.7	0.0	24.0	1.0
=	-31.2	0.0	24.0	1.0
=	-30.7	0.0	24.0	1.0
=	-30.2	0.0	24.0	1.1
=	-29.7	0.0	24.0	1.2
=	-29.2	0.0	24.0	1.2
=	-28.7	0.0	24.0	1.3
=	-28.2	0.0	24.0	1.4
=	-27.7	0.0	24.0	1.5
=	-27.2	0.0	24.0	1.6
=	-26.7	0.0	24.0	1.7
=	-26.2	0.0	24.0	1.8
=	-25.7	0.0	24.0	2.0
=	-25.2	0.0	24.0	2.2
=	-24.7	0.0	24.0	2.4
=	-24.2	0.0	24.0	2.7
=	-23.7	0.0	24.0	3.0
=	-23.2	0.0	24.0	3.3
=	-22.7	0.0	24.0	3.8
=	-22.2	0.0	24.0	4.2
=	-21.7	0.0	24.0	4.8
=	-21.2	0.0	24.0	5.6
=	-20.7	0.0	24.0	6.5
=	-20.2	0.0	24.0	7.6
=	-19.7	0.0	24.0	9.1
=	-19.2	0.0	24.0	11.0
=	-18.7	0.0	24.0	13.4
=	-18.2	0.0	24.0	16.5
=	-17.7	0.0	24.0	20.4
=	-17.2	0.0	24.0	25.1
=	-16.7	0.0	24.0	30.1
=	-16.2	0.0	24.0	35.3
=	-15.7	0.0	24.0	41.0
=	-15.2	0.0	24.0	47.2
=	-14.7	0.0	24.0	53.3
=	-14.2	0.0	24.0	59.3
=	-13.7	0.0	24.0	64.9
=	-13.2	0.0	24.0	70.2
=	-12.7	0.0	24.0	75.4
=	-12.2	0.0	24.0	80.1
=	-11.7	0.0	24.0	84.1
=	-11.2	0.0	24.0	87.4
=	-10.7	0.0	24.0	89.9
=	-10.2	0.0	24.0	91.7
=	-9.7	0.0	24.0	93.2
=	-9.2	0.0	24.0	94.4
=	-8.7	0.0	24.0	95.4
=	-8.2	0.0	24.0	96.2
=	-7.7	0.0	24.0	96.8
=	-7.2	0.0	24.0	97.4
=	-6.7	0.0	24.0	97.8
=	-6.2	0.0	24.0	98.2
=	-5.7	0.0	24.0	98.6
=	-5.2	0.0	24.0	98.9
=	-4.7	0.0	24.0	99.1
=	-4.2	0.0	24.0	99.3
=	-3.7	0.0	24.0	99.5
=	-3.2	0.0	24.0	99.7
=	-2.7	0.0	24.0	99.8
=	-2.2	0.0	24.0	99.9
=	-1.7	0.0	24.0	99.9
=	-1.2	0.0	24.0	100.0
=	-0.7	0.0	24.0	100.0
=	-0.2	0.0	24.0	100.0
=	0.0	0.0	24.0	100.0
=	0.3	0.0	24.0	100.0
=	0.8	0.0	24.0	100.0
=	1.3	0.0	24.0	100.0
=	1.8	0.0	24.0	99.9
=	2.3	0.0	24.0	99.9
=	2.8	0.0	24.0	99.8
=	3.3	0.0	24.0	99.7
=	3.8	0.0	24.0	99.5
=	4.3	0.0	24.0	99.3
=	4.8	0.0	24.0	99.1
=	5.3	0.0	24.0	98.9
=	5.8	0.0	24.0	98.6
=	6.3	0.0	24.0	98.1
=	6.8	0.0	24.0	97.8
=	7.3	0.0	24.0	97.3
=	7.8	0.0	24.0	96.8
=	8.3	0.0	24.0	96.0
=	8.8	0.0	24.0	95.3
=	9.3	0.0	24.0	94.2
=	9.8	0.0	24.0	93.0
=	10.3	0.0	24.0	91.5
=	10.8	0.0	24.0	89.6
=	11.3	0.0	24.0	86.9
=	11.8	0.0	24.0	83.6
=	12.3	0.0	24.0	79.5
=	12.8	0.0	24.0	74.6
=	13.3	0.0	24.0	69.5
=	13.8	0.0	24.0	64.1
=	14.3	0.0	24.0	58.5
=	14.8	0.0	24.0	52.4
=	15.3	0.0	24.0	46.3
=	15.8	0.0	24.0	40.1
=	16.3	0.0	24.0	34.5
=	16.8	0.0	24.0	29.3
=	17.3	0.0	24.0	24.4
=	17.8	0.0	24.0	19.8
=	18.3	0.0	24.0	16.0
=	18.8	0.0	24.0	13.0
=	19.3	0.0	24.0	10.7
=	19.8	0.0	24.0	8.9
=	20.3	0.0	24.0	7.4
=	20.8	0.0	24.0	6.3
=	21.3	0.0	24.0	5.5
=	21.8	0.0	24.0	4.7
=	22.3	0.0	24.0	4.2
=	22.8	0.0	24.0	3.7
=	23.3	0.0	24.0	3.3
=	23.8	0.0	24.0	2.9
=	24.3	0.0	24.0	2.6
=	24.8	0.0	24.0	2.4
=	25.3	0.0	24.0	2.2
=	25.8	0.0	24.0	2.0
=	26.3	0.0	24.0	1.8
=	26.8	0.0	24.0	1.7
=	27.3	0.0	24.0	1.6
=	27.8	0.0	24.0	1.5
=	28.3	0.0	24.0	1.4
=	28.8	0.0	24.0	1.3
=	29.3	0.0	24.0	1.2
=	29.8	0.0	24.0	1.1
=	30.3	0.0	24.0	1.1
=	30.8	0.0	24.0	1.0
=	31.3	0.0	24.0	1.0
=	31.8	0.0	24.0	0.9
=	32.3	0.0	24.0	0.9
=	32.8	0.0	24.0	0.9
=	33.3	0.0	24.0	0.8
=	33.8	0.0	24.0	0.8
=	34.3	0.0	24.0	0.8
=	34.8	0.0	24.0	0.8
=	35.3	0.0	24.0	0.7
=	35.8	0.0	24.0	0.7
=	36.3	0.0	24.0	0.7
=	36.8	0.0	24.0	0.7
=	37.3	0.0	24.0	0.7
=	37.8	0.0	24.0	0.6
=	38.3	0.0	24.0	0.6
=	38.8	0.0	24.0	0.6
=	39.3	0.0	24.0	0.6
=	39.8	0.0	24.0	0.6
=	40.3	0.0	24.0	0.6
=	40.8	0.0	24.0	0.6
=	41.3	0.0	24.0	0.6
=	41.8	0.0	24.0	0.5
=	42.3	0.0	24.0	0.5
=	42.8	0.0	24.0	0.5
=	43.3	0.0	24.0	0.5
=	43.8	0.0	24.0	0.5
=	44.3	0.0	24.0	0.5
=	44.8	0.0	24.0	0.5
=	45.3	0.0	24.0	0.5
=	45.8	0.0	24.0	0.5
=	46.3	0.0	24.0	0.5
=	46.8	0.0	24.0	0.5
=	47.3	0.0	24.0	0.5
=	47.8	0.0	24.0	0.5
=	48.3	0.0	24.0	0.4
=	48.8	0.0	24.0	0.4
=	49.3	0.0	24.0	0.4
=	49.8	0.0	24.0	0.4
=	50.3	0.0	24.0	0.4
=	50.8	0.0	24.0	0.4
=	51.3	0.0	24.0	0.4
=	51.8	0.0	24.0	0.4
=	52.3	0.0	24.0	0.4
=	52.8	0.0	24.0	0.4
=	53.3	0.0	24.0	0.4
=	53.8	0.0	24.0	0.4
=	54.3	0.0	24.0	0.4
=	54.8	0.0	24.0	0.4
=	55.3	0.0	24.0	0.4
=	55.8	0.0	24.0	0.4
=	56.3	0.0	24.0	0.4
=	56.8	0.0	24.0	0.4
=	57.3	0.0	24.0	0.4
=	57.8	0.0	24.0	0.4
=	58.3	0.0	24.0	0.4
=	58.8	0.0	24.0	0.4
=	59.3	0.0	24.0	0.4
=	59.8	0.0	24.0	0.4
=	60.3	0.0	24.0	0.3
=	60.8	0.0	24.0	0.3
=	61.3	0.0	24.0	0.3
=	61.8	0.0	24.0	0.3
=	62.3	0.0	24.0	0.3
=	62.8	0.0	24.0	0.3
=	63.3	0.0	24.0	0.3
=	63.8	0.0	24.0	0.3
=	64.3	0.0	24.0	0.3
=	64.8	0.0	24.0	0.3
:EOM # End of Measurement
#
# RFA300 ASCII Measurement Dump ( BDS format )
#
# Measurement number 	2
#
%VNR 1.0
%MOD 	RAT
%TYP 	SCN
%SCN 	PRO
%FLD 	ION
%DAT 	09-21-2011
%TIM 	12:00:00
%FSZ 	030	030
%BMT 	PHO	   10.0
%SSD 	1000
%BUP 	0
%BRD 	1000
%FSH 	1
%ASC 	0
%WEG 	0
%GPO 	0
%CPO 	0
%MEA 	2
%PRD 	50,0
%PTS 	263
%STS 	    -65.3	  0.0	   50.0 # Start Scan values in mm ( X , Y , Z )
%EDS 	    65.2	   0.0	   50.0 # End Scan values in mm ( X , Y , Z )
#
#	  X      Y      Z     Dose
#
=	-65.3	0.0	50.0	0.4
=	-64.8	0.0	50.0	0.4
=	-64.3	0.0	50.0	0.4
=	-63.8	0.0	50.0	0.4
=	-63.3	0.0	50.0	0.4
=	-62.8	0.0	50.0	0.4
=	-62.3	0.0	50.0	0.4
=	-61.8	0.0	50.0	0.5
=	-61.3	0.0	50.0	0.5
=	-60.8	0.0	50.0	0.5
=	-60.3	0.0	50.0	0.5
=	-59.8	0.0	50.0	0.5
=	-59.3	0.0	50.0	0.5
=	-58.8	0.0	50.0	0.5
=	-58.3	0.0	50.0	0.5
=	-57.8	0.0	50.0	0.5
=	-57.3	0.0	50.0	0.5
=	-56.8	0.0	50.0	0.5
=	-56.3	0.0	50.0	0.5
=	-55.8	0.0	50.0	0.5
=	-55.3	0.0	50.0	0.5
=	-54.8	0.0	50.0	0.5
=	-54.3	0.0	50.0	0.5
=	-53.8	0.0	50.0	0.5
=	-53.3	0.0	50.0	0.5
=	-52.8	0.0	50.0	0.5
=	-52.3	0.0	50.0	0.6
=	-51.8	0.0	50.0	0.6
=	-51.3	0.0	50.0	0.6
=	-50.8	0.0	50.0	0.6
=	-50.3	0.0	50.0	0.6
=	-49.8	0.0	50.0	0.6
=	-49.3	0.0	50.0	0.6
=	-48.8	0.0	50.0	0.6
=	-48.3	0.0	50.0	0.6
=	-47.8	0.0	50.0	0.6
=	-47.3	0.0	50.0	0.6
=	-46.8	0.0	50.0	0.7
=	-46.3	0.0	50.0	0.7
=	-45.8	0.0	50.0	0.7
=	-45.3	0.0	50.0	0.7
=	-44.8	0.0	50.0	0.7
=	-44.3	0.0	50.0	0.7
=	-43.8	0.0	50.0	0.7
=	-43.3	0.0	50.0	0.7
=	-42.8	0.0	50.0	0.8
=	-42.3	0.0	50.0	0.8
=	-41.8	0.0	50.0	0.8
=	-41.3	0.0	50.0	0.8
=	-40.8	0.0	50.0	0.8
=	-40.3	0.0	50.0	0.8
=	-39.8	0.0	50.0	0.9
=	-39.3	0.0	50.0	0.9
=	-38.8	0.0	50.0	0.9
=	-38.3	0.0	50.0	0.9
=	-37.8	0.0	50.0	1.0
=	-37.3	0.0	50.0	1.0
=	-36.8	0.0	50.0	1.0
=	-36.3	0.0	50.0	1.0
=	-35.8	0.0	50.0	1.1
=	-35.3	0.0	50.0	1.1
=	-34.8	0.0	50.0	1.1
=	-34.3	0.0	50.0	1.2
=	-33.8	0.0	50.0	1.2
=	-33.3	0.0	50.0	1.3
=	-32.8	0.0	50.0	1.3
=	-32.3	0.0	50.0	1.4
=	-31.8	0.0	50.0	1.5
=	-31.3	0.0	50.0	1.5
=	-30.8	0.0	50.0	1.6
=	-30.3	0.0	50.0	1.7
=	-29.8	0.0	50.0	1.8
=	-29.3	0.0	50.0	1.9
=	-28.8	0.0	50.0	2.0
=	-28.3	0.0	50.0	2.1
=	-27.8	0.0	50.0	2.3
=	-27.3	0.0	50.0	2.4
=	-26.8	0.0	50.0	2.6
=	-26.3	0.0	50.0	2.8
=	-25.8	0.0	50.0	3.0
=	-25.3	0.0	50.0	3.3
=	-24.8	0.0	50.0	3.6
=	-24.3	0.0	50.0	3.9
=	-23.8	0.0	50.0	4.4
=	-23.3	0.0	50.0	4.8
=	-22.8	0.0	50.0	5.4
=	-22.3	0.0	50.0	6.0
=	-21.8	0.0	50.0	6.8
=	-21.3	0.0	50.0	7.7
=	-20.8	0.0	50.0	8.8
=	-20.3	0.0	50.0	10.1
=	-19.8	0.0	50.0	12.0
=	-19.3	0.0	50.0	14.3
=	-18.8	0.0	50.0	17.2
=	-18.3	0.0	50.0	20.8
=	-17.8	0.0	50.0	25.0
=	-17.3	0.0	50.0	29.7
=	-16.8	0.0	50.0	34.8
=	-16.3	0.0	50.0	40.3
=	-15.8	0.0	50.0	46.1
=	-15.3	0.0	50.0	51.8
=	-14.8	0.0	50.0	57.4
=	-14.3	0.0	50.0	63.1
=	-13.8	0.0	50.0	68.4
=	-13.3	0.0	50.0	73.3
=	-12.8	0.0	50.0	77.8
=	-12.3	0.0	50.0	81.8
=	-11.8	0.0	50.0	85.2
=	-11.3	0.0	50.0	88.0
=	-10.8	0.0	50.0	90.2
=	-10.3	0.0	50.0	91.9
=	-9.8	0.0	50.0	93.3
=	-9.3	0.0	50.0	94.3
=	-8.8	0.0	50.0	95.2
=	-8.3	0.0	50.0	96.0
=	-7.8	0.0	50.0	96.6
=	-7.3	0.0	50.0	97.1
=	-6.8	0.0	50.0	97.6
=	-6.3	0.0	50.0	98.1
=	-5.8	0.0	50.0	98.5
=	-5.3	0.0	50.0	98.8
=	-4.8	0.0	50.0	99.0
=	-4.3	0.0	50.0	99.3
=	-3.8	0.0	50.0	99.5
=	-3.3	0.0	50.0	99.7
=	-2.8	0.0	50.0	99.8
=	-2.3	0.0	50.0	99.9
=	-1.8	0.0	50.0	99.9
=	-1.3	0.0	50.0	100.0
=	-0.8	0.0	50.0	100.0
=	-0.3	0.0	50.0	100.0
=	0.0	0.0	50.0	100.0
=	0.2	0.0	50.0	100.0
=	0.7	0.0	50.0	100.0
=	1.2	0.0	50.0	100.0
=	1.7	0.0	50.0	99.9
=	2.2	0.0	50.0	99.9
=	2.7	0.0	50.0	99.8
=	3.2	0.0	50.0	99.7
=	3.7	0.0	50.0	99.5
=	4.2	0.0	50.0	99.3
=	4.7	0.0	50.0	99.0
=	5.2	0.0	50.0	98.8
=	5.7	0.0	50.0	98.5
=	6.2	0.0	50.0	98.1
=	6.7	0.0	50.0	97.7
=	7.2	0.0	50.0	97.2
=	7.7	0.0	50.0	96.6
=	8.2	0.0	50.0	96.0
=	8.7	0.0	50.0	95.3
=	9.2	0.0	50.0	94.4
=	9.7	0.0	50.0	93.3
=	10.2	0.0	50.0	92.0
=	10.7	0.0	50.0	90.2
=	11.2	0.0	50.0	88.1
=	11.7	0.0	50.0	85.3
=	12.2	0.0	50.0	81.9
=	12.7	0.0	50.0	77.9
=	13.2	0.0	50.0	73.4
=	13.7	0.0	50.0	68.5
=	14.2	0.0	50.0	63.3
=	14.7	0.0	50.0	57.6
=	15.2	0.0	50.0	51.9
=	15.7	0.0	50.0	46.3
=	16.2	0.0	50.0	40.5
=	16.7	0.0	50.0	34.9
=	17.2	0.0	50.0	29.9
=	17.7	0.0	50.0	25.2
=	18.2	0.0	50.0	20.9
=	18.7	0.0	50.0	17.3
=	19.2	0.0	50.0	14.4
=	19.7	0.0	50.0	12.0
=	20.2	0.0	50.0	10.2
=	20.7	0.0	50.0	8.8
=	21.2	0.0	50.0	7.7
=	21.7	0.0	50.0	6.8
=	22.2	0.0	50.0	6.0
=	22.7	0.0	50.0	5.4
=	23.2	0.0	50.0	4.8
=	23.7	0.0	50.0	4.4
=	24.2	0.0	50.0	4.0
=	24.7	0.0	50.0	3.6
=	25.2	0.0	50.0	3.3
=	25.7	0.0	50.0	3.1
=	26.2	0.0	50.0	2.8
=	26.7	0.0	50.0	2.6
=	27.2	0.0	50.0	2.4
=	27.7	0.0	50.0	2.3
=	28.2	0.0	50.0	2.1
=	28.7	0.0	50.0	2.0
=	29.2	0.0	50.0	1.9
=	29.7	0.0	50.0	1.8
=	30.2	0.0	50.0	1.7
=	30.7	0.0	50.0	1.6
=	31.2	0.0	50.0	1.5
=	31.7	0.0	50.0	1.5
=	32.2	0.0	50.0	1.4
=	32.7	0.0	50.0	1.3
=	33.2	0.0	50.0	1.3
=	33.7	0.0	50.0	1.2
=	34.2	0.0	50.0	1.2
=	34.7	0.0	50.0	1.1
=	35.2	0.0	50.0	1.1
=	35.7	0.0	50.0	1.1
=	36.2	0.0	50.0	1.0
=	36.7	0.0	50.0	1.0
=	37.2	0.0	50.0	1.0
=	37.7	0.0	50.0	1.0
=	38.2	0.0	50.0	0.9
=	38.7	0.0	50.0	0.9
=	39.2	0.0	50.0	0.9
=	39.7	0.0	50.0	0.9
=	40.2	0.0	50.0	0.8
=	40.7	0.0	50.0	0.8
=	41.2	0.0	50.0	0.8
=	41.7	0.0	50.0	0.8
=	42.2	0.0	50.0	0.8
=	42.7	0.0	50.0	0.8
=	43.2	0.0	50.0	0.7
=	43.7	0.0	50.0	0.7
=	44.2	0.0	50.0	0.7
=	44.7	0.0	50.0	0.7
=	45.2	0.0	50.0	0.7
=	45.7	0.0	50.0	0.7
=	46.2	0.0	50.0	0.7
=	46.7	0.0	50.0	0.7
=	47.2	0.0	50.0	0.6
=	47.7	0.0	50.0	0.6
=	48.2	0.0	50.0	0.6
=	48.7	0.0	50.0	0.6
=	49.2	0.0	50.0	0.6
=	49.7	0.0	50.0	0.6
=	50.2	0.0	50.0	0.6
=	50.7	0.0	50.0	0.6
=	51.2	0.0	50.0	0.6
=	51.7	0.0	50.0	0.6
=	52.2	0.0	50.0	0.6
=	52.7	0.0	50.0	0.5
=	53.2	0.0	50.0	0.5
=	53.7	0.0	50.0	0.5
=	54.2	0.0	50.0	0.5
=	54.7	0.0	50.0	0.5
=	55.2	0.0	50.0	0.5
=	55.7	0.0	50.0	0.5
=	56.2	0.0	50.0	0.5
=	56.7	0.0	50.0	0.5
=	57.2	0.0	50.0	0.5
=	57.7	0.0	50.0	0.5
=	58.2	0.0	50.0	0.5
=	58.7	0.0	50.0	0.5
=	59.2	0.0	50.0	0.5
=	59.7	0.0	50.0	0.5
=	60.2	0.0	50.0	0.5
=	60.7	0.0	50.0	0.5
=	61.2	0.0	50.0	0.5
=	61.7	0.0	50.0	0.5
=	62.2	0.0	50.0	0.4
=	62.7	0.0	50.0	0.4
=	63.2	0.0	50.0	0.4
=	63.7	0.0	50.0	0.4
=	64.2	0.0	50.0	0.4
=	64.7	0.0	50.0	0.4
=	65.2	0.0	50.0	0.4
:EOM # End of Measurement
#
# RFA300 ASCII Measurement Dump ( BDS format )
#
# Measurement number 	3
#
%VNR 1.0
%MOD 	RAT
%TYP 	SCN
%SCN 	PRO
%FLD 	ION
%DAT 	09-21-2011
%TIM 	12:00:00
%FSZ 	030	030
%BMT 	PHO	   10.0
%SSD 	1000
%BUP 	0
%BRD 	1000
%FSH 	1
%ASC 	0
%WEG 	0
%GPO 	0
%CPO 	0
%MEA 	2
%PRD 	100,0
%PTS 	266
%STS 	    -66.1	  0.0	   100.0 # Start Scan values in mm ( X , Y , Z )
%EDS 	    65.9	   0.0	   100.0 # End Scan values in mm ( X , Y , Z )
#
#	  X      Y      Z     Dose
#
=	-66.1	0.0	100.0	0.6
=	-65.6	0.0	100.0	0.6
=	-65.1	0.0	100.0	0.6
=	-64.6	0.0	100.0	0.7
=	-64.1	0.0	100.0	0.7
=	-63.6	0.0	100.0	0.7
=	-63.1	0.0	100.0	0.7
=	-62.6	0.0	100.0	0.7
=	-62.1	0.0	100.0	0.7
=	-61.6	0.0	100.0	0.7
=	-61.1	0.0	100.0	0.7
=	-60.6	0.0	100.0	0.7
=	-60.1	0.0	100.0	0.7
=	-59.6	0.0	100.0	0.7
=	-59.1	0.0	100.0	0.7
=	-58.6	0.0	100.0	0.8
=	-58.1	0.0	100.0	0.8
=	-57.6	0.0	100.0	0.8
=	-57.1	0.0	100.0	0.8
=	-56.6	0.0	100.0	0.8
=	-56.1	0.0	100.0	0.8
=	-55.6	0.0	100.0	0.8
=	-55.1	0.0	100.0	0.8
=	-54.6	0.0	100.0	0.8
=	-54.1	0.0	100.0	0.9
=	-53.6	0.0	100.0	0.9
=	-53.1	0.0	100.0	0.9
=	-52.6	0.0	100.0	0.9
=	-52.1	0.0	100.0	0.9
=	-51.6	0.0	100.0	0.9
=	-51.1	0.0	100.0	0.9
=	-50.6	0.0	100.0	1.0
=	-50.1	0.0	100.0	1.0
=	-49.6	0.0	100.0	1.0
=	-49.1	0.0	100.0	1.0
=	-48.6	0.0	100.0	1.0
=	-48.1	0.0	100.0	1.0
=	-47.6	0.0	100.0	1.1
=	-47.1	0.0	100.0	1.1
=	-46.6	0.0	100.0	1.1
=	-46.1	0.0	100.0	1.1
=	-45.6	0.0	100.0	1.1
=	-45.1	0.0	100.0	1.2
=	-44.6	0.0	100.0	1.2
=	-44.1	0.0	100.0	1.2
=	-43.6	0.0	100.0	1.2
=	-43.1	0.0	100.0	1.2
=	-42.6	0.0	100.0	1.3
=	-42.1	0.0	100.0	1.3
=	-41.6	0.0	100.0	1.3
=	-41.1	0.0	100.0	1.4
=	-40.6	0.0	100.0	1.4
=	-40.1	0.0	100.0	1.4
=	-39.6	0.0	100.0	1.5
=	-39.1	0.0	100.0	1.5
=	-38.6	0.0	100.0	1.5
=	-38.1	0.0	100.0	1.6
=	-37.6	0.0	100.0	1.6
=	-37.1	0.0	100.0	1.7
=	-36.6	0.0	100.0	1.7
=	-36.1	0.0	100.0	1.7
=	-35.6	0.0	100.0	1.8
=	-35.1	0.0	100.0	1.9
=	-34.6	0.0	100.0	1.9
=	-34.1	0.0	100.0	2.0
=	-33.6	0.0	100.0	2.0
=	-33.1	0.0	100.0	2.1
=	-32.6	0.0	100.0	2.2
=	-32.1	0.0	100.0	2.3
=	-31.6	0.0	100.0	2.4
=	-31.1	0.0	100.0	2.5
=	-30.6	0.0	100.0	2.6
=	-30.1	0.0	100.0	2.7
=	-29.6	0.0	100.0	2.8
=	-29.1	0.0	100.0	3.0
=	-28.6	0.0	100.0	3.1
=	-28.1	0.0	100.0	3.3
=	-27.6	0.0	100.0	3.5
=	-27.1	0.0	100.0	3.7
=	-26.6	0.0	100.0	4.0
=	-26.1	0.0	100.0	4.3
=	-25.6	0.0	100.0	4.6
=	-25.1	0.0	100.0	4.9
=	-24.6	0.0	100.0	5.4
=	-24.1	0.0	100.0	5.8
=	-23.6	0.0	100.0	6.4
=	-23.1	0.0	100.0	7.0
=	-22.6	0.0	100.0	7.8
=	-22.1	0.0	100.0	8.7
=	-21.6	0.0	100.0	9.9
=	-21.1	0.0	100.0	11.3
=	-20.6	0.0	100.0	13.0
=	-20.1	0.0	100.0	15.1
=	-19.6	0.0	100.0	17.8
=	-19.1	0.0	100.0	21.0
=	-18.6	0.0	100.0	24.9
=	-18.1	0.0	100.0	29.2
=	-17.6	0.0	100.0	34.0
=	-17.1	0.0	100.0	39.3
=	-16.6	0.0	100.0	44.8
=	-16.1	0.0	100.0	50.4
=	-15.6	0.0	100.0	56.0
=	-15.1	0.0	100.0	61.3
=	-14.6	0.0	100.0	66.6
=	-14.1	0.0	100.0	71.6
=	-13.6	0.0	100.0	76.1
=	-13.1	0.0	100.0	80.1
=	-12.6	0.0	100.0	83.6
=	-12.1	0.0	100.0	86.6
=	-11.6	0.0	100.0	89.0
=	-11.1	0.0	100.0	90.9
=	-10.6	0.0	100.0	92.3
=	-10.1	0.0	100.0	93.5
=	-9.6	0.0	100.0	94.4
=	-9.1	0.0	100.0	95.2
=	-8.6	0.0	100.0	96.0
=	-8.1	0.0	100.0	96.6
=	-7.6	0.0	100.0	97.2
=	-7.1	0.0	100.0	97.6
=	-6.6	0.0	100.0	98.0
=	-6.1	0.0	100.0	98.4
=	-5.6	0.0	100.0	98.7
=	-5.1	0.0	100.0	98.9
=	-4.6	0.0	100.0	99.1
=	-4.1	0.0	100.0	99.3
=	-3.6	0.0	100.0	99.5
=	-3.1	0.0	100.0	99.6
=	-2.6	0.0	100.0	99.8
=	-2.1	0.0	100.0	99.9
=	-1.6	0.0	100.0	99.9
=	-1.1	0.0	100.0	100.0
=	-0.6	0.0	100.0	100.0
=	-0.1	0.0	100.0	100.0
=	0.0	0.0	100.0	100.0
=	0.4	0.0	100.0	100.0
=	0.9	0.0	100.0	100.0
=	1.4	0.0	100.0	100.0
=	1.9	0.0	100.0	99.9
=	2.4	0.0	100.0	99.8
=	2.9	0.0	100.0	99.7
=	3.4	0.0	100.0	99.6
=	3.9	0.0	100.0	99.5
=	4.4	0.0	100.0	99.2
=	4.9	0.0	100.0	99.0
=	5.4	0.0	100.0	98.8
=	5.9	0.0	100.0	98.6
=	6.4	0.0	100.0	98.2
=	6.9	0.0	100.0	97.9
=	7.4	0.0	100.0	97.4
=	7.9	0.0	100.0	96.9
=	8.4	0.0	100.0	96.3
=	8.9	0.0	100.0	95.7
=	9.4	0.0	100.0	94.9
=	9.9	0.0	100.0	94.0
=	10.4	0.0	100.0	93.0
=	10.9	0.0	100.0	91.7
=	11.4	0.0	100.0	90.1
=	11.9	0.0	100.0	88.0
=	12.4	0.0	100.0	85.3
=	12.9	0.0	100.0	82.1
=	13.4	0.0	100.0	78.3
=	13.9	0.0	100.0	74.0
=	14.4	0.0	100.0	69.4
=	14.9	0.0	100.0	64.2
=	15.4	0.0	100.0	58.9
=	15.9	0.0	100.0	53.4
=	16.4	0.0	100.0	47.7
=	16.9	0.0	100.0	42.2
=	17.4	0.0	100.0	36.8
=	17.9	0.0	100.0	31.7
=	18.4	0.0	100.0	27.1
=	18.9	0.0	100.0	23.1
=	19.4	0.0	100.0	19.5
=	19.9	0.0	100.0	16.5
=	20.4	0.0	100.0	14.0
=	20.9	0.0	100.0	12.1
=	21.4	0.0	100.0	10.6
=	21.9	0.0	100.0	9.3
=	22.4	0.0	100.0	8.3
=	22.9	0.0	100.0	7.4
=	23.4	0.0	100.0	6.7
=	23.9	0.0	100.0	6.1
=	24.4	0.0	100.0	5.6
=	24.9	0.0	100.0	5.2
=	25.4	0.0	100.0	4.8
=	25.9	0.0	100.0	4.4
=	26.4	0.0	100.0	4.1
=	26.9	0.0	100.0	3.9
=	27.4	0.0	100.0	3.6
=	27.9	0.0	100.0	3.4
=	28.4	0.0	100.0	3.2
=	28.9	0.0	100.0	3.0
=	29.4	0.0	100.0	2.9
=	29.9	0.0	100.0	2.8
=	30.4	0.0	100.0	2.6
=	30.9	0.0	100.0	2.5
=	31.4	0.0	100.0	2.4
=	31.9	0.0	100.0	2.3
=	32.4	0.0	100.0	2.2
=	32.9	0.0	100.0	2.1
=	33.4	0.0	100.0	2.1
=	33.9	0.0	100.0	2.0
=	34.4	0.0	100.0	2.0
=	34.9	0.0	100.0	1.9
=	35.4	0.0	100.0	1.8
=	35.9	0.0	100.0	1.8
=	36.4	0.0	100.0	1.7
=	36.9	0.0	100.0	1.7
=	37.4	0.0	100.0	1.6
=	37.9	0.0	100.0	1.6
=	38.4	0.0	100.0	1.5
=	38.9	0.0	100.0	1.5
=	39.4	0.0	100.0	1.5
=	39.9	0.0	100.0	1.5
=	40.4	0.0	100.0	1.4
=	40.9	0.0	100.0	1.4
=	41.4	0.0	100.0	1.3
=	41.9	0.0	100.0	1.3
=	42.4	0.0	100.0	1.3
=	42.9	0.0	100.0	1.3
=	43.4	0.0	100.0	1.2
=	43.9	0.0	100.0	1.2
=	44.4	0.0	100.0	1.2
=	44.9	0.0	100.0	1.2
=	45.4	0.0	100.0	1.1
=	45.9	0.0	100.0	1.1
=	46.4	0.0	100.0	1.1
=	46.9	0.0	100.0	1.1
=	47.4	0.0	100.0	1.1
=	47.9	0.0	100.0	1.0
=	48.4	0.0	100.0	1.0
=	48.9	0.0	100.0	1.0
=	49.4	0.0	100.0	1.0
=	49.9	0.0	100.0	1.0
=	50.4	0.0	100.0	1.0
=	50.9	0.0	100.0	1.0
=	51.4	0.0	100.0	0.9
=	51.9	0.0	100.0	0.9
=	52.4	0.0	100.0	0.9
=	52.9	0.0	100.0	0.9
=	53.4	0.0	100.0	0.9
=	53.9	0.0	100.0	0.9
=	54.4	0.0	100.0	0.8
=	54.9	0.0	100.0	0.8
=	55.4	0.0	100.0	0.8
=	55.9	0.0	100.0	0.8
=	56.4	0.0	100.0	0.8
=	56.9	0.0	100.0	0.8
=	57.4	0.0	100.0	0.8
=	57.9	0.0	100.0	0.8
=	58.4	0.0	100.0	0.8
=	58.9	0.0	100.0	0.7
=	59.4	0.0	100.0	0.7
=	59.9	0.0	100.0	0.7
=	60.4	0.0	100.0	0.7
=	60.9	0.0	100.0	0.7
=	61.4	0.0	100.0	0.7
=	61.9	0.0	100.0	0.7
=	62.4	0.0	100.0	0.7
=	62.9	0.0	100.0	0.7
=	63.4	0.0	100.0	0.7
=	63.9	0.0	100.0	0.7
=	64.4	0.0	100.0	0.7
=	64.9	0.0	100.0	0.7
=	65.4	0.0	100.0	0.6
=	65.9	0.0	100.0	0.6
:EOM # End of Measurement
#
# RFA300 ASCII Measurement Dump ( BDS format )
#
# Measurement number 	4
#
%VNR 1.0
%MOD 	RAT
%TYP 	SCN
%SCN 	PRO
%FLD 	ION
%DAT 	09-21-2011
%TIM 	12:00:00
%FSZ 	030	030
%BMT 	PHO	   10.0
%SSD 	1000
%BUP 	0
%BRD 	1000
%FSH 	1
%ASC 	0
%WEG 	0
%GPO 	0
%CPO 	0
%MEA 	2
%PRD 	200,0
%PTS 	269
%STS 	    -67.0	  0.0	   200.0 # Start Scan values in mm ( X , Y , Z )
%EDS 	    67.0	   0.0	   200.0 # End Scan values in mm ( X , Y , Z )
#
#	  X      Y      Z     Dose
#
=	-67.0	0.0	200.0	1.1
=	-66.5	0.0	200.0	1.1
=	-66.0	0.0	200.0	1.1
=	-65.5	0.0	200.0	1.1
=	-65.0	0.0	200.0	1.1
=	-64.5	0.0	200.0	1.1
=	-64.0	0.0	200.0	1.1
=	-63.5	0.0	200.0	1.2
=	-63.0	0.0	200.0	1.2
=	-62.5	0.0	200.0	1.2
=	-62.0	0.0	200.0	1.2
=	-61.5	0.0	200.0	1.2
=	-61.0	0.0	200.0	1.2
=	-60.5	0.0	200.0	1.3
=	-60.0	0.0	200.0	1.3
=	-59.5	0.0	200.0	1.3
=	-59.0	0.0	200.0	1.3
=	-58.5	0.0	200.0	1.3
=	-58.0	0.0	200.0	1.3
=	-57.5	0.0	200.0	1.3
=	-57.0	0.0	200.0	1.4
=	-56.5	0.0	200.0	1.4
=	-56.0	0.0	200.0	1.4
=	-55.5	0.0	200.0	1.4
=	-55.0	0.0	200.0	1.4
=	-54.5	0.0	200.0	1.5
=	-54.0	0.0	200.0	1.5
=	-53.5	0.0	200.0	1.5
=	-53.0	0.0	200.0	1.5
=	-52.5	0.0	200.0	1.5
=	-52.0	0.0	200.0	1.6
=	-51.5	0.0	200.0	1.6
=	-51.0	0.0	200.0	1.6
=	-50.5	0.0	200.0	1.6
=	-50.0	0.0	200.0	1.7
=	-49.5	0.0	200.0	1.7
=	-49.0	0.0	200.0	1.7
=	-48.5	0.0	200.0	1.7
=	-48.0	0.0	200.0	1.8
=	-47.5	0.0	200.0	1.8
=	-47.0	0.0	200.0	1.8
=	-46.5	0.0	200.0	1.9
=	-46.0	0.0	200.0	1.9
=	-45.5	0.0	200.0	1.9
=	-45.0	0.0	200.0	1.9
=	-44.5	0.0	200.0	2.0
=	-44.0	0.0	200.0	2.0
=	-43.5	0.0	200.0	2.1
=	-43.0	0.0	200.0	2.1
=	-42.5	0.0	200.0	2.1
=	-42.0	0.0	200.0	2.2
=	-41.5	0.0	200.0	2.2
=	-41.0	0.0	200.0	2.3
=	-40.5	0.0	200.0	2.3
=	-40.0	0.0	200.0	2.4
=	-39.5	0.0	200.0	2.4
=	-39.0	0.0	200.0	2.5
=	-38.5	0.0	200.0	2.5
=	-38.0	0.0	200.0	2.6
=	-37.5	0.0	200.0	2.6
=	-37.0	0.0	200.0	2.7
=	-36.5	0.0	200.0	2.8
=	-36.0	0.0	200.0	2.8
=	-35.5	0.0	200.0	2.9
=	-35.0	0.0	200.0	3.0
=	-34.5	0.0	200.0	3.1
=	-34.0	0.0	200.0	3.2
=	-33.5	0.0	200.0	3.2
=	-33.0	0.0	200.0	3.4
=	-32.5	0.0	200.0	3.5
=	-32.0	0.0	200.0	3.6
=	-31.5	0.0	200.0	3.8
=	-31.0	0.0	200.0	3.9
=	-30.5	0.0	200.0	4.1
=	-30.0	0.0	200.0	4.3
=	-29.5	0.0	200.0	4.5
=	-29.0	0.0	200.0	4.7
=	-28.5	0.0	200.0	5.0
=	-28.0	0.0	200.0	5.2
=	-27.5	0.0	200.0	5.6
=	-27.0	0.0	200.0	5.9
=	-26.5	0.0	200.0	6.4
=	-26.0	0.0	200.0	6.8
=	-25.5	0.0	200.0	7.4
=	-25.0	0.0	200.0	8.0
=	-24.5	0.0	200.0	8.8
=	-24.0	0.0	200.0	9.7
=	-23.5	0.0	200.0	10.7
=	-23.0	0.0	200.0	12.0
=	-22.5	0.0	200.0	13.5
=	-22.0	0.0	200.0	15.4
=	-21.5	0.0	200.0	17.6
=	-21.0	0.0	200.0	20.3
=	-20.5	0.0	200.0	23.7
=	-20.0	0.0	200.0	27.5
=	-19.5	0.0	200.0	31.8
=	-19.0	0.0	200.0	36.4
=	-18.5	0.0	200.0	41.4
=	-18.0	0.0	200.0	46.5
=	-17.5	0.0	200.0	51.8
=	-17.0	0.0	200.0	56.8
=	-16.5	0.0	200.0	61.9
=	-16.0	0.0	200.0	66.8
=	-15.5	0.0	200.0	71.5
=	-15.0	0.0	200.0	75.7
=	-14.5	0.0	200.0	79.6
=	-14.0	0.0	200.0	82.8
=	-13.5	0.0	200.0	85.6
=	-13.0	0.0	200.0	87.9
=	-12.5	0.0	200.0	89.7
=	-12.0	0.0	200.0	91.2
=	-11.5	0.0	200.0	92.5
=	-11.0	0.0	200.0	93.6
=	-10.5	0.0	200.0	94.5
=	-10.0	0.0	200.0	95.2
=	-9.5	0.0	200.0	95.8
=	-9.0	0.0	200.0	96.4
=	-8.5	0.0	200.0	97.0
=	-8.0	0.0	200.0	97.5
=	-7.5	0.0	200.0	97.9
=	-7.0	0.0	200.0	98.2
=	-6.5	0.0	200.0	98.5
=	-6.0	0.0	200.0	98.7
=	-5.5	0.0	200.0	98.9
=	-5.0	0.0	200.0	99.2
=	-4.5	0.0	200.0	99.3
=	-4.0	0.0	200.0	99.5
=	-3.5	0.0	200.0	99.6
=	-3.0	0.0	200.0	99.8
=	-2.5	0.0	200.0	99.9
=	-2.0	0.0	200.0	99.9
=	-1.5	0.0	200.0	100.0
=	-1.0	0.0	200.0	100.0
=	-0.5	0.0	200.0	100.0
=	0.0	0.0	200.0	100.0
=	0.5	0.0	200.0	100.0
=	1.0	0.0	200.0	100.0
=	1.5	0.0	200.0	100.0
=	2.0	0.0	200.0	99.9
=	2.5	0.0	200.0	99.9
=	3.0	0.0	200.0	99.8
=	3.5	0.0	200.0	99.6
=	4.0	0.0	200.0	99.4
=	4.5	0.0	200.0	99.3
=	5.0	0.0	200.0	99.1
=	5.5	0.0	200.0	98.9
=	6.0	0.0	200.0	98.7
=	6.5	0.0	200.0	98.5
=	7.0	0.0	200.0	98.2
=	7.5	0.0	200.0	97.9
=	8.0	0.0	200.0	97.5
=	8.5	0.0	200.0	97.0
=	9.0	0.0	200.0	96.4
=	9.5	0.0	200.0	95.8
=	10.0	0.0	200.0	95.1
=	10.5	0.0	200.0	94.4
=	11.0	0.0	200.0	93.5
=	11.5	0.0	200.0	92.5
=	12.0	0.0	200.0	91.2
=	12.5	0.0	200.0	89.6
=	13.0	0.0	200.0	87.8
=	13.5	0.0	200.0	85.5
=	14.0	0.0	200.0	82.7
=	14.5	0.0	200.0	79.4
=	15.0	0.0	200.0	75.5
=	15.5	0.0	200.0	71.3
=	16.0	0.0	200.0	66.5
=	16.5	0.0	200.0	61.6
=	17.0	0.0	200.0	56.5
=	17.5	0.0	200.0	51.5
=	18.0	0.0	200.0	46.2
=	18.5	0.0	200.0	41.1
=	19.0	0.0	200.0	36.2
=	19.5	0.0	200.0	31.5
=	20.0	0.0	200.0	27.3
=	20.5	0.0	200.0	23.5
=	21.0	0.0	200.0	20.1
=	21.5	0.0	200.0	17.4
=	22.0	0.0	200.0	15.3
=	22.5	0.0	200.0	13.4
=	23.0	0.0	200.0	11.9
=	23.5	0.0	200.0	10.7
=	24.0	0.0	200.0	9.6
=	24.5	0.0	200.0	8.7
=	25.0	0.0	200.0	8.0
=	25.5	0.0	200.0	7.3
=	26.0	0.0	200.0	6.8
=	26.5	0.0	200.0	6.3
=	27.0	0.0	200.0	5.9
=	27.5	0.0	200.0	5.5
=	28.0	0.0	200.0	5.2
=	28.5	0.0	200.0	4.9
=	29.0	0.0	200.0	4.7
=	29.5	0.0	200.0	4.4
=	30.0	0.0	200.0	4.3
=	30.5	0.0	200.0	4.1
=	31.0	0.0	200.0	3.9
=	31.5	0.0	200.0	3.8
=	32.0	0.0	200.0	3.6
=	32.5	0.0	200.0	3.5
=	33.0	0.0	200.0	3.4
=	33.5	0.0	200.0	3.2
=	34.0	0.0	200.0	3.2
=	34.5	0.0	200.0	3.1
=	35.0	0.0	200.0	3.0
=	35.5	0.0	200.0	2.9
=	36.0	0.0	200.0	2.8
=	36.5	0.0	200.0	2.8
=	37.0	0.0	200.0	2.7
=	37.5	0.0	200.0	2.6
=	38.0	0.0	200.0	2.6
=	38.5	0.0	200.0	2.5
=	39.0	0.0	200.0	2.5
=	39.5	0.0	200.0	2.4
=	40.0	0.0	200.0	2.4
=	40.5	0.0	200.0	2.3
=	41.0	0.0	200.0	2.3
=	41.5	0.0	200.0	2.2
=	42.0	0.0	200.0	2.2
=	42.5	0.0	200.0	2.1
=	43.0	0.0	200.0	2.1
=	43.5	0.0	200.0	2.1
=	44.0	0.0	200.0	2.0
=	44.5	0.0	200.0	2.0
=	45.0	0.0	200.0	1.9
=	45.5	0.0	200.0	1.9
=	46.0	0.0	200.0	1.9
=	46.5	0.0	200.0	1.9
=	47.0	0.0	200.0	1.8
=	47.5	0.0	200.0	1.8
=	48.0	0.0	200.0	1.8
=	48.5	0.0	200.0	1.7
=	49.0	0.0	200.0	1.7
=	49.5	0.0	200.0	1.7
=	50.0	0.0	200.0	1.7
=	50.5	0.0	200.0	1.6
=	51.0	0.0	200.0	1.6
=	51.5	0.0	200.0	1.6
=	52.0	0.0	200.0	1.6
=	52.5	0.0	200.0	1.5
=	53.0	0.0	200.0	1.5
=	53.5	0.0	200.0	1.5
=	54.0	0.0	200.0	1.5
=	54.5	0.0	200.0	1.5
=	55.0	0.0	200.0	1.4
=	55.5	0.0	200.0	1.4
=	56.0	0.0	200.0	1.4
=	56.5	0.0	200.0	1.4
=	57.0	0.0	200.0	1.4
=	57.5	0.0	200.0	1.3
=	58.0	0.0	200.0	1.3
=	58.5	0.0	200.0	1.3
=	59.0	0.0	200.0	1.3
=	59.5	0.0	200.0	1.3
=	60.0	0.0	200.0	1.3
=	60.5	0.0	200.0	1.3
=	61.0	0.0	200.0	1.2
=	61.5	0.0	200.0	1.2
=	62.0	0.0	200.0	1.2
=	62.5	0.0	200.0	1.2
=	63.0	0.0	200.0	1.2
=	63.5	0.0	200.0	1.2
=	64.0	0.0	200.0	1.1
=	64.5	0.0	200.0	1.1
=	65.0	0.0	200.0	1.1
=	65.5	0.0	200.0	1.1
=	66.0	0.0	200.0	1.1
=	66.5	0.0	200.0	1.1
=	67.0	0.0	200.0	1.1
:EOM # End of Measurement
#
# RFA300 ASCII Measurement Dump ( BDS format )
#
# Measurement number 	5
#
%VNR 1.0
%MOD 	RAT
%TYP 	SCN
%SCN 	PRO
%FLD 	ION
%DAT 	09-21-2011
%TIM 	12:00:00
%FSZ 	030	030
%BMT 	PHO	   10.0
%SSD 	1000
%BUP 	0
%BRD 	1000
%FSH 	1
%ASC 	0
%WEG 	0
%GPO 	0
%CPO 	0
%MEA 	2
%PRD 	300,0
%PTS 	275
%STS 	    -68.6	  0.0	   300.0 # Start Scan values in mm ( X , Y , Z )
%EDS 	    68.4	   0.0	   300.0 # End Scan values in mm ( X , Y , Z )
#
#	  X      Y      Z     Dose
#
=	-68.6	0.0	300.0	1.4
=	-68.1	0.0	300.0	1.5
=	-67.6	0.0	300.0	1.5
=	-67.1	0.0	300.0	1.5
=	-66.6	0.0	300.0	1.5
=	-66.1	0.0	300.0	1.5
=	-65.6	0.0	300.0	1.5
=	-65.1	0.0	300.0	1.6
=	-64.6	0.0	300.0	1.6
=	-64.1	0.0	300.0	1.6
=	-63.6	0.0	300.0	1.6
=	-63.1	0.0	300.0	1.6
=	-62.6	0.0	300.0	1.6
=	-62.1	0.0	300.0	1.7
=	-61.6	0.0	300.0	1.7
=	-61.1	0.0	300.0	1.7
=	-60.6	0.0	300.0	1.7
=	-60.1	0.0	300.0	1.7
=	-59.6	0.0	300.0	1.8
=	-59.1	0.0	300.0	1.8
=	-58.6	0.0	300.0	1.8
=	-58.1	0.0	300.0	1.8
=	-57.6	0.0	300.0	1.9
=	-57.1	0.0	300.0	1.9
=	-56.6	0.0	300.0	1.9
=	-56.1	0.0	300.0	1.9
=	-55.6	0.0	300.0	1.9
=	-55.1	0.0	300.0	2.0
=	-54.6	0.0	300.0	2.0
=	-54.1	0.0	300.0	2.0
=	-53.6	0.0	300.0	2.0
=	-53.1	0.0	300.0	2.1
=	-52.6	0.0	300.0	2.1
=	-52.1	0.0	300.0	2.1
=	-51.6	0.0	300.0	2.2
=	-51.1	0.0	300.0	2.2
=	-50.6	0.0	300.0	2.2
=	-50.1	0.0	300.0	2.3
=	-49.6	0.0	300.0	2.3
=	-49.1	0.0	300.0	2.3
=	-48.6	0.0	300.0	2.3
=	-48.1	0.0	300.0	2.4
=	-47.6	0.0	300.0	2.4
=	-47.1	0.0	300.0	2.5
=	-46.6	0.0	300.0	2.5
=	-46.1	0.0	300.0	2.5
=	-45.6	0.0	300.0	2.6
=	-45.1	0.0	300.0	2.6
=	-44.6	0.0	300.0	2.6
=	-44.1	0.0	300.0	2.7
=	-43.6	0.0	300.0	2.7
=	-43.1	0.0	300.0	2.8
=	-42.6	0.0	300.0	2.8
=	-42.1	0.0	300.0	2.9
=	-41.6	0.0	300.0	2.9
=	-41.1	0.0	300.0	3.0
=	-40.6	0.0	300.0	3.0
=	-40.1	0.0	300.0	3.1
=	-39.6	0.0	300.0	3.2
=	-39.1	0.0	300.0	3.2
=	-38.6	0.0	300.0	3.3
=	-38.1	0.0	300.0	3.3
=	-37.6	0.0	300.0	3.5
=	-37.1	0.0	300.0	3.5
=	-36.6	0.0	300.0	3.6
=	-36.1	0.0	300.0	3.7
=	-35.6	0.0	300.0	3.8
=	-35.1	0.0	300.0	3.9
=	-34.6	0.0	300.0	4.0
=	-34.1	0.0	300.0	4.2
=	-33.6	0.0	300.0	4.3
=	-33.1	0.0	300.0	4.4
=	-32.6	0.0	300.0	4.6
=	-32.1	0.0	300.0	4.8
=	-31.6	0.0	300.0	5.0
=	-31.1	0.0	300.0	5.2
=	-30.6	0.0	300.0	5.4
=	-30.1	0.0	300.0	5.7
=	-29.6	0.0	300.0	6.0
=	-29.1	0.0	300.0	6.3
=	-28.6	0.0	300.0	6.7
=	-28.1	0.0	300.0	7.2
=	-27.6	0.0	300.0	7.7
=	-27.1	0.0	300.0	8.2
=	-26.6	0.0	300.0	8.8
=	-26.1	0.0	300.0	9.6
=	-25.6	0.0	300.0	10.5
=	-25.1	0.0	300.0	11.5
=	-24.6	0.0	300.0	12.9
=	-24.1	0.0	300.0	14.4
=	-23.6	0.0	300.0	16.1
=	-23.1	0.0	300.0	18.4
=	-22.6	0.0	300.0	21.1
=	-22.1	0.0	300.0	24.1
=	-21.6	0.0	300.0	27.7
=	-21.1	0.0	300.0	31.6
=	-20.6	0.0	300.0	36.1
=	-20.1	0.0	300.0	40.9
=	-19.6	0.0	300.0	45.7
=	-19.1	0.0	300.0	50.7
=	-18.6	0.0	300.0	55.8
=	-18.1	0.0	300.0	60.8
=	-17.6	0.0	300.0	65.6
=	-17.1	0.0	300.0	70.2
=	-16.6	0.0	300.0	74.3
=	-16.1	0.0	300.0	77.9
=	-15.6	0.0	300.0	81.1
=	-15.1	0.0	300.0	83.9
=	-14.6	0.0	300.0	86.4
=	-14.1	0.0	300.0	88.5
=	-13.6	0.0	300.0	90.0
=	-13.1	0.0	300.0	91.4
=	-12.6	0.0	300.0	92.5
=	-12.1	0.0	300.0	93.5
=	-11.6	0.0	300.0	94.3
=	-11.1	0.0	300.0	95.2
=	-10.6	0.0	300.0	95.8
=	-10.1	0.0	300.0	96.3
=	-9.6	0.0	300.0	96.8
=	-9.1	0.0	300.0	97.3
=	-8.6	0.0	300.0	97.7
=	-8.1	0.0	300.0	98.0
=	-7.6	0.0	300.0	98.3
=	-7.1	0.0	300.0	98.6
=	-6.6	0.0	300.0	98.7
=	-6.1	0.0	300.0	98.9
=	-5.6	0.0	300.0	99.2
=	-5.1	0.0	300.0	99.4
=	-4.6	0.0	300.0	99.5
=	-4.1	0.0	300.0	99.7
=	-3.6	0.0	300.0	99.7
=	-3.1	0.0	300.0	99.8
=	-2.6	0.0	300.0	99.9
=	-2.1	0.0	300.0	99.9
=	-1.6	0.0	300.0	99.9
=	-1.1	0.0	300.0	100.0
=	-0.6	0.0	300.0	100.0
=	-0.1	0.0	300.0	100.0
=	0.4	0.0	300.0	100.0
=	0.9	0.0	300.0	100.0
=	1.4	0.0	300.0	100.0
=	1.9	0.0	300.0	99.9
=	2.4	0.0	300.0	99.9
=	2.9	0.0	300.0	99.8
=	3.4	0.0	300.0	99.8
=	3.9	0.0	300.0	99.7
=	4.4	0.0	300.0	99.6
=	4.9	0.0	300.0	99.4
=	5.4	0.0	300.0	99.2
=	5.9	0.0	300.0	99.0
=	6.4	0.0	300.0	98.8
=	6.9	0.0	300.0	98.6
=	7.4	0.0	300.0	98.4
=	7.9	0.0	300.0	98.0
=	8.4	0.0	300.0	97.8
=	8.9	0.0	300.0	97.5
=	9.4	0.0	300.0	97.0
=	9.9	0.0	300.0	96.5
=	10.4	0.0	300.0	96.0
=	10.9	0.0	300.0	95.4
=	11.4	0.0	300.0	94.6
=	11.9	0.0	300.0	93.8
=	12.4	0.0	300.0	92.8
=	12.9	0.0	300.0	91.8
=	13.4	0.0	300.0	90.5
=	13.9	0.0	300.0	89.0
=	14.4	0.0	300.0	87.0
=	14.9	0.0	300.0	84.7
=	15.4	0.0	300.0	82.0
=	15.9	0.0	300.0	78.9
=	16.4	0.0	300.0	75.4
=	16.9	0.0	300.0	71.4
=	17.4	0.0	300.0	67.0
=	17.9	0.0	300.0	62.3
=	18.4	0.0	300.0	57.4
=	18.9	0.0	300.0	52.2
=	19.4	0.0	300.0	47.2
=	19.9	0.0	300.0	42.3
=	20.4	0.0	300.0	37.5
=	20.9	0.0	300.0	33.0
=	21.4	0.0	300.0	28.8
=	21.9	0.0	300.0	25.1
=	22.4	0.0	300.0	22.0
=	22.9	0.0	300.0	19.1
=	23.4	0.0	300.0	16.7
=	23.9	0.0	300.0	14.8
=	24.4	0.0	300.0	13.3
=	24.9	0.0	300.0	11.9
=	25.4	0.0	300.0	10.8
=	25.9	0.0	300.0	9.9
=	26.4	0.0	300.0	9.1
=	26.9	0.0	300.0	8.4
=	27.4	0.0	300.0	7.8
=	27.9	0.0	300.0	7.3
=	28.4	0.0	300.0	6.8
=	28.9	0.0	300.0	6.4
=	29.4	0.0	300.0	6.1
=	29.9	0.0	300.0	5.8
=	30.4	0.0	300.0	5.5
=	30.9	0.0	300.0	5.2
=	31.4	0.0	300.0	5.0
=	31.9	0.0	300.0	4.8
=	32.4	0.0	300.0	4.6
=	32.9	0.0	300.0	4.4
=	33.4	0.0	300.0	4.3
=	33.9	0.0	300.0	4.2
=	34.4	0.0	300.0	4.0
=	34.9	0.0	300.0	3.9
=	35.4	0.0	300.0	3.8
=	35.9	0.0	300.0	3.7
=	36.4	0.0	300.0	3.6
=	36.9	0.0	300.0	3.6
=	37.4	0.0	300.0	3.5
=	37.9	0.0	300.0	3.4
=	38.4	0.0	300.0	3.3
=	38.9	0.0	300.0	3.3
=	39.4	0.0	300.0	3.2
=	39.9	0.0	300.0	3.1
=	40.4	0.0	300.0	3.0
=	40.9	0.0	300.0	3.0
=	41.4	0.0	300.0	2.9
=	41.9	0.0	300.0	2.9
=	42.4	0.0	300.0	2.8
=	42.9	0.0	300.0	2.8
=	43.4	0.0	300.0	2.8
=	43.9	0.0	300.0	2.7
=	44.4	0.0	300.0	2.7
=	44.9	0.0	300.0	2.6
=	45.4	0.0	300.0	2.6
