:MSR 	5	 # No. of measurement in file
:SYS BDS 0   # Beam Data Scanner System
#
# RFA300 ASCII Measurement Dump ( BDS format )
#
# Measurement number 	1
#
%VNR 1.0
%MOD 	RAT
%TYP 	SCN
%SCN 	DIA
%FLD 	ION
%DAT 	02-03-2012
%TIM 	12:00:00
%FSZ 	400	400
%BMT 	PHO	   10.0
%SSD 	1000
%BUP 	0
%BRD 	1000
%FSH 	1
%ASC 	0
%WEG 	0
%GPO 	0
%CPO 	0
%MEA 	2
%PRD 	24,0
%PTS 	830
%STS 	    -284.5	  284.5	   24.0 # Start Scan values in mm ( X , Y , Z )
%EDS 	    284.4	   -284.4	   24.0 # End Scan values in mm ( X , Y , Z )
#
#	  X      Y      Z     Dose
#
=	-284.5	284.5	24.0	0.5
=	-283.9	283.9	24.0	0.5
=	-283.2	283.2	24.0	0.5
=	-282.5	282.5	24.0	0.5
=	-281.9	281.9	24.0	0.5
=	-281.2	281.2	24.0	0.5
=	-280.4	280.4	24.0	0.5
=	-279.7	279.7	24.0	0.5
=	-279.1	279.1	24.0	0.5
=	-278.3	278.3	24.0	0.5
=	-277.6	277.6	24.0	0.5
=	-276.9	276.9	24.0	0.6
=	-276.3	276.3	24.0	0.6
=	-275.6	275.6	24.0	0.6
=	-274.9	274.9	24.0	0.6
=	-274.1	274.1	24.0	0.6
=	-273.4	273.4	24.0	0.6
=	-272.6	272.6	24.0	0.6
=	-271.9	271.9	24.0	0.6
=	-271.2	271.2	24.0	0.6
=	-270.5	270.5	24.0	0.6
=	-269.8	269.8	24.0	0.6
=	-269.1	269.1	24.0	0.6
=	-268.5	268.5	24.0	0.6
=	-267.9	267.9	24.0	0.6
=	-267.2	267.2	24.0	0.6
=	-266.5	266.5	24.0	0.6
=	-265.9	265.9	24.0	0.6
=	-265.3	265.3	24.0	0.6
=	-264.7	264.7	24.0	0.6
=	-264.1	264.1	24.0	0.6
=	-263.5	263.5	24.0	0.6
=	-262.9	262.9	24.0	0.6
=	-262.3	262.3	24.0	0.6
=	-261.7	261.7	24.0	0.7
=	-261.0	261.0	24.0	0.7
=	-260.4	260.4	24.0	0.7
=	-259.7	259.7	24.0	0.7
=	-259.0	259.0	24.0	0.7
=	-258.3	258.3	24.0	0.7
=	-257.6	257.6	24.0	0.7
=	-257.0	257.0	24.0	0.7
=	-256.2	256.2	24.0	0.7
=	-255.6	255.6	24.0	0.7
=	-255.1	255.1	24.0	0.7
=	-254.4	254.4	24.0	0.7
=	-253.8	253.8	24.0	0.7
=	-253.2	253.2	24.0	0.7
=	-252.5	252.5	24.0	0.7
=	-251.8	251.8	24.0	0.7
=	-251.1	251.1	24.0	0.7
=	-250.3	250.3	24.0	0.8
=	-249.6	249.6	24.0	0.8
=	-248.9	248.9	24.0	0.8
=	-248.3	248.3	24.0	0.8
=	-247.6	247.6	24.0	0.8
=	-246.9	246.9	24.0	0.8
=	-246.2	246.2	24.0	0.8
=	-245.5	245.5	24.0	0.8
=	-244.9	244.9	24.0	0.8
=	-244.2	244.2	24.0	0.8
=	-243.4	243.4	24.0	0.8
=	-242.7	242.7	24.0	0.8
=	-242.0	242.0	24.0	0.9
=	-241.3	241.3	24.0	0.9
=	-240.6	240.6	24.0	0.9
=	-239.8	239.8	24.0	0.9
=	-239.1	239.1	24.0	0.9
=	-238.4	238.4	24.0	0.9
=	-237.8	237.8	24.0	0.9
=	-237.2	237.2	24.0	0.9
=	-236.5	236.5	24.0	0.9
=	-235.8	235.8	24.0	0.9
=	-235.1	235.1	24.0	0.9
=	-234.4	234.4	24.0	1.0
=	-233.7	233.7	24.0	1.0
=	-233.0	233.0	24.0	1.0
=	-232.4	232.4	24.0	1.0
=	-231.7	231.7	24.0	1.0
=	-230.9	230.9	24.0	1.0
=	-230.2	230.2	24.0	1.0
=	-229.5	229.5	24.0	1.0
=	-228.8	228.8	24.0	1.1
=	-228.1	228.1	24.0	1.1
=	-227.3	227.3	24.0	1.1
=	-226.6	226.6	24.0	1.1
=	-225.9	225.9	24.0	1.1
=	-225.3	225.3	24.0	1.1
=	-224.6	224.6	24.0	1.1
=	-223.9	223.9	24.0	1.2
=	-223.2	223.2	24.0	1.2
=	-222.5	222.5	24.0	1.2
=	-221.7	221.7	24.0	1.2
=	-221.0	221.0	24.0	1.2
=	-220.3	220.3	24.0	1.2
=	-219.6	219.6	24.0	1.3
=	-218.9	218.9	24.0	1.3
=	-218.1	218.1	24.0	1.3
=	-217.4	217.4	24.0	1.3
=	-216.7	216.7	24.0	1.3
=	-216.0	216.0	24.0	1.3
=	-215.3	215.3	24.0	1.4
=	-214.5	214.5	24.0	1.4
=	-213.8	213.8	24.0	1.4
=	-213.1	213.1	24.0	1.4
=	-212.4	212.4	24.0	1.5
=	-211.7	211.7	24.0	1.5
=	-211.0	211.0	24.0	1.5
=	-210.3	210.3	24.0	1.5
=	-209.5	209.5	24.0	1.6
=	-208.8	208.8	24.0	1.6
=	-208.2	208.2	24.0	1.6
=	-207.6	207.6	24.0	1.6
=	-207.0	207.0	24.0	1.7
=	-206.3	206.3	24.0	1.7
=	-205.7	205.7	24.0	1.7
=	-204.9	204.9	24.0	1.7
=	-204.2	204.2	24.0	1.8
=	-203.5	203.5	24.0	1.8
=	-202.8	202.8	24.0	1.9
=	-202.1	202.1	24.0	1.9
=	-201.5	201.5	24.0	1.9
=	-200.8	200.8	24.0	2.0
=	-200.0	200.0	24.0	2.0
=	-199.3	199.3	24.0	2.1
=	-198.6	198.6	24.0	2.1
=	-197.9	197.9	24.0	2.2
=	-197.2	197.2	24.0	2.2
=	-196.5	196.5	24.0	2.3
=	-195.7	195.7	24.0	2.3
=	-195.0	195.0	24.0	2.4
=	-194.4	194.4	24.0	2.5
=	-193.7	193.7	24.0	2.5
=	-193.1	193.1	24.0	2.6
=	-192.5	192.5	24.0	2.7
=	-191.7	191.7	24.0	2.8
=	-191.1	191.1	24.0	2.9
=	-190.4	190.4	24.0	3.1
=	-189.7	189.7	24.0	3.3
=	-189.0	189.0	24.0	3.5
=	-188.3	188.3	24.0	3.8
=	-187.7	187.7	24.0	4.2
=	-187.0	187.0	24.0	4.7
=	-186.4	186.4	24.0	5.3
=	-185.8	185.8	24.0	5.9
=	-185.1	185.1	24.0	6.9
=	-184.4	184.4	24.0	8.2
=	-183.8	183.8	24.0	9.6
=	-183.1	183.1	24.0	11.4
=	-182.4	182.4	24.0	13.8
=	-181.7	181.7	24.0	16.5
=	-180.9	180.9	24.0	19.4
=	-180.2	180.2	24.0	22.2
=	-179.5	179.5	24.0	24.9
=	-178.8	178.8	24.0	27.1
=	-178.1	178.1	24.0	28.9
=	-177.4	177.4	24.0	30.2
=	-176.7	176.7	24.0	31.0
=	-175.9	175.9	24.0	31.6
=	-175.2	175.2	24.0	32.0
=	-174.5	174.5	24.0	32.3
=	-173.8	173.8	24.0	32.6
=	-173.1	173.1	24.0	32.8
=	-172.4	172.4	24.0	33.1
=	-171.6	171.6	24.0	33.3
=	-170.9	170.9	24.0	33.5
=	-170.2	170.2	24.0	33.6
=	-169.5	169.5	24.0	33.8
=	-168.9	168.9	24.0	34.0
=	-168.2	168.2	24.0	34.1
=	-167.5	167.5	24.0	34.3
=	-166.7	166.7	24.0	34.5
=	-166.0	166.0	24.0	34.6
=	-165.4	165.4	24.0	34.8
=	-164.7	164.7	24.0	34.9
=	-164.1	164.1	24.0	35.1
=	-163.4	163.4	24.0	35.2
=	-162.7	162.7	24.0	35.4
=	-162.0	162.0	24.0	35.6
=	-161.4	161.4	24.0	35.7
=	-160.8	160.8	24.0	35.8
=	-160.1	160.1	24.0	36.0
=	-159.5	159.5	24.0	36.1
=	-158.9	158.9	24.0	36.3
=	-158.4	158.4	24.0	36.4
=	-157.6	157.6	24.0	36.5
=	-156.9	156.9	24.0	36.7
=	-156.3	156.3	24.0	36.8
=	-155.6	155.6	24.0	37.0
=	-155.0	155.0	24.0	37.2
=	-154.3	154.3	24.0	37.3
=	-153.7	153.7	24.0	37.5
=	-153.0	153.0	24.0	37.6
=	-152.3	152.3	24.0	37.8
=	-151.5	151.5	24.0	37.9
=	-150.8	150.8	24.0	38.1
=	-150.1	150.1	24.0	38.3
=	-149.3	149.3	24.0	38.4
=	-148.6	148.6	24.0	38.6
=	-148.0	148.0	24.0	38.8
=	-147.3	147.3	24.0	38.9
=	-146.6	146.6	24.0	39.1
=	-145.9	145.9	24.0	39.2
=	-145.2	145.2	24.0	39.5
=	-144.5	144.5	24.0	39.6
=	-143.7	143.7	24.0	39.8
=	-143.1	143.1	24.0	40.0
=	-142.4	142.4	24.0	40.1
=	-141.7	141.7	24.0	40.3
=	-141.0	141.0	24.0	40.4
=	-140.4	140.4	24.0	40.6
=	-139.6	139.6	24.0	40.8
=	-139.0	139.0	24.0	40.9
=	-138.2	138.2	24.0	41.1
=	-137.5	137.5	24.0	41.3
=	-136.9	136.9	24.0	41.5
=	-136.2	136.2	24.0	41.7
=	-135.5	135.5	24.0	41.8
=	-134.9	134.9	24.0	42.0
=	-134.1	134.1	24.0	42.2
=	-133.4	133.4	24.0	42.3
=	-132.7	132.7	24.0	42.5
=	-132.1	132.1	24.0	42.7
=	-131.4	131.4	24.0	42.8
=	-130.7	130.7	24.0	43.0
=	-130.1	130.1	24.0	43.2
=	-129.5	129.5	24.0	43.4
=	-128.8	128.8	24.0	43.5
=	-128.1	128.1	24.0	43.7
=	-127.3	127.3	24.0	43.9
=	-126.7	126.7	24.0	44.1
=	-126.0	126.0	24.0	44.3
=	-125.3	125.3	24.0	44.5
=	-124.6	124.6	24.0	44.7
=	-123.9	123.9	24.0	44.9
=	-123.1	123.1	24.0	45.1
=	-122.4	122.4	24.0	45.3
=	-121.8	121.8	24.0	45.5
=	-121.2	121.2	24.0	45.6
=	-120.5	120.5	24.0	45.8
=	-119.8	119.8	24.0	46.0
=	-119.1	119.1	24.0	46.2
=	-118.3	118.3	24.0	46.4
=	-117.6	117.6	24.0	46.6
=	-117.0	117.0	24.0	46.8
=	-116.3	116.3	24.0	47.0
=	-115.6	115.6	24.0	47.2
=	-114.9	114.9	24.0	47.4
=	-114.2	114.2	24.0	47.6
=	-113.4	113.4	24.0	47.8
=	-112.8	112.8	24.0	48.0
=	-112.1	112.1	24.0	48.2
=	-111.4	111.4	24.0	48.5
=	-110.8	110.8	24.0	48.6
=	-110.2	110.2	24.0	48.8
=	-109.6	109.6	24.0	49.0
=	-108.9	108.9	24.0	49.2
=	-108.3	108.3	24.0	49.4
=	-107.6	107.6	24.0	49.6
=	-106.9	106.9	24.0	49.8
=	-106.2	106.2	24.0	50.1
=	-105.6	105.6	24.0	50.3
=	-104.9	104.9	24.0	50.5
=	-104.2	104.2	24.0	50.7
=	-103.4	103.4	24.0	51.0
=	-102.7	102.7	24.0	51.2
=	-102.0	102.0	24.0	51.4
=	-101.3	101.3	24.0	51.6
=	-100.6	100.6	24.0	51.9
=	-100.0	100.0	24.0	52.1
=	-99.4	99.4	24.0	52.3
=	-98.8	98.8	24.0	52.5
=	-98.2	98.2	24.0	52.7
=	-97.5	97.5	24.0	52.9
=	-96.9	96.9	24.0	53.1
=	-96.3	96.3	24.0	53.3
=	-95.7	95.7	24.0	53.5
=	-95.1	95.1	24.0	53.7
=	-94.4	94.4	24.0	53.9
=	-93.7	93.7	24.0	54.2
=	-93.0	93.0	24.0	54.5
=	-92.3	92.3	24.0	54.7
=	-91.7	91.7	24.0	54.9
=	-91.1	91.1	24.0	55.1
=	-90.4	90.4	24.0	55.4
=	-89.6	89.6	24.0	55.7
=	-88.9	88.9	24.0	56.0
=	-88.2	88.2	24.0	56.2
=	-87.5	87.5	24.0	56.5
=	-86.7	86.7	24.0	56.8
=	-86.0	86.0	24.0	57.0
=	-85.3	85.3	24.0	57.3
=	-84.6	84.6	24.0	57.6
=	-83.8	83.8	24.0	57.9
=	-83.1	83.1	24.0	58.2
=	-82.4	82.4	24.0	58.4
=	-81.8	81.8	24.0	58.7
=	-81.0	81.0	24.0	59.0
=	-80.3	80.3	24.0	59.2
=	-79.7	79.7	24.0	59.5
=	-79.0	79.0	24.0	59.8
=	-78.3	78.3	24.0	60.1
=	-77.6	77.6	24.0	60.4
=	-76.9	76.9	24.0	60.6
=	-76.2	76.2	24.0	60.9
=	-75.4	75.4	24.0	61.3
=	-74.7	74.7	24.0	61.6
=	-74.0	74.0	24.0	61.9
=	-73.3	73.3	24.0	62.2
=	-72.5	72.5	24.0	62.5
=	-71.8	71.8	24.0	62.8
=	-71.1	71.1	24.0	63.1
=	-70.5	70.5	24.0	63.4
=	-69.9	69.9	24.0	63.7
=	-69.3	69.3	24.0	63.9
=	-68.6	68.6	24.0	64.2
=	-68.0	68.0	24.0	64.5
=	-67.3	67.3	24.0	64.8
=	-66.6	66.6	24.0	65.2
=	-65.9	65.9	24.0	65.5
=	-65.2	65.2	24.0	65.8
=	-64.4	64.4	24.0	66.2
=	-63.7	63.7	24.0	66.5
=	-63.0	63.0	24.0	66.8
=	-62.3	62.3	24.0	67.2
=	-61.5	61.5	24.0	67.6
=	-60.8	60.8	24.0	67.9
=	-60.1	60.1	24.0	68.3
=	-59.4	59.4	24.0	68.7
=	-58.6	58.6	24.0	69.0
=	-57.9	57.9	24.0	69.3
=	-57.2	57.2	24.0	69.7
=	-56.5	56.5	24.0	70.1
=	-55.7	55.7	24.0	70.5
=	-55.0	55.0	24.0	70.9
=	-54.4	54.4	24.0	71.2
=	-53.8	53.8	24.0	71.5
=	-53.2	53.2	24.0	71.8
=	-52.5	52.5	24.0	72.1
=	-51.9	51.9	24.0	72.5
=	-51.3	51.3	24.0	72.8
=	-50.6	50.6	24.0	73.2
=	-49.9	49.9	24.0	73.6
=	-49.2	49.2	24.0	74.0
=	-48.5	48.5	24.0	74.4
=	-47.9	47.9	24.0	74.7
=	-47.1	47.1	24.0	75.1
=	-46.4	46.4	24.0	75.5
=	-45.7	45.7	24.0	75.9
=	-45.0	45.0	24.0	76.3
=	-44.3	44.3	24.0	76.7
=	-43.7	43.7	24.0	77.1
=	-43.0	43.0	24.0	77.5
=	-42.2	42.2	24.0	77.9
=	-41.5	41.5	24.0	78.4
=	-40.8	40.8	24.0	78.8
=	-40.2	40.2	24.0	79.1
=	-39.6	39.6	24.0	79.5
=	-38.9	38.9	24.0	79.9
=	-38.3	38.3	24.0	80.3
=	-37.6	37.6	24.0	80.8
=	-36.9	36.9	24.0	81.2
=	-36.3	36.3	24.0	81.5
=	-35.6	35.6	24.0	82.0
=	-34.9	34.9	24.0	82.4
=	-34.1	34.1	24.0	82.9
=	-33.4	33.4	24.0	83.3
=	-32.7	32.7	24.0	83.8
=	-31.9	31.9	24.0	84.2
=	-31.2	31.2	24.0	84.7
=	-30.5	30.5	24.0	85.2
=	-29.8	29.8	24.0	85.7
=	-29.2	29.2	24.0	86.1
=	-28.5	28.5	24.0	86.5
=	-27.7	27.7	24.0	87.0
=	-27.0	27.0	24.0	87.5
=	-26.4	26.4	24.0	87.9
=	-25.7	25.7	24.0	88.3
=	-25.0	25.0	24.0	88.8
=	-24.2	24.2	24.0	89.2
=	-23.5	23.5	24.0	89.7
=	-22.8	22.8	24.0	90.2
=	-22.0	22.0	24.0	90.7
=	-21.3	21.3	24.0	91.1
=	-20.6	20.6	24.0	91.6
=	-19.9	19.9	24.0	92.1
=	-19.2	19.2	24.0	92.5
=	-18.6	18.6	24.0	92.9
=	-18.0	18.0	24.0	93.3
=	-17.4	17.4	24.0	93.6
=	-16.8	16.8	24.0	93.9
=	-16.1	16.1	24.0	94.3
=	-15.4	15.4	24.0	94.8
=	-14.6	14.6	24.0	95.2
=	-13.9	13.9	24.0	95.6
=	-13.2	13.2	24.0	95.9
=	-12.5	12.5	24.0	96.3
=	-11.7	11.7	24.0	96.7
=	-11.0	11.0	24.0	97.0
=	-10.3	10.3	24.0	97.4
=	-9.6	9.6	24.0	97.7
=	-8.9	8.9	24.0	98.0
=	-8.3	8.3	24.0	98.3
=	-7.7	7.7	24.0	98.5
=	-6.9	6.9	24.0	98.7
=	-6.2	6.2	24.0	99.0
=	-5.5	5.5	24.0	99.2
=	-4.8	4.8	24.0	99.4
=	-4.2	4.2	24.0	99.5
=	-3.5	3.5	24.0	99.6
=	-2.9	2.9	24.0	99.7
=	-2.3	2.3	24.0	99.8
=	-1.7	1.7	24.0	99.9
=	-1.0	1.0	24.0	99.9
=	-0.1	0.1	24.0	100.0
=	0.3	-0.3	24.0	100.0
=	0.9	-0.9	24.0	99.9
=	1.6	-1.6	24.0	99.9
=	2.2	-2.2	24.0	99.8
=	2.7	-2.7	24.0	99.7
=	3.4	-3.4	24.0	99.7
=	4.1	-4.1	24.0	99.5
=	4.7	-4.7	24.0	99.4
=	5.4	-5.4	24.0	99.2
=	6.1	-6.1	24.0	99.0
=	6.8	-6.8	24.0	98.8
=	7.5	-7.5	24.0	98.5
=	8.2	-8.2	24.0	98.3
=	8.7	-8.7	24.0	98.1
=	9.4	-9.4	24.0	97.8
=	10.1	-10.1	24.0	97.5
=	10.9	-10.9	24.0	97.1
=	11.6	-11.6	24.0	96.7
=	12.3	-12.3	24.0	96.4
=	13.1	-13.1	24.0	96.0
=	13.8	-13.8	24.0	95.7
=	14.5	-14.5	24.0	95.3
=	15.2	-15.2	24.0	94.8
=	15.9	-15.9	24.0	94.4
=	16.6	-16.6	24.0	94.0
=	17.2	-17.2	24.0	93.6
=	17.8	-17.8	24.0	93.3
=	18.4	-18.4	24.0	93.0
=	19.1	-19.1	24.0	92.5
=	19.7	-19.7	24.0	92.2
=	20.4	-20.4	24.0	91.7
=	21.2	-21.2	24.0	91.2
=	21.9	-21.9	24.0	90.8
=	22.6	-22.6	24.0	90.3
=	23.4	-23.4	24.0	89.8
=	24.1	-24.1	24.0	89.3
=	24.8	-24.8	24.0	88.9
=	25.5	-25.5	24.0	88.4
=	26.3	-26.3	24.0	88.0
=	26.9	-26.9	24.0	87.6
=	27.6	-27.6	24.0	87.1
=	28.3	-28.3	24.0	86.6
=	29.0	-29.0	24.0	86.1
=	29.7	-29.7	24.0	85.7
=	30.4	-30.4	24.0	85.3
=	31.1	-31.1	24.0	84.8
=	31.8	-31.8	24.0	84.3
=	32.5	-32.5	24.0	83.9
=	33.3	-33.3	24.0	83.4
=	34.0	-34.0	24.0	83.0
=	34.7	-34.7	24.0	82.5
=	35.4	-35.4	24.0	82.1
=	36.2	-36.2	24.0	81.6
=	36.8	-36.8	24.0	81.3
=	37.4	-37.4	24.0	80.9
=	38.2	-38.2	24.0	80.4
=	38.8	-38.8	24.0	80.0
=	39.4	-39.4	24.0	79.6
=	40.0	-40.0	24.0	79.2
=	40.7	-40.7	24.0	78.8
=	41.4	-41.4	24.0	78.5
=	42.1	-42.1	24.0	78.0
=	42.8	-42.8	24.0	77.6
=	43.5	-43.5	24.0	77.1
=	44.2	-44.2	24.0	76.8
=	44.8	-44.8	24.0	76.4
=	45.5	-45.5	24.0	76.0
=	46.3	-46.3	24.0	75.6
=	47.0	-47.0	24.0	75.2
=	47.7	-47.7	24.0	74.8
=	48.4	-48.4	24.0	74.4
=	49.0	-49.0	24.0	74.1
=	49.7	-49.7	24.0	73.7
=	50.5	-50.5	24.0	73.3
=	51.2	-51.2	24.0	72.9
=	51.8	-51.8	24.0	72.5
=	52.4	-52.4	24.0	72.2
=	53.1	-53.1	24.0	71.9
=	53.7	-53.7	24.0	71.5
=	54.3	-54.3	24.0	71.3
=	54.9	-54.9	24.0	71.0
=	55.6	-55.6	24.0	70.6
=	56.3	-56.3	24.0	70.2
=	57.0	-57.0	24.0	69.8
=	57.8	-57.8	24.0	69.4
=	58.5	-58.5	24.0	69.1
=	59.2	-59.2	24.0	68.7
=	59.9	-59.9	24.0	68.4
=	60.7	-60.7	24.0	68.0
=	61.4	-61.4	24.0	67.6
=	62.1	-62.1	24.0	67.3
=	62.8	-62.8	24.0	66.9
=	63.6	-63.6	24.0	66.5
=	64.3	-64.3	24.0	66.2
=	65.0	-65.0	24.0	65.9
=	65.7	-65.7	24.0	65.6
=	66.5	-66.5	24.0	65.2
=	67.2	-67.2	24.0	64.9
=	67.8	-67.8	24.0	64.6
=	68.5	-68.5	24.0	64.3
=	69.2	-69.2	24.0	64.0
=	69.8	-69.8	24.0	63.7
=	70.4	-70.4	24.0	63.5
=	71.0	-71.0	24.0	63.2
=	71.7	-71.7	24.0	62.9
=	72.4	-72.4	24.0	62.6
=	73.1	-73.1	24.0	62.2
=	73.8	-73.8	24.0	61.9
=	74.6	-74.6	24.0	61.6
=	75.3	-75.3	24.0	61.3
=	76.0	-76.0	24.0	61.0
=	76.7	-76.7	24.0	60.7
=	77.4	-77.4	24.0	60.4
=	78.2	-78.2	24.0	60.1
=	78.9	-78.9	24.0	59.8
=	79.6	-79.6	24.0	59.5
=	80.2	-80.2	24.0	59.3
=	80.9	-80.9	24.0	59.0
=	81.6	-81.6	24.0	58.7
=	82.2	-82.2	24.0	58.5
=	82.9	-82.9	24.0	58.2
=	83.7	-83.7	24.0	57.9
=	84.4	-84.4	24.0	57.6
=	85.1	-85.1	24.0	57.4
=	85.9	-85.9	24.0	57.1
=	86.6	-86.6	24.0	56.8
=	87.3	-87.3	24.0	56.5
=	88.0	-88.0	24.0	56.3
=	88.8	-88.8	24.0	56.0
=	89.5	-89.5	24.0	55.7
=	90.2	-90.2	24.0	55.5
=	91.0	-91.0	24.0	55.2
=	91.6	-91.6	24.0	55.0
=	92.2	-92.2	24.0	54.8
=	92.8	-92.8	24.0	54.6
=	93.6	-93.6	24.0	54.3
=	94.3	-94.3	24.0	54.0
=	95.0	-95.0	24.0	53.8
=	95.6	-95.6	24.0	53.6
=	96.2	-96.2	24.0	53.4
=	96.8	-96.8	24.0	53.2
=	97.4	-97.4	24.0	53.0
=	98.1	-98.1	24.0	52.7
=	98.7	-98.7	24.0	52.5
=	99.3	-99.3	24.0	52.3
=	99.9	-99.9	24.0	52.1
=	100.5	-100.5	24.0	51.9
=	101.1	-101.1	24.0	51.7
=	101.8	-101.8	24.0	51.4
=	102.6	-102.6	24.0	51.2
=	103.3	-103.3	24.0	51.0
=	104.0	-104.0	24.0	50.8
=	104.7	-104.7	24.0	50.5
=	105.4	-105.4	24.0	50.3
=	106.0	-106.0	24.0	50.1
=	106.7	-106.7	24.0	49.9
=	107.5	-107.5	24.0	49.7
=	108.2	-108.2	24.0	49.5
=	108.8	-108.8	24.0	49.3
=	109.5	-109.5	24.0	49.0
=	110.1	-110.1	24.0	48.8
=	110.7	-110.7	24.0	48.7
=	111.3	-111.3	24.0	48.5
=	112.0	-112.0	24.0	48.3
=	112.7	-112.7	24.0	48.1
=	113.3	-113.3	24.0	47.9
=	114.0	-114.0	24.0	47.7
=	114.7	-114.7	24.0	47.5
=	115.5	-115.5	24.0	47.3
=	116.2	-116.2	24.0	47.1
=	116.8	-116.8	24.0	46.8
=	117.5	-117.5	24.0	46.6
=	118.2	-118.2	24.0	46.5
=	118.9	-118.9	24.0	46.3
=	119.7	-119.7	24.0	46.1
=	120.4	-120.4	24.0	45.8
=	121.1	-121.1	24.0	45.6
=	121.7	-121.7	24.0	45.5
=	122.3	-122.3	24.0	45.3
=	123.0	-123.0	24.0	45.1
=	123.7	-123.7	24.0	44.9
=	124.4	-124.4	24.0	44.7
=	125.2	-125.2	24.0	44.5
=	125.9	-125.9	24.0	44.3
=	126.6	-126.6	24.0	44.1
=	127.2	-127.2	24.0	44.0
=	127.9	-127.9	24.0	43.8
=	128.6	-128.6	24.0	43.6
=	129.4	-129.4	24.0	43.4
=	130.0	-130.0	24.0	43.2
=	130.6	-130.6	24.0	43.1
=	131.2	-131.2	24.0	42.9
=	132.0	-132.0	24.0	42.7
=	132.6	-132.6	24.0	42.5
=	133.3	-133.3	24.0	42.4
=	134.0	-134.0	24.0	42.2
=	134.7	-134.7	24.0	42.0
=	135.4	-135.4	24.0	41.8
=	136.0	-136.0	24.0	41.7
=	136.7	-136.7	24.0	41.5
=	137.4	-137.4	24.0	41.4
=	138.1	-138.1	24.0	41.2
=	138.8	-138.8	24.0	41.0
=	139.5	-139.5	24.0	40.8
=	140.3	-140.3	24.0	40.7
=	140.9	-140.9	24.0	40.5
=	141.6	-141.6	24.0	40.3
=	142.3	-142.3	24.0	40.1
=	143.0	-143.0	24.0	40.0
=	143.6	-143.6	24.0	39.8
=	144.3	-144.3	24.0	39.7
=	145.0	-145.0	24.0	39.5
=	145.7	-145.7	24.0	39.3
=	146.5	-146.5	24.0	39.1
=	147.2	-147.2	24.0	39.0
=	147.9	-147.9	24.0	38.8
=	148.5	-148.5	24.0	38.7
=	149.2	-149.2	24.0	38.5
=	149.9	-149.9	24.0	38.3
=	150.7	-150.7	24.0	38.1
=	151.4	-151.4	24.0	38.0
=	152.1	-152.1	24.0	37.8
=	152.9	-152.9	24.0	37.6
=	153.6	-153.6	24.0	37.5
=	154.2	-154.2	24.0	37.3
=	154.9	-154.9	24.0	37.2
=	155.5	-155.5	24.0	37.1
=	156.2	-156.2	24.0	36.9
=	156.8	-156.8	24.0	36.7
=	157.5	-157.5	24.0	36.6
=	158.2	-158.2	24.0	36.4
=	158.8	-158.8	24.0	36.3
=	159.4	-159.4	24.0	36.1
=	160.0	-160.0	24.0	36.0
=	160.7	-160.7	24.0	35.9
=	161.3	-161.3	24.0	35.7
=	161.9	-161.9	24.0	35.6
=	162.6	-162.6	24.0	35.4
=	163.3	-163.3	24.0	35.3
=	164.0	-164.0	24.0	35.1
=	164.6	-164.6	24.0	34.9
=	165.3	-165.3	24.0	34.8
=	165.9	-165.9	24.0	34.7
=	166.6	-166.6	24.0	34.5
=	167.3	-167.3	24.0	34.3
=	168.0	-168.0	24.0	34.2
=	168.8	-168.8	24.0	34.0
=	169.4	-169.4	24.0	33.8
=	170.1	-170.1	24.0	33.7
=	170.8	-170.8	24.0	33.5
=	171.5	-171.5	24.0	33.3
=	172.2	-172.2	24.0	33.1
=	172.9	-172.9	24.0	32.9
=	173.6	-173.6	24.0	32.7
=	174.4	-174.4	24.0	32.4
=	175.1	-175.1	24.0	32.1
=	175.8	-175.8	24.0	31.7
=	176.5	-176.5	24.0	31.2
=	177.2	-177.2	24.0	30.4
=	178.0	-178.0	24.0	29.2
=	178.7	-178.7	24.0	27.5
=	179.4	-179.4	24.0	25.4
=	180.1	-180.1	24.0	22.8
=	180.8	-180.8	24.0	20.0
=	181.5	-181.5	24.0	17.1
=	182.2	-182.2	24.0	14.3
=	183.0	-183.0	24.0	11.9
=	183.6	-183.6	24.0	9.9
=	184.3	-184.3	24.0	8.5
=	185.0	-185.0	24.0	7.1
=	185.7	-185.7	24.0	6.1
=	186.3	-186.3	24.0	5.4
=	186.8	-186.8	24.0	4.8
=	187.5	-187.5	24.0	4.3
=	188.1	-188.1	24.0	3.9
=	188.9	-188.9	24.0	3.6
=	189.6	-189.6	24.0	3.3
=	190.3	-190.3	24.0	3.1
=	191.0	-191.0	24.0	3.0
=	191.6	-191.6	24.0	2.8
=	192.3	-192.3	24.0	2.7
=	193.0	-193.0	24.0	2.6
=	193.6	-193.6	24.0	2.6
=	194.3	-194.3	24.0	2.5
=	194.9	-194.9	24.0	2.4
=	195.6	-195.6	24.0	2.4
=	196.3	-196.3	24.0	2.3
=	197.0	-197.0	24.0	2.2
=	197.7	-197.7	24.0	2.2
=	198.5	-198.5	24.0	2.1
=	199.2	-199.2	24.0	2.1
=	199.9	-199.9	24.0	2.0
=	200.6	-200.6	24.0	2.0
=	201.3	-201.3	24.0	1.9
=	202.0	-202.0	24.0	1.9
=	202.6	-202.6	24.0	1.9
=	203.4	-203.4	24.0	1.8
=	204.1	-204.1	24.0	1.8
=	204.8	-204.8	24.0	1.8
=	205.5	-205.5	24.0	1.7
=	206.2	-206.2	24.0	1.7
=	206.8	-206.8	24.0	1.7
=	207.5	-207.5	24.0	1.6
=	208.1	-208.1	24.0	1.6
=	208.7	-208.7	24.0	1.6
=	209.4	-209.4	24.0	1.6
=	210.1	-210.1	24.0	1.5
=	210.8	-210.8	24.0	1.5
=	211.5	-211.5	24.0	1.5
=	212.3	-212.3	24.0	1.5
=	213.0	-213.0	24.0	1.4
=	213.7	-213.7	24.0	1.4
=	214.4	-214.4	24.0	1.4
=	215.1	-215.1	24.0	1.4
=	215.9	-215.9	24.0	1.4
=	216.6	-216.6	24.0	1.3
=	217.3	-217.3	24.0	1.3
=	218.0	-218.0	24.0	1.3
=	218.7	-218.7	24.0	1.3
=	219.4	-219.4	24.0	1.3
=	220.2	-220.2	24.0	1.2
=	220.9	-220.9	24.0	1.2
=	221.6	-221.6	24.0	1.2
=	222.3	-222.3	24.0	1.2
=	223.0	-223.0	24.0	1.2
=	223.8	-223.8	24.0	1.2
=	224.5	-224.5	24.0	1.1
=	225.2	-225.2	24.0	1.1
=	225.8	-225.8	24.0	1.1
=	226.5	-226.5	24.0	1.1
=	227.2	-227.2	24.0	1.1
=	227.9	-227.9	24.0	1.1
=	228.6	-228.6	24.0	1.1
=	229.4	-229.4	24.0	1.0
=	230.1	-230.1	24.0	1.0
=	230.8	-230.8	24.0	1.0
=	231.5	-231.5	24.0	1.0
=	232.2	-232.2	24.0	1.0
=	232.8	-232.8	24.0	1.0
=	233.5	-233.5	24.0	1.0
=	234.2	-234.2	24.0	1.0
=	235.0	-235.0	24.0	1.0
=	235.7	-235.7	24.0	0.9
=	236.4	-236.4	24.0	0.9
=	237.1	-237.1	24.0	0.9
=	237.7	-237.7	24.0	0.9
=	238.3	-238.3	24.0	0.9
=	239.0	-239.0	24.0	0.9
=	239.7	-239.7	24.0	0.9
=	240.4	-240.4	24.0	0.9
=	241.1	-241.1	24.0	0.9
=	241.9	-241.9	24.0	0.9
=	242.6	-242.6	24.0	0.8
=	243.3	-243.3	24.0	0.8
=	244.0	-244.0	24.0	0.8
=	244.8	-244.8	24.0	0.8
=	245.4	-245.4	24.0	0.8
=	246.1	-246.1	24.0	0.8
=	246.7	-246.7	24.0	0.8
=	247.5	-247.5	24.0	0.8
=	248.2	-248.2	24.0	0.8
=	248.8	-248.8	24.0	0.8
=	249.5	-249.5	24.0	0.8
=	250.2	-250.2	24.0	0.8
=	250.9	-250.9	24.0	0.7
=	251.6	-251.6	24.0	0.7
=	252.4	-252.4	24.0	0.7
=	253.1	-253.1	24.0	0.7
=	253.7	-253.7	24.0	0.7
=	254.3	-254.3	24.0	0.7
=	254.9	-254.9	24.0	0.7
=	255.5	-255.5	24.0	0.7
=	256.1	-256.1	24.0	0.7
=	256.8	-256.8	24.0	0.7
=	257.4	-257.4	24.0	0.7
=	258.1	-258.1	24.0	0.7
=	258.8	-258.8	24.0	0.7
=	259.6	-259.6	24.0	0.7
=	260.3	-260.3	24.0	0.7
=	260.8	-260.8	24.0	0.7
=	261.5	-261.5	24.0	0.7
=	262.2	-262.2	24.0	0.6
=	262.7	-262.7	24.0	0.6
=	263.3	-263.3	24.0	0.6
=	263.9	-263.9	24.0	0.6
=	264.6	-264.6	24.0	0.6
=	265.1	-265.1	24.0	0.6
=	265.7	-265.7	24.0	0.6
=	266.3	-266.3	24.0	0.6
=	267.1	-267.1	24.0	0.6
=	267.7	-267.7	24.0	0.6
=	268.3	-268.3	24.0	0.6
=	268.9	-268.9	24.0	0.6
=	269.7	-269.7	24.0	0.6
=	270.4	-270.4	24.0	0.6
=	271.0	-271.0	24.0	0.6
=	271.8	-271.8	24.0	0.6
=	272.5	-272.5	24.0	0.6
=	273.2	-273.2	24.0	0.6
=	274.0	-274.0	24.0	0.6
=	274.7	-274.7	24.0	0.6
=	275.5	-275.5	24.0	0.6
=	276.2	-276.2	24.0	0.6
=	276.8	-276.8	24.0	0.6
=	277.5	-277.5	24.0	0.5
=	278.2	-278.2	24.0	0.5
=	278.9	-278.9	24.0	0.5
=	279.6	-279.6	24.0	0.5
=	280.3	-280.3	24.0	0.5
=	281.0	-281.0	24.0	0.5
=	281.7	-281.7	24.0	0.5
=	282.4	-282.4	24.0	0.5
=	283.1	-283.1	24.0	0.5
=	283.7	-283.7	24.0	0.5
=	284.4	-284.4	24.0	0.5
:EOM # End of Measurement
#
# RFA300 ASCII Measurement Dump ( BDS format )
#
# Measurement number 	2
#
%VNR 1.0
%MOD 	RAT
%TYP 	SCN
%SCN 	DIA
%FLD 	ION
%DAT 	02-03-2012
%TIM 	12:00:00
%FSZ 	400	400
%BMT 	PHO	   10.0
%SSD 	1000
%BUP 	0
%BRD 	1000
%FSH 	1
%ASC 	0
%WEG 	0
%GPO 	0
%CPO 	0
%MEA 	2
%PRD 	50,0
%PTS 	849
%STS 	    -289.7	  289.7	   50.0 # Start Scan values in mm ( X , Y , Z )
%EDS 	    289.7	   -289.7	   50.0 # End Scan values in mm ( X , Y , Z )
#
#	  X      Y      Z     Dose
#
=	-289.7	289.7	50.0	0.6
=	-288.9	288.9	50.0	0.6
=	-288.3	288.3	50.0	0.6
=	-287.6	287.6	50.0	0.6
=	-286.9	286.9	50.0	0.6
=	-286.2	286.2	50.0	0.6
=	-285.5	285.5	50.0	0.6
=	-284.8	284.8	50.0	0.6
=	-284.2	284.2	50.0	0.6
=	-283.7	283.7	50.0	0.6
=	-283.1	283.1	50.0	0.6
=	-282.5	282.5	50.0	0.6
=	-281.8	281.8	50.0	0.6
=	-281.1	281.1	50.0	0.6
=	-280.5	280.5	50.0	0.6
=	-279.8	279.8	50.0	0.6
=	-279.2	279.2	50.0	0.6
=	-278.5	278.5	50.0	0.6
=	-277.9	277.9	50.0	0.6
=	-277.1	277.1	50.0	0.6
=	-276.5	276.5	50.0	0.7
=	-275.9	275.9	50.0	0.7
=	-275.2	275.2	50.0	0.7
=	-274.5	274.5	50.0	0.7
=	-273.9	273.9	50.0	0.7
=	-273.1	273.1	50.0	0.7
=	-272.4	272.4	50.0	0.7
=	-271.7	271.7	50.0	0.7
=	-271.2	271.2	50.0	0.7
=	-270.6	270.6	50.0	0.7
=	-270.0	270.0	50.0	0.7
=	-269.4	269.4	50.0	0.7
=	-268.7	268.7	50.0	0.7
=	-268.0	268.0	50.0	0.7
=	-267.4	267.4	50.0	0.7
=	-266.6	266.6	50.0	0.7
=	-266.0	266.0	50.0	0.7
=	-265.4	265.4	50.0	0.7
=	-264.8	264.8	50.0	0.7
=	-264.2	264.2	50.0	0.7
=	-263.6	263.6	50.0	0.8
=	-262.9	262.9	50.0	0.8
=	-262.2	262.2	50.0	0.8
=	-261.5	261.5	50.0	0.8
=	-260.7	260.7	50.0	0.8
=	-260.0	260.0	50.0	0.8
=	-259.3	259.3	50.0	0.8
=	-258.6	258.6	50.0	0.8
=	-258.0	258.0	50.0	0.8
=	-257.3	257.3	50.0	0.8
=	-256.7	256.7	50.0	0.8
=	-255.9	255.9	50.0	0.8
=	-255.2	255.2	50.0	0.8
=	-254.5	254.5	50.0	0.8
=	-253.8	253.8	50.0	0.9
=	-253.2	253.2	50.0	0.9
=	-252.5	252.5	50.0	0.9
=	-251.8	251.8	50.0	0.9
=	-251.1	251.1	50.0	0.9
=	-250.4	250.4	50.0	0.9
=	-249.6	249.6	50.0	0.9
=	-248.9	248.9	50.0	0.9
=	-248.2	248.2	50.0	0.9
=	-247.5	247.5	50.0	0.9
=	-246.8	246.8	50.0	0.9
=	-246.1	246.1	50.0	0.9
=	-245.4	245.4	50.0	1.0
=	-244.8	244.8	50.0	1.0
=	-244.1	244.1	50.0	1.0
=	-243.5	243.5	50.0	1.0
=	-242.8	242.8	50.0	1.0
=	-242.0	242.0	50.0	1.0
=	-241.3	241.3	50.0	1.0
=	-240.6	240.6	50.0	1.0
=	-239.9	239.9	50.0	1.0
=	-239.2	239.2	50.0	1.1
=	-238.5	238.5	50.0	1.1
=	-237.8	237.8	50.0	1.1
=	-237.0	237.0	50.0	1.1
=	-236.4	236.4	50.0	1.1
=	-235.8	235.8	50.0	1.1
=	-235.0	235.0	50.0	1.1
=	-234.3	234.3	50.0	1.1
=	-233.6	233.6	50.0	1.2
=	-233.0	233.0	50.0	1.2
=	-232.3	232.3	50.0	1.2
=	-231.6	231.6	50.0	1.2
=	-230.9	230.9	50.0	1.2
=	-230.1	230.1	50.0	1.2
=	-229.4	229.4	50.0	1.2
=	-228.7	228.7	50.0	1.3
=	-228.0	228.0	50.0	1.3
=	-227.3	227.3	50.0	1.3
=	-226.6	226.6	50.0	1.3
=	-225.9	225.9	50.0	1.3
=	-225.3	225.3	50.0	1.3
=	-224.7	224.7	50.0	1.3
=	-224.0	224.0	50.0	1.4
=	-223.3	223.3	50.0	1.4
=	-222.5	222.5	50.0	1.4
=	-221.8	221.8	50.0	1.4
=	-221.2	221.2	50.0	1.5
=	-220.5	220.5	50.0	1.5
=	-219.8	219.8	50.0	1.5
=	-219.1	219.1	50.0	1.5
=	-218.4	218.4	50.0	1.5
=	-217.6	217.6	50.0	1.6
=	-216.9	216.9	50.0	1.6
=	-216.3	216.3	50.0	1.6
=	-215.6	215.6	50.0	1.6
=	-214.9	214.9	50.0	1.7
=	-214.2	214.2	50.0	1.7
=	-213.5	213.5	50.0	1.7
=	-212.9	212.9	50.0	1.7
=	-212.2	212.2	50.0	1.8
=	-211.6	211.6	50.0	1.8
=	-211.0	211.0	50.0	1.8
=	-210.3	210.3	50.0	1.9
=	-209.6	209.6	50.0	1.9
=	-208.9	208.9	50.0	1.9
=	-208.2	208.2	50.0	2.0
=	-207.5	207.5	50.0	2.0
=	-206.7	206.7	50.0	2.1
=	-206.0	206.0	50.0	2.1
=	-205.3	205.3	50.0	2.2
=	-204.6	204.6	50.0	2.2
=	-203.9	203.9	50.0	2.3
=	-203.1	203.1	50.0	2.3
=	-202.4	202.4	50.0	2.4
=	-201.7	201.7	50.0	2.5
=	-201.0	201.0	50.0	2.5
=	-200.3	200.3	50.0	2.6
=	-199.6	199.6	50.0	2.7
=	-199.0	199.0	50.0	2.8
=	-198.3	198.3	50.0	2.8
=	-197.7	197.7	50.0	2.9
=	-197.0	197.0	50.0	3.0
=	-196.4	196.4	50.0	3.1
=	-195.8	195.8	50.0	3.3
=	-195.2	195.2	50.0	3.4
=	-194.5	194.5	50.0	3.6
=	-193.8	193.8	50.0	3.9
=	-193.1	193.1	50.0	4.2
=	-192.4	192.4	50.0	4.6
=	-191.7	191.7	50.0	5.1
=	-191.0	191.0	50.0	5.8
=	-190.2	190.2	50.0	6.6
=	-189.5	189.5	50.0	7.7
=	-188.9	188.9	50.0	8.9
=	-188.3	188.3	50.0	10.3
=	-187.7	187.7	50.0	11.9
=	-187.0	187.0	50.0	14.1
=	-186.2	186.2	50.0	16.7
=	-185.5	185.5	50.0	19.3
=	-184.8	184.8	50.0	21.9
=	-184.1	184.1	50.0	24.3
=	-183.4	183.4	50.0	26.4
=	-182.6	182.6	50.0	28.0
=	-181.9	181.9	50.0	29.2
=	-181.2	181.2	50.0	30.1
=	-180.5	180.5	50.0	30.6
=	-179.8	179.8	50.0	31.0
=	-179.2	179.2	50.0	31.3
=	-178.4	178.4	50.0	31.7
=	-177.7	177.7	50.0	31.9
=	-177.1	177.1	50.0	32.2
=	-176.4	176.4	50.0	32.3
=	-175.7	175.7	50.0	32.6
=	-175.0	175.0	50.0	32.8
=	-174.3	174.3	50.0	33.0
=	-173.7	173.7	50.0	33.1
=	-173.1	173.1	50.0	33.3
=	-172.4	172.4	50.0	33.5
=	-171.7	171.7	50.0	33.6
=	-171.0	171.0	50.0	33.8
=	-170.4	170.4	50.0	34.0
=	-169.7	169.7	50.0	34.2
=	-169.0	169.0	50.0	34.3
=	-168.3	168.3	50.0	34.5
=	-167.6	167.6	50.0	34.6
=	-167.0	167.0	50.0	34.8
=	-166.3	166.3	50.0	34.9
=	-165.6	165.6	50.0	35.1
=	-165.0	165.0	50.0	35.2
=	-164.5	164.5	50.0	35.3
=	-163.7	163.7	50.0	35.5
=	-163.0	163.0	50.0	35.7
=	-162.3	162.3	50.0	35.8
=	-161.6	161.6	50.0	36.0
=	-160.8	160.8	50.0	36.2
=	-160.1	160.1	50.0	36.3
=	-159.4	159.4	50.0	36.5
=	-158.7	158.7	50.0	36.7
=	-158.1	158.1	50.0	36.8
=	-157.5	157.5	50.0	37.0
=	-156.9	156.9	50.0	37.1
=	-156.2	156.2	50.0	37.3
=	-155.5	155.5	50.0	37.4
=	-154.8	154.8	50.0	37.6
=	-154.0	154.0	50.0	37.7
=	-153.3	153.3	50.0	37.9
=	-152.6	152.6	50.0	38.1
=	-152.0	152.0	50.0	38.2
=	-151.2	151.2	50.0	38.4
=	-150.5	150.5	50.0	38.5
=	-149.8	149.8	50.0	38.7
=	-149.1	149.1	50.0	38.9
=	-148.3	148.3	50.0	39.1
=	-147.6	147.6	50.0	39.3
=	-147.0	147.0	50.0	39.4
=	-146.4	146.4	50.0	39.5
=	-145.8	145.8	50.0	39.7
=	-145.2	145.2	50.0	39.8
=	-144.6	144.6	50.0	40.0
=	-144.0	144.0	50.0	40.1
=	-143.4	143.4	50.0	40.3
=	-142.8	142.8	50.0	40.4
=	-142.1	142.1	50.0	40.6
=	-141.4	141.4	50.0	40.8
=	-140.6	140.6	50.0	41.0
=	-139.9	139.9	50.0	41.1
=	-139.2	139.2	50.0	41.3
=	-138.5	138.5	50.0	41.5
=	-137.7	137.7	50.0	41.6
=	-137.0	137.0	50.0	41.9
=	-136.3	136.3	50.0	42.0
=	-135.6	135.6	50.0	42.2
=	-134.9	134.9	50.0	42.4
=	-134.3	134.3	50.0	42.6
=	-133.6	133.6	50.0	42.7
=	-133.0	133.0	50.0	42.9
=	-132.3	132.3	50.0	43.1
=	-131.5	131.5	50.0	43.3
=	-130.8	130.8	50.0	43.5
=	-130.2	130.2	50.0	43.6
=	-129.6	129.6	50.0	43.8
=	-129.0	129.0	50.0	43.9
=	-128.3	128.3	50.0	44.1
=	-127.6	127.6	50.0	44.3
=	-126.9	126.9	50.0	44.5
=	-126.3	126.3	50.0	44.6
=	-125.6	125.6	50.0	44.9
=	-124.9	124.9	50.0	45.1
=	-124.2	124.2	50.0	45.3
=	-123.5	123.5	50.0	45.5
=	-122.7	122.7	50.0	45.7
=	-122.0	122.0	50.0	45.9
=	-121.3	121.3	50.0	46.1
=	-120.6	120.6	50.0	46.3
=	-119.8	119.8	50.0	46.5
=	-119.1	119.1	50.0	46.7
=	-118.4	118.4	50.0	46.9
=	-117.7	117.7	50.0	47.1
=	-117.1	117.1	50.0	47.3
=	-116.4	116.4	50.0	47.5
=	-115.6	115.6	50.0	47.7
=	-115.0	115.0	50.0	47.9
=	-114.3	114.3	50.0	48.1
=	-113.6	113.6	50.0	48.3
=	-113.0	113.0	50.0	48.5
=	-112.3	112.3	50.0	48.7
=	-111.7	111.7	50.0	48.9
=	-111.0	111.0	50.0	49.1
=	-110.3	110.3	50.0	49.3
=	-109.6	109.6	50.0	49.5
=	-108.9	108.9	50.0	49.7
=	-108.3	108.3	50.0	49.9
=	-107.5	107.5	50.0	50.2
=	-106.8	106.8	50.0	50.4
=	-106.1	106.1	50.0	50.6
=	-105.4	105.4	50.0	50.8
=	-104.7	104.7	50.0	51.1
=	-104.1	104.1	50.0	51.3
=	-103.5	103.5	50.0	51.4
=	-102.7	102.7	50.0	51.7
=	-102.0	102.0	50.0	51.9
=	-101.3	101.3	50.0	52.2
=	-100.7	100.7	50.0	52.3
=	-100.0	100.0	50.0	52.6
=	-99.3	99.3	50.0	52.8
=	-98.5	98.5	50.0	53.1
=	-97.8	97.8	50.0	53.4
=	-97.1	97.1	50.0	53.6
=	-96.4	96.4	50.0	53.9
=	-95.6	95.6	50.0	54.1
=	-95.0	95.0	50.0	54.3
=	-94.4	94.4	50.0	54.6
=	-93.7	93.7	50.0	54.8
=	-93.0	93.0	50.0	55.0
=	-92.3	92.3	50.0	55.3
=	-91.7	91.7	50.0	55.5
=	-91.0	91.0	50.0	55.8
=	-90.2	90.2	50.0	56.0
=	-89.7	89.7	50.0	56.2
=	-88.9	88.9	50.0	56.5
=	-88.2	88.2	50.0	56.8
=	-87.5	87.5	50.0	57.1
=	-86.8	86.8	50.0	57.3
=	-86.2	86.2	50.0	57.5
=	-85.6	85.6	50.0	57.8
=	-85.0	85.0	50.0	58.0
=	-84.3	84.3	50.0	58.3
=	-83.6	83.6	50.0	58.5
=	-83.0	83.0	50.0	58.8
=	-82.3	82.3	50.0	59.1
=	-81.7	81.7	50.0	59.3
=	-81.1	81.1	50.0	59.6
=	-80.4	80.4	50.0	59.8
=	-79.6	79.6	50.0	60.1
=	-78.9	78.9	50.0	60.4
=	-78.3	78.3	50.0	60.7
=	-77.6	77.6	50.0	61.0
=	-76.9	76.9	50.0	61.2
=	-76.1	76.1	50.0	61.6
=	-75.5	75.5	50.0	61.9
=	-74.8	74.8	50.0	62.1
=	-74.1	74.1	50.0	62.4
=	-73.4	73.4	50.0	62.8
=	-72.7	72.7	50.0	63.0
=	-72.1	72.1	50.0	63.3
=	-71.5	71.5	50.0	63.6
=	-70.9	70.9	50.0	63.9
=	-70.3	70.3	50.0	64.1
=	-69.7	69.7	50.0	64.4
=	-69.1	69.1	50.0	64.7
=	-68.3	68.3	50.0	65.0
=	-67.7	67.7	50.0	65.3
=	-67.0	67.0	50.0	65.6
=	-66.3	66.3	50.0	65.9
=	-65.6	65.6	50.0	66.3
=	-64.8	64.8	50.0	66.6
=	-64.1	64.1	50.0	67.0
=	-63.4	63.4	50.0	67.3
=	-62.7	62.7	50.0	67.7
=	-62.1	62.1	50.0	68.0
=	-61.4	61.4	50.0	68.3
=	-60.7	60.7	50.0	68.6
=	-60.1	60.1	50.0	68.9
=	-59.6	59.6	50.0	69.2
=	-58.9	58.9	50.0	69.5
=	-58.3	58.3	50.0	69.8
=	-57.7	57.7	50.0	70.2
=	-57.0	57.0	50.0	70.5
=	-56.3	56.3	50.0	70.8
=	-55.6	55.6	50.0	71.2
=	-54.8	54.8	50.0	71.6
=	-54.2	54.2	50.0	71.9
=	-53.5	53.5	50.0	72.3
=	-52.8	52.8	50.0	72.7
=	-52.1	52.1	50.0	73.0
=	-51.4	51.4	50.0	73.4
=	-50.6	50.6	50.0	73.8
=	-49.9	49.9	50.0	74.2
=	-49.2	49.2	50.0	74.6
=	-48.5	48.5	50.0	75.0
=	-47.8	47.8	50.0	75.4
=	-47.0	47.0	50.0	75.8
=	-46.3	46.3	50.0	76.2
=	-45.6	45.6	50.0	76.7
=	-44.9	44.9	50.0	77.0
=	-44.2	44.2	50.0	77.4
=	-43.5	43.5	50.0	77.8
=	-42.8	42.8	50.0	78.2
=	-42.1	42.1	50.0	78.6
=	-41.5	41.5	50.0	79.0
=	-40.8	40.8	50.0	79.4
=	-40.1	40.1	50.0	79.9
=	-39.3	39.3	50.0	80.3
=	-38.6	38.6	50.0	80.7
=	-38.0	38.0	50.0	81.1
=	-37.3	37.3	50.0	81.5
=	-36.6	36.6	50.0	82.0
=	-35.8	35.8	50.0	82.4
=	-35.1	35.1	50.0	82.9
=	-34.4	34.4	50.0	83.4
=	-33.7	33.7	50.0	83.8
=	-32.9	32.9	50.0	84.2
=	-32.2	32.2	50.0	84.6
=	-31.6	31.6	50.0	85.0
