:MSR 	1	 # No. of measurement in file
:SYS BDS 0   # Beam Data Scanner System
#
# RFA300 ASCII Measurement Dump ( BDS format )
#
# Measurement number 	1
#
%VNR 1.0
%MOD 	RAT
%TYP 	SCN
%SCN 	PRO
%FLD 	ION
%DAT 	10-12-2011
%TIM 	12:00:00
%FSZ 	400	400
%BMT 	ELE	   9.0
%SSD 	
%BUP 	0
%BRD 	
%FSH 	1
%ASC 	0
%WEG 	0
%GPO 	0
%CPO 	0
%MEA 	2
%PRD 	0,0
%PTS 	761
%STS 	    -235.8	  0.0	   0.0 # Start Scan values in mm ( X , Y , Z )
%EDS 	    235.8	   0.0	   0.0 # End Scan values in mm ( X , Y , Z )
#
#	  X      Y      Z     Dose
#
=	-235.8	0.0	0.0	9.3
=	-235.1	0.0	0.0	9.7
=	-234.5	0.0	0.0	10.0
=	-233.8	0.0	0.0	10.4
=	-232.9	0.0	0.0	10.9
=	-232.1	0.0	0.0	11.4
=	-231.3	0.0	0.0	12.0
=	-230.2	0.0	0.0	12.8
=	-229.3	0.0	0.0	13.4
=	-228.5	0.0	0.0	14.0
=	-228.0	0.0	0.0	14.5
=	-227.5	0.0	0.0	14.8
=	-227.0	0.0	0.0	15.2
=	-226.4	0.0	0.0	15.8
=	-225.9	0.0	0.0	16.3
=	-225.4	0.0	0.0	16.7
=	-224.8	0.0	0.0	17.3
=	-224.2	0.0	0.0	17.9
=	-223.6	0.0	0.0	18.5
=	-223.0	0.0	0.0	19.2
=	-222.4	0.0	0.0	19.8
=	-221.7	0.0	0.0	20.6
=	-221.0	0.0	0.0	21.4
=	-220.4	0.0	0.0	22.1
=	-219.8	0.0	0.0	22.9
=	-219.0	0.0	0.0	23.9
=	-218.3	0.0	0.0	24.8
=	-217.2	0.0	0.0	26.4
=	-216.0	0.0	0.0	28.0
=	-215.1	0.0	0.0	29.4
=	-214.5	0.0	0.0	30.3
=	-213.8	0.0	0.0	31.3
=	-213.3	0.0	0.0	32.2
=	-212.7	0.0	0.0	33.1
=	-212.1	0.0	0.0	34.1
=	-211.4	0.0	0.0	35.1
=	-210.8	0.0	0.0	36.0
=	-210.3	0.0	0.0	37.0
=	-209.7	0.0	0.0	38.0
=	-209.1	0.0	0.0	38.9
=	-208.5	0.0	0.0	39.8
=	-207.9	0.0	0.0	41.0
=	-207.0	0.0	0.0	42.4
=	-206.0	0.0	0.0	44.1
=	-205.4	0.0	0.0	45.2
=	-204.8	0.0	0.0	46.2
=	-204.2	0.0	0.0	47.1
=	-203.7	0.0	0.0	48.0
=	-203.1	0.0	0.0	49.1
=	-202.5	0.0	0.0	50.1
=	-201.9	0.0	0.0	51.1
=	-201.2	0.0	0.0	52.1
=	-200.6	0.0	0.0	53.1
=	-200.0	0.0	0.0	54.1
=	-199.4	0.0	0.0	55.1
=	-198.8	0.0	0.0	56.0
=	-198.2	0.0	0.0	57.0
=	-197.6	0.0	0.0	57.8
=	-197.0	0.0	0.0	58.7
=	-196.4	0.0	0.0	59.7
=	-195.7	0.0	0.0	60.7
=	-194.6	0.0	0.0	62.3
=	-193.4	0.0	0.0	63.9
=	-192.6	0.0	0.0	65.0
=	-191.9	0.0	0.0	65.9
=	-191.3	0.0	0.0	66.7
=	-190.7	0.0	0.0	67.4
=	-190.1	0.0	0.0	68.1
=	-189.5	0.0	0.0	68.8
=	-188.9	0.0	0.0	69.6
=	-188.4	0.0	0.0	70.2
=	-187.7	0.0	0.0	71.0
=	-186.7	0.0	0.0	72.2
=	-186.1	0.0	0.0	72.8
=	-185.5	0.0	0.0	73.5
=	-184.9	0.0	0.0	74.1
=	-184.3	0.0	0.0	74.7
=	-183.6	0.0	0.0	75.4
=	-183.0	0.0	0.0	75.9
=	-182.4	0.0	0.0	76.5
=	-181.8	0.0	0.0	77.1
=	-181.2	0.0	0.0	77.6
=	-180.6	0.0	0.0	78.1
=	-180.0	0.0	0.0	78.7
=	-179.4	0.0	0.0	79.2
=	-178.8	0.0	0.0	79.6
=	-178.2	0.0	0.0	80.1
=	-177.6	0.0	0.0	80.6
=	-177.0	0.0	0.0	81.1
=	-176.5	0.0	0.0	81.6
=	-175.8	0.0	0.0	82.0
=	-175.2	0.0	0.0	82.4
=	-174.6	0.0	0.0	82.9
=	-174.0	0.0	0.0	83.3
=	-173.4	0.0	0.0	83.8
=	-172.8	0.0	0.0	84.2
=	-171.6	0.0	0.0	84.9
=	-170.4	0.0	0.0	85.7
=	-169.2	0.0	0.0	86.5
=	-168.1	0.0	0.0	87.2
=	-167.2	0.0	0.0	87.7
=	-166.2	0.0	0.0	88.2
=	-165.5	0.0	0.0	88.6
=	-164.9	0.0	0.0	88.8
=	-164.4	0.0	0.0	89.1
=	-163.5	0.0	0.0	89.6
=	-162.8	0.0	0.0	89.9
=	-161.9	0.0	0.0	90.4
=	-161.0	0.0	0.0	90.8
=	-160.5	0.0	0.0	91.1
=	-159.9	0.0	0.0	91.4
=	-159.4	0.0	0.0	91.5
=	-158.9	0.0	0.0	91.8
=	-158.3	0.0	0.0	92.2
=	-157.7	0.0	0.0	92.3
=	-157.1	0.0	0.0	92.6
=	-156.5	0.0	0.0	92.9
=	-155.9	0.0	0.0	93.1
=	-155.4	0.0	0.0	93.2
=	-154.8	0.0	0.0	93.5
=	-154.2	0.0	0.0	93.7
=	-153.6	0.0	0.0	93.9
=	-153.0	0.0	0.0	94.2
=	-152.4	0.0	0.0	94.4
=	-151.8	0.0	0.0	94.6
=	-151.2	0.0	0.0	94.9
=	-150.6	0.0	0.0	95.1
=	-150.0	0.0	0.0	95.3
=	-149.4	0.0	0.0	95.5
=	-148.8	0.0	0.0	95.6
=	-148.2	0.0	0.0	95.8
=	-147.8	0.0	0.0	95.9
=	-147.3	0.0	0.0	96.1
=	-146.7	0.0	0.0	96.2
=	-146.3	0.0	0.0	96.4
=	-145.9	0.0	0.0	96.5
=	-145.5	0.0	0.0	96.7
=	-145.1	0.0	0.0	96.8
=	-144.6	0.0	0.0	96.9
=	-144.1	0.0	0.0	97.1
=	-143.5	0.0	0.0	97.2
=	-143.1	0.0	0.0	97.4
=	-142.7	0.0	0.0	97.5
=	-142.1	0.0	0.0	97.6
=	-141.4	0.0	0.0	97.8
=	-140.8	0.0	0.0	98.0
=	-140.2	0.0	0.0	98.1
=	-139.6	0.0	0.0	98.2
=	-138.9	0.0	0.0	98.4
=	-137.8	0.0	0.0	98.7
=	-136.7	0.0	0.0	98.9
=	-136.1	0.0	0.0	99.0
=	-135.6	0.0	0.0	99.2
=	-135.0	0.0	0.0	99.4
=	-134.3	0.0	0.0	99.5
=	-133.7	0.0	0.0	99.6
=	-132.5	0.0	0.0	99.9
=	-131.3	0.0	0.0	100.1
=	-130.6	0.0	0.0	100.2
=	-130.0	0.0	0.0	100.3
=	-129.2	0.0	0.0	100.5
=	-128.6	0.0	0.0	100.6
=	-128.0	0.0	0.0	100.8
=	-126.8	0.0	0.0	100.9
=	-125.6	0.0	0.0	101.1
=	-124.5	0.0	0.0	101.2
=	-123.8	0.0	0.0	101.4
=	-122.9	0.0	0.0	101.5
=	-122.3	0.0	0.0	101.6
=	-121.8	0.0	0.0	101.6
=	-121.2	0.0	0.0	101.7
=	-120.7	0.0	0.0	101.8
=	-120.1	0.0	0.0	101.8
=	-119.5	0.0	0.0	101.9
=	-119.0	0.0	0.0	101.9
=	-118.5	0.0	0.0	102.0
=	-118.1	0.0	0.0	102.1
=	-117.7	0.0	0.0	102.1
=	-117.1	0.0	0.0	102.1
=	-116.5	0.0	0.0	102.2
=	-115.8	0.0	0.0	102.3
=	-115.3	0.0	0.0	102.3
=	-114.7	0.0	0.0	102.4
=	-114.1	0.0	0.0	102.4
=	-113.5	0.0	0.0	102.5
=	-112.8	0.0	0.0	102.6
=	-112.0	0.0	0.0	102.6
=	-111.2	0.0	0.0	102.7
=	-110.5	0.0	0.0	102.8
=	-109.9	0.0	0.0	102.8
=	-109.1	0.0	0.0	102.8
=	-108.2	0.0	0.0	102.9
=	-107.7	0.0	0.0	102.9
=	-107.1	0.0	0.0	103.0
=	-106.7	0.0	0.0	103.0
=	-106.2	0.0	0.0	103.0
=	-105.7	0.0	0.0	103.0
=	-105.2	0.0	0.0	103.1
=	-104.8	0.0	0.0	103.1
=	-104.3	0.0	0.0	103.1
=	-103.8	0.0	0.0	103.1
=	-103.4	0.0	0.0	103.1
=	-102.9	0.0	0.0	103.1
=	-102.3	0.0	0.0	103.2
=	-101.6	0.0	0.0	103.2
=	-101.1	0.0	0.0	103.2
=	-100.4	0.0	0.0	103.2
=	-99.8	0.0	0.0	103.2
=	-99.2	0.0	0.0	103.2
=	-98.6	0.0	0.0	103.3
=	-98.0	0.0	0.0	103.3
=	-97.4	0.0	0.0	103.3
=	-96.8	0.0	0.0	103.3
=	-96.3	0.0	0.0	103.3
=	-95.8	0.0	0.0	103.3
=	-95.2	0.0	0.0	103.3
=	-94.6	0.0	0.0	103.3
=	-94.0	0.0	0.0	103.3
=	-93.4	0.0	0.0	103.3
=	-92.8	0.0	0.0	103.3
=	-92.2	0.0	0.0	103.3
=	-91.6	0.0	0.0	103.3
=	-91.0	0.0	0.0	103.3
=	-90.5	0.0	0.0	103.3
=	-89.9	0.0	0.0	103.3
=	-89.5	0.0	0.0	103.3
=	-89.1	0.0	0.0	103.3
=	-88.6	0.0	0.0	103.3
=	-88.1	0.0	0.0	103.3
=	-87.5	0.0	0.0	103.3
=	-86.9	0.0	0.0	103.3
=	-86.3	0.0	0.0	103.3
=	-85.7	0.0	0.0	103.3
=	-85.1	0.0	0.0	103.2
=	-84.5	0.0	0.0	103.2
=	-83.9	0.0	0.0	103.2
=	-83.3	0.0	0.0	103.2
=	-82.8	0.0	0.0	103.2
=	-82.2	0.0	0.0	103.2
=	-81.7	0.0	0.0	103.2
=	-81.1	0.0	0.0	103.2
=	-80.5	0.0	0.0	103.1
=	-79.9	0.0	0.0	103.1
=	-79.3	0.0	0.0	103.1
=	-78.7	0.0	0.0	103.1
=	-78.0	0.0	0.0	103.1
=	-77.5	0.0	0.0	103.1
=	-76.7	0.0	0.0	103.0
=	-75.8	0.0	0.0	103.0
=	-74.9	0.0	0.0	103.0
=	-73.7	0.0	0.0	102.9
=	-72.8	0.0	0.0	102.9
=	-72.2	0.0	0.0	102.9
=	-71.6	0.0	0.0	102.8
=	-70.9	0.0	0.0	102.8
=	-70.1	0.0	0.0	102.7
=	-69.4	0.0	0.0	102.7
=	-68.5	0.0	0.0	102.6
=	-67.8	0.0	0.0	102.6
=	-67.2	0.0	0.0	102.6
=	-66.7	0.0	0.0	102.6
=	-66.3	0.0	0.0	102.6
=	-65.8	0.0	0.0	102.6
=	-65.4	0.0	0.0	102.5
=	-65.0	0.0	0.0	102.5
=	-64.5	0.0	0.0	102.5
=	-63.9	0.0	0.0	102.4
=	-63.3	0.0	0.0	102.4
=	-62.7	0.0	0.0	102.3
=	-62.1	0.0	0.0	102.3
=	-61.5	0.0	0.0	102.3
=	-60.9	0.0	0.0	102.3
=	-60.2	0.0	0.0	102.2
=	-59.7	0.0	0.0	102.2
=	-59.1	0.0	0.0	102.1
=	-58.7	0.0	0.0	102.1
=	-58.3	0.0	0.0	102.1
=	-57.8	0.0	0.0	102.1
=	-57.4	0.0	0.0	102.0
=	-57.0	0.0	0.0	102.0
=	-56.4	0.0	0.0	102.0
=	-55.8	0.0	0.0	101.9
=	-55.2	0.0	0.0	101.9
=	-54.6	0.0	0.0	101.9
=	-54.0	0.0	0.0	101.8
=	-53.4	0.0	0.0	101.8
=	-52.8	0.0	0.0	101.8
=	-52.1	0.0	0.0	101.8
=	-51.6	0.0	0.0	101.7
=	-50.9	0.0	0.0	101.7
=	-50.4	0.0	0.0	101.7
=	-49.7	0.0	0.0	101.6
=	-48.9	0.0	0.0	101.5
=	-48.3	0.0	0.0	101.5
=	-47.7	0.0	0.0	101.5
=	-47.3	0.0	0.0	101.4
=	-46.8	0.0	0.0	101.4
=	-46.2	0.0	0.0	101.4
=	-45.8	0.0	0.0	101.4
=	-45.3	0.0	0.0	101.4
=	-44.9	0.0	0.0	101.4
=	-44.5	0.0	0.0	101.3
=	-44.0	0.0	0.0	101.3
=	-43.5	0.0	0.0	101.3
=	-43.1	0.0	0.0	101.3
=	-42.6	0.0	0.0	101.2
=	-42.2	0.0	0.0	101.2
=	-41.8	0.0	0.0	101.2
=	-41.4	0.0	0.0	101.2
=	-41.0	0.0	0.0	101.1
=	-40.6	0.0	0.0	101.1
=	-40.2	0.0	0.0	101.1
=	-39.8	0.0	0.0	101.0
=	-39.4	0.0	0.0	101.0
=	-38.9	0.0	0.0	101.0
=	-38.3	0.0	0.0	101.0
=	-37.7	0.0	0.0	101.0
=	-37.1	0.0	0.0	100.9
=	-36.5	0.0	0.0	100.9
=	-35.9	0.0	0.0	100.9
=	-35.2	0.0	0.0	100.8
=	-34.7	0.0	0.0	100.8
=	-34.0	0.0	0.0	100.8
=	-33.5	0.0	0.0	100.8
=	-33.1	0.0	0.0	100.7
=	-32.6	0.0	0.0	100.7
=	-32.2	0.0	0.0	100.7
=	-31.6	0.0	0.0	100.7
=	-31.0	0.0	0.0	100.7
=	-30.4	0.0	0.0	100.6
=	-29.9	0.0	0.0	100.6
=	-29.4	0.0	0.0	100.6
=	-28.8	0.0	0.0	100.5
=	-28.2	0.0	0.0	100.5
=	-27.6	0.0	0.0	100.5
=	-27.0	0.0	0.0	100.5
=	-26.4	0.0	0.0	100.5
=	-26.0	0.0	0.0	100.5
=	-25.4	0.0	0.0	100.4
=	-24.8	0.0	0.0	100.4
=	-24.1	0.0	0.0	100.4
=	-23.6	0.0	0.0	100.3
=	-23.2	0.0	0.0	100.3
=	-22.5	0.0	0.0	100.3
=	-21.9	0.0	0.0	100.3
=	-21.3	0.0	0.0	100.3
=	-20.9	0.0	0.0	100.3
=	-20.3	0.0	0.0	100.3
=	-19.7	0.0	0.0	100.3
=	-19.1	0.0	0.0	100.3
=	-18.5	0.0	0.0	100.2
=	-17.9	0.0	0.0	100.2
=	-17.3	0.0	0.0	100.2
=	-16.7	0.0	0.0	100.2
=	-16.1	0.0	0.0	100.2
=	-15.5	0.0	0.0	100.1
=	-14.9	0.0	0.0	100.1
=	-14.3	0.0	0.0	100.1
=	-13.8	0.0	0.0	100.1
=	-13.3	0.0	0.0	100.1
=	-12.9	0.0	0.0	100.1
=	-12.4	0.0	0.0	100.1
=	-11.9	0.0	0.0	100.1
=	-11.4	0.0	0.0	100.0
=	-10.9	0.0	0.0	100.0
=	-10.4	0.0	0.0	100.0
=	-10.0	0.0	0.0	100.0
=	-9.4	0.0	0.0	100.0
=	-9.0	0.0	0.0	100.0
=	-8.6	0.0	0.0	100.0
=	-8.1	0.0	0.0	100.0
=	-7.6	0.0	0.0	100.0
=	-7.0	0.0	0.0	100.0
=	-6.3	0.0	0.0	100.0
=	-5.8	0.0	0.0	100.0
=	-5.1	0.0	0.0	100.0
=	-4.5	0.0	0.0	100.0
=	-3.9	0.0	0.0	100.0
=	-3.4	0.0	0.0	100.0
=	-2.9	0.0	0.0	100.0
=	-2.3	0.0	0.0	100.0
=	-1.7	0.0	0.0	100.0
=	-1.1	0.0	0.0	100.0
=	-0.3	0.0	0.0	100.0
=	0.0	0.0	0.0	100.0
=	0.5	0.0	0.0	100.0
=	1.0	0.0	0.0	100.0
=	1.7	0.0	0.0	100.0
=	2.2	0.0	0.0	100.0
=	2.9	0.0	0.0	100.0
=	3.4	0.0	0.0	100.0
=	4.1	0.0	0.0	100.1
=	4.7	0.0	0.0	100.1
=	5.3	0.0	0.0	100.1
=	5.7	0.0	0.0	100.1
=	6.2	0.0	0.0	100.1
=	6.8	0.0	0.0	100.1
=	7.2	0.0	0.0	100.1
=	7.6	0.0	0.0	100.1
=	8.2	0.0	0.0	100.1
=	8.8	0.0	0.0	100.1
=	9.3	0.0	0.0	100.1
=	9.9	0.0	0.0	100.1
=	10.6	0.0	0.0	100.1
=	11.2	0.0	0.0	100.1
=	11.8	0.0	0.0	100.1
=	12.5	0.0	0.0	100.2
=	13.2	0.0	0.0	100.2
=	13.9	0.0	0.0	100.2
=	14.4	0.0	0.0	100.2
=	15.1	0.0	0.0	100.2
=	15.7	0.0	0.0	100.3
=	16.3	0.0	0.0	100.3
=	16.9	0.0	0.0	100.3
=	17.5	0.0	0.0	100.3
=	18.1	0.0	0.0	100.3
=	18.7	0.0	0.0	100.4
=	19.3	0.0	0.0	100.4
=	19.9	0.0	0.0	100.4
=	20.5	0.0	0.0	100.4
=	21.1	0.0	0.0	100.4
=	21.7	0.0	0.0	100.5
=	22.3	0.0	0.0	100.5
=	22.9	0.0	0.0	100.5
=	23.6	0.0	0.0	100.6
=	24.2	0.0	0.0	100.6
=	24.8	0.0	0.0	100.6
=	25.4	0.0	0.0	100.6
=	26.0	0.0	0.0	100.6
=	26.6	0.0	0.0	100.7
=	27.2	0.0	0.0	100.7
=	27.8	0.0	0.0	100.7
=	28.4	0.0	0.0	100.8
=	29.0	0.0	0.0	100.8
=	29.6	0.0	0.0	100.8
=	30.1	0.0	0.0	100.8
=	30.6	0.0	0.0	100.8
=	31.2	0.0	0.0	100.8
=	31.8	0.0	0.0	100.9
=	32.4	0.0	0.0	100.9
=	33.0	0.0	0.0	100.9
=	33.5	0.0	0.0	101.0
=	34.0	0.0	0.0	101.0
=	34.6	0.0	0.0	101.0
=	35.1	0.0	0.0	101.0
=	35.6	0.0	0.0	101.0
=	36.0	0.0	0.0	101.1
=	36.5	0.0	0.0	101.1
=	37.1	0.0	0.0	101.1
=	37.7	0.0	0.0	101.1
=	38.3	0.0	0.0	101.2
=	38.9	0.0	0.0	101.2
=	39.4	0.0	0.0	101.3
=	39.8	0.0	0.0	101.3
=	40.2	0.0	0.0	101.3
=	40.6	0.0	0.0	101.4
=	41.0	0.0	0.0	101.4
=	41.4	0.0	0.0	101.4
=	41.8	0.0	0.0	101.4
=	42.2	0.0	0.0	101.4
=	42.7	0.0	0.0	101.5
=	43.1	0.0	0.0	101.5
=	43.5	0.0	0.0	101.5
=	44.0	0.0	0.0	101.6
=	44.5	0.0	0.0	101.6
=	44.9	0.0	0.0	101.6
=	45.3	0.0	0.0	101.6
=	45.8	0.0	0.0	101.6
=	46.2	0.0	0.0	101.7
=	46.8	0.0	0.0	101.7
=	47.3	0.0	0.0	101.7
=	47.7	0.0	0.0	101.8
=	48.1	0.0	0.0	101.8
=	48.7	0.0	0.0	101.8
=	49.1	0.0	0.0	101.9
=	49.6	0.0	0.0	101.9
=	50.0	0.0	0.0	101.9
=	50.4	0.0	0.0	101.9
=	50.8	0.0	0.0	101.9
=	51.2	0.0	0.0	101.9
=	51.6	0.0	0.0	102.0
=	52.1	0.0	0.0	102.0
=	52.8	0.0	0.0	102.1
=	53.2	0.0	0.0	102.1
=	53.7	0.0	0.0	102.2
=	54.4	0.0	0.0	102.2
=	55.0	0.0	0.0	102.2
=	55.6	0.0	0.0	102.2
=	56.1	0.0	0.0	102.3
=	56.6	0.0	0.0	102.3
=	57.2	0.0	0.0	102.3
=	57.8	0.0	0.0	102.4
=	58.4	0.0	0.0	102.4
=	59.0	0.0	0.0	102.4
=	59.6	0.0	0.0	102.5
=	60.2	0.0	0.0	102.5
=	60.8	0.0	0.0	102.5
=	61.4	0.0	0.0	102.6
=	61.9	0.0	0.0	102.6
=	62.3	0.0	0.0	102.6
=	62.8	0.0	0.0	102.6
=	63.4	0.0	0.0	102.7
=	64.1	0.0	0.0	102.7
=	64.7	0.0	0.0	102.7
=	65.3	0.0	0.0	102.8
=	65.9	0.0	0.0	102.8
=	66.4	0.0	0.0	102.9
=	66.9	0.0	0.0	102.9
=	67.5	0.0	0.0	102.9
=	68.1	0.0	0.0	102.9
=	69.0	0.0	0.0	103.0
=	69.5	0.0	0.0	103.0
=	69.9	0.0	0.0	103.0
=	70.5	0.0	0.0	103.0
=	71.1	0.0	0.0	103.1
=	71.7	0.0	0.0	103.1
=	72.3	0.0	0.0	103.1
=	72.9	0.0	0.0	103.1
=	73.5	0.0	0.0	103.2
=	74.1	0.0	0.0	103.2
=	74.7	0.0	0.0	103.2
=	75.3	0.0	0.0	103.2
=	75.7	0.0	0.0	103.3
=	76.3	0.0	0.0	103.3
=	77.0	0.0	0.0	103.4
=	77.7	0.0	0.0	103.4
=	78.2	0.0	0.0	103.4
=	78.7	0.0	0.0	103.4
=	79.2	0.0	0.0	103.4
=	79.7	0.0	0.0	103.4
=	80.4	0.0	0.0	103.4
=	81.0	0.0	0.0	103.4
=	81.6	0.0	0.0	103.5
=	82.2	0.0	0.0	103.5
=	82.8	0.0	0.0	103.5
=	83.8	0.0	0.0	103.5
=	84.4	0.0	0.0	103.5
=	85.1	0.0	0.0	103.5
=	85.6	0.0	0.0	103.5
=	86.2	0.0	0.0	103.5
=	86.8	0.0	0.0	103.6
=	87.3	0.0	0.0	103.6
=	87.8	0.0	0.0	103.6
=	88.3	0.0	0.0	103.6
=	88.7	0.0	0.0	103.6
=	89.3	0.0	0.0	103.6
=	89.9	0.0	0.0	103.6
=	90.3	0.0	0.0	103.6
=	90.8	0.0	0.0	103.6
=	91.3	0.0	0.0	103.6
=	91.8	0.0	0.0	103.6
=	92.4	0.0	0.0	103.5
=	93.0	0.0	0.0	103.5
=	93.6	0.0	0.0	103.5
=	94.2	0.0	0.0	103.5
=	94.8	0.0	0.0	103.5
=	95.4	0.0	0.0	103.5
=	96.0	0.0	0.0	103.5
=	96.6	0.0	0.0	103.5
=	97.2	0.0	0.0	103.5
=	97.8	0.0	0.0	103.5
=	98.5	0.0	0.0	103.5
=	99.0	0.0	0.0	103.5
=	99.6	0.0	0.0	103.4
=	100.2	0.0	0.0	103.4
=	100.8	0.0	0.0	103.4
=	101.5	0.0	0.0	103.4
=	102.1	0.0	0.0	103.4
=	102.7	0.0	0.0	103.3
=	103.3	0.0	0.0	103.3
=	103.9	0.0	0.0	103.3
=	104.5	0.0	0.0	103.2
=	105.1	0.0	0.0	103.2
=	105.7	0.0	0.0	103.2
=	106.3	0.0	0.0	103.1
=	106.8	0.0	0.0	103.1
=	107.3	0.0	0.0	103.1
=	108.0	0.0	0.0	103.0
=	108.6	0.0	0.0	103.0
=	109.2	0.0	0.0	102.9
=	109.8	0.0	0.0	102.9
=	110.3	0.0	0.0	102.8
=	110.7	0.0	0.0	102.8
=	111.2	0.0	0.0	102.8
=	111.8	0.0	0.0	102.7
=	112.4	0.0	0.0	102.7
=	112.8	0.0	0.0	102.6
=	113.3	0.0	0.0	102.6
=	113.8	0.0	0.0	102.5
=	114.3	0.0	0.0	102.5
=	114.7	0.0	0.0	102.4
=	115.1	0.0	0.0	102.4
=	115.5	0.0	0.0	102.4
=	115.9	0.0	0.0	102.3
=	116.5	0.0	0.0	102.3
=	117.0	0.0	0.0	102.2
=	117.6	0.0	0.0	102.1
=	118.1	0.0	0.0	102.1
=	118.6	0.0	0.0	102.1
=	119.1	0.0	0.0	102.0
=	119.6	0.0	0.0	101.9
=	120.0	0.0	0.0	101.8
=	120.5	0.0	0.0	101.8
=	121.0	0.0	0.0	101.7
=	121.6	0.0	0.0	101.6
=	122.2	0.0	0.0	101.5
=	122.9	0.0	0.0	101.5
=	123.5	0.0	0.0	101.4
=	124.0	0.0	0.0	101.3
=	124.6	0.0	0.0	101.2
=	125.2	0.0	0.0	101.2
=	125.8	0.0	0.0	101.1
=	126.4	0.0	0.0	101.0
=	127.0	0.0	0.0	100.9
=	127.6	0.0	0.0	100.8
=	128.5	0.0	0.0	100.6
=	129.7	0.0	0.0	100.3
=	130.4	0.0	0.0	100.2
=	131.1	0.0	0.0	100.1
=	131.7	0.0	0.0	100.0
=	132.3	0.0	0.0	99.8
=	132.9	0.0	0.0	99.7
=	133.5	0.0	0.0	99.6
=	134.1	0.0	0.0	99.5
=	134.7	0.0	0.0	99.3
=	135.4	0.0	0.0	99.1
=	135.9	0.0	0.0	99.0
=	136.6	0.0	0.0	98.8
=	137.3	0.0	0.0	98.6
=	138.5	0.0	0.0	98.4
=	139.4	0.0	0.0	98.2
=	140.0	0.0	0.0	98.1
=	140.7	0.0	0.0	97.9
=	141.3	0.0	0.0	97.7
=	141.9	0.0	0.0	97.5
=	142.5	0.0	0.0	97.4
=	143.1	0.0	0.0	97.2
=	143.7	0.0	0.0	97.1
=	144.3	0.0	0.0	96.9
=	144.8	0.0	0.0	96.7
=	145.2	0.0	0.0	96.6
=	145.8	0.0	0.0	96.4
=	146.4	0.0	0.0	96.1
=	147.0	0.0	0.0	96.0
=	147.7	0.0	0.0	95.8
=	148.3	0.0	0.0	95.6
=	148.8	0.0	0.0	95.4
=	149.2	0.0	0.0	95.3
=	149.7	0.0	0.0	95.1
=	150.2	0.0	0.0	94.9
=	150.6	0.0	0.0	94.8
=	151.0	0.0	0.0	94.6
=	151.6	0.0	0.0	94.4
=	152.2	0.0	0.0	94.2
=	152.8	0.0	0.0	93.9
=	153.4	0.0	0.0	93.7
=	154.0	0.0	0.0	93.5
=	154.5	0.0	0.0	93.4
=	155.0	0.0	0.0	93.2
=	155.6	0.0	0.0	92.9
=	156.1	0.0	0.0	92.7
=	156.7	0.0	0.0	92.5
=	157.2	0.0	0.0	92.3
=	157.7	0.0	0.0	92.1
=	158.3	0.0	0.0	91.7
=	158.9	0.0	0.0	91.4
=	159.4	0.0	0.0	91.2
=	159.8	0.0	0.0	91.1
=	160.4	0.0	0.0	90.8
=	160.8	0.0	0.0	90.6
=	161.4	0.0	0.0	90.3
=	162.1	0.0	0.0	90.0
=	162.6	0.0	0.0	89.7
=	163.0	0.0	0.0	89.5
=	163.5	0.0	0.0	89.2
=	164.1	0.0	0.0	89.0
=	164.9	0.0	0.0	88.5
=	165.5	0.0	0.0	88.3
=	166.1	0.0	0.0	88.0
=	166.5	0.0	0.0	87.7
=	167.1	0.0	0.0	87.3
=	167.7	0.0	0.0	87.0
=	168.2	0.0	0.0	86.7
=	168.8	0.0	0.0	86.3
=	169.5	0.0	0.0	85.9
=	170.2	0.0	0.0	85.5
=	170.7	0.0	0.0	85.2
=	171.6	0.0	0.0	84.7
=	172.8	0.0	0.0	83.8
=	174.0	0.0	0.0	83.0
=	175.2	0.0	0.0	82.2
=	176.4	0.0	0.0	81.3
=	177.6	0.0	0.0	80.3
=	178.4	0.0	0.0	79.7
=	179.4	0.0	0.0	79.0
=	180.4	0.0	0.0	78.0
=	181.7	0.0	0.0	76.9
=	182.8	0.0	0.0	75.9
=	183.4	0.0	0.0	75.3
=	184.0	0.0	0.0	74.6
=	184.6	0.0	0.0	74.1
=	185.3	0.0	0.0	73.3
=	185.9	0.0	0.0	72.7
=	186.5	0.0	0.0	72.1
=	187.0	0.0	0.0	71.6
=	187.6	0.0	0.0	70.9
=	188.2	0.0	0.0	70.2
=	189.3	0.0	0.0	68.9
=	190.5	0.0	0.0	67.5
=	191.6	0.0	0.0	66.2
=	192.5	0.0	0.0	64.9
=	193.7	0.0	0.0	63.3
=	195.0	0.0	0.0	61.6
=	196.0	0.0	0.0	60.1
=	196.9	0.0	0.0	58.7
=	198.0	0.0	0.0	57.1
=	198.8	0.0	0.0	55.8
=	199.7	0.0	0.0	54.4
=	200.4	0.0	0.0	53.3
=	201.0	0.0	0.0	52.5
=	201.6	0.0	0.0	51.4
=	202.6	0.0	0.0	49.9
=	203.8	0.0	0.0	47.8
=	205.0	0.0	0.0	45.8
=	206.2	0.0	0.0	43.8
=	207.4	0.0	0.0	41.8
=	208.6	0.0	0.0	39.7
=	209.9	0.0	0.0	37.7
=	210.7	0.0	0.0	36.3
=	211.9	0.0	0.0	34.5
=	213.1	0.0	0.0	32.5
=	214.1	0.0	0.0	31.0
=	214.7	0.0	0.0	30.1
=	215.3	0.0	0.0	29.2
=	216.2	0.0	0.0	27.8
=	217.1	0.0	0.0	26.5
=	218.3	0.0	0.0	24.9
=	219.0	0.0	0.0	24.0
=	219.9	0.0	0.0	22.8
=	220.7	0.0	0.0	21.8
=	221.4	0.0	0.0	21.0
=	222.1	0.0	0.0	20.2
=	222.7	0.0	0.0	19.4
=	223.6	0.0	0.0	18.5
=	224.6	0.0	0.0	17.5
=	225.2	0.0	0.0	16.9
=	225.7	0.0	0.0	16.4
=	226.4	0.0	0.0	15.8
=	227.4	0.0	0.0	14.9
=	228.2	0.0	0.0	14.2
=	229.2	0.0	0.0	13.5
=	230.1	0.0	0.0	12.8
=	231.2	0.0	0.0	12.1
=	231.8	0.0	0.0	11.7
=	232.2	0.0	0.0	11.4
=	232.8	0.0	0.0	11.0
=	233.5	0.0	0.0	10.6
=	234.2	0.0	0.0	10.2
=	234.6	0.0	0.0	10.0
=	235.2	0.0	0.0	9.7
=	235.8	0.0	0.0	9.4
:EOM # End of Measurement

:EOF # End of File