:MSR 	5	 # No. of measurement in file
:SYS BDS 0   # Beam Data Scanner System
#
# RFA300 ASCII Measurement Dump ( BDS format )
#
# Measurement number 	1
#
%VNR 1.0
%MOD 	RAT
%TYP 	SCN
%SCN 	PRO
%FLD 	ION
%DAT 	10-14-2011
%TIM 	12:00:00
%FSZ 	400	200
%BMT 	PHO	   10.0
%SSD 	1000
%BUP 	0
%BRD 	1000
%FSH 	1
%ASC 	0
%WEG 	45
%GPO 	0
%CPO 	0
%MEA 	6
%PRD 	24,0
%PTS 	825
%STS 	    -254.5	  0.0	   24.0 # Start Scan values in mm ( X , Y , Z )
%EDS 	    254.5	   0.0	   24.0 # End Scan values in mm ( X , Y , Z )
#
#	  X      Y      Z     Dose
#
=	-254.5	0.0	24.0	7.8
=	-253.8	0.0	24.0	7.9
=	-253.0	0.0	24.0	7.9
=	-252.3	0.0	24.0	8.0
=	-251.6	0.0	24.0	8.0
=	-250.9	0.0	24.0	8.0
=	-250.3	0.0	24.0	8.1
=	-249.8	0.0	24.0	8.1
=	-249.1	0.0	24.0	8.1
=	-248.5	0.0	24.0	8.2
=	-248.0	0.0	24.0	8.2
=	-247.5	0.0	24.0	8.2
=	-246.8	0.0	24.0	8.3
=	-246.1	0.0	24.0	8.3
=	-245.4	0.0	24.0	8.4
=	-244.8	0.0	24.0	8.4
=	-244.4	0.0	24.0	8.4
=	-243.9	0.0	24.0	8.5
=	-243.3	0.0	24.0	8.5
=	-242.8	0.0	24.0	8.5
=	-242.2	0.0	24.0	8.6
=	-241.5	0.0	24.0	8.6
=	-240.9	0.0	24.0	8.7
=	-240.3	0.0	24.0	8.7
=	-239.7	0.0	24.0	8.8
=	-239.2	0.0	24.0	8.8
=	-238.6	0.0	24.0	8.8
=	-238.0	0.0	24.0	8.9
=	-237.2	0.0	24.0	8.9
=	-236.6	0.0	24.0	8.9
=	-236.0	0.0	24.0	9.0
=	-235.4	0.0	24.0	9.0
=	-234.9	0.0	24.0	9.1
=	-234.3	0.0	24.0	9.1
=	-233.7	0.0	24.0	9.2
=	-233.2	0.0	24.0	9.3
=	-232.5	0.0	24.0	9.4
=	-231.7	0.0	24.0	9.5
=	-231.1	0.0	24.0	9.6
=	-230.4	0.0	24.0	9.6
=	-229.8	0.0	24.0	9.7
=	-229.1	0.0	24.0	9.8
=	-228.6	0.0	24.0	9.9
=	-227.9	0.0	24.0	9.9
=	-227.2	0.0	24.0	10.0
=	-226.6	0.0	24.0	10.1
=	-225.9	0.0	24.0	10.2
=	-225.4	0.0	24.0	10.3
=	-224.9	0.0	24.0	10.4
=	-224.3	0.0	24.0	10.4
=	-223.8	0.0	24.0	10.5
=	-223.2	0.0	24.0	10.6
=	-222.7	0.0	24.0	10.7
=	-222.1	0.0	24.0	10.8
=	-221.4	0.0	24.0	10.9
=	-220.7	0.0	24.0	11.1
=	-220.0	0.0	24.0	11.2
=	-219.4	0.0	24.0	11.3
=	-218.8	0.0	24.0	11.5
=	-218.1	0.0	24.0	11.7
=	-217.6	0.0	24.0	11.9
=	-216.9	0.0	24.0	12.0
=	-216.4	0.0	24.0	12.2
=	-215.7	0.0	24.0	12.6
=	-215.0	0.0	24.0	12.9
=	-214.2	0.0	24.0	13.3
=	-213.6	0.0	24.0	13.8
=	-213.0	0.0	24.0	14.3
=	-212.4	0.0	24.0	14.9
=	-211.7	0.0	24.0	15.8
=	-211.1	0.0	24.0	16.7
=	-210.4	0.0	24.0	18.3
=	-209.8	0.0	24.0	19.7
=	-209.3	0.0	24.0	21.5
=	-208.7	0.0	24.0	23.7
=	-208.1	0.0	24.0	26.3
=	-207.6	0.0	24.0	29.5
=	-207.0	0.0	24.0	33.0
=	-206.4	0.0	24.0	36.7
=	-205.8	0.0	24.0	41.0
=	-205.3	0.0	24.0	45.5
=	-204.6	0.0	24.0	51.3
=	-204.0	0.0	24.0	56.1
=	-203.3	0.0	24.0	61.9
=	-202.7	0.0	24.0	66.9
=	-202.2	0.0	24.0	70.8
=	-201.6	0.0	24.0	74.6
=	-201.0	0.0	24.0	78.1
=	-200.4	0.0	24.0	81.2
=	-199.8	0.0	24.0	83.8
=	-199.0	0.0	24.0	86.2
=	-198.4	0.0	24.0	87.8
=	-197.8	0.0	24.0	89.0
=	-197.2	0.0	24.0	89.9
=	-196.6	0.0	24.0	90.8
=	-196.0	0.0	24.0	91.4
=	-195.4	0.0	24.0	92.0
=	-194.9	0.0	24.0	92.4
=	-194.2	0.0	24.0	92.8
=	-193.6	0.0	24.0	93.2
=	-193.0	0.0	24.0	93.4
=	-192.5	0.0	24.0	93.6
=	-191.9	0.0	24.0	93.8
=	-191.3	0.0	24.0	94.0
=	-190.5	0.0	24.0	94.3
=	-189.8	0.0	24.0	94.4
=	-189.2	0.0	24.0	94.6
=	-188.6	0.0	24.0	94.8
=	-188.0	0.0	24.0	94.9
=	-187.4	0.0	24.0	95.0
=	-186.8	0.0	24.0	95.0
=	-186.2	0.0	24.0	95.2
=	-185.7	0.0	24.0	95.3
=	-185.2	0.0	24.0	95.4
=	-184.6	0.0	24.0	95.4
=	-184.0	0.0	24.0	95.5
=	-183.4	0.0	24.0	95.7
=	-182.7	0.0	24.0	95.8
=	-182.1	0.0	24.0	95.9
=	-181.4	0.0	24.0	95.9
=	-180.7	0.0	24.0	96.0
=	-180.2	0.0	24.0	96.1
=	-179.6	0.0	24.0	96.2
=	-178.9	0.0	24.0	96.3
=	-178.3	0.0	24.0	96.3
=	-177.7	0.0	24.0	96.4
=	-177.1	0.0	24.0	96.4
=	-176.6	0.0	24.0	96.4
=	-176.0	0.0	24.0	96.5
=	-175.5	0.0	24.0	96.6
=	-175.0	0.0	24.0	96.6
=	-174.3	0.0	24.0	96.7
=	-173.7	0.0	24.0	96.7
=	-173.1	0.0	24.0	96.7
=	-172.6	0.0	24.0	96.8
=	-172.0	0.0	24.0	96.8
=	-171.4	0.0	24.0	96.9
=	-170.7	0.0	24.0	96.9
=	-170.1	0.0	24.0	97.0
=	-169.4	0.0	24.0	97.0
=	-168.6	0.0	24.0	97.1
=	-168.0	0.0	24.0	97.1
=	-167.4	0.0	24.0	97.1
=	-166.7	0.0	24.0	97.2
=	-166.0	0.0	24.0	97.2
=	-165.3	0.0	24.0	97.2
=	-164.6	0.0	24.0	97.2
=	-164.1	0.0	24.0	97.3
=	-163.6	0.0	24.0	97.3
=	-162.9	0.0	24.0	97.4
=	-162.2	0.0	24.0	97.4
=	-161.5	0.0	24.0	97.5
=	-160.9	0.0	24.0	97.5
=	-160.1	0.0	24.0	97.6
=	-159.5	0.0	24.0	97.6
=	-158.7	0.0	24.0	97.6
=	-158.0	0.0	24.0	97.6
=	-157.3	0.0	24.0	97.7
=	-156.8	0.0	24.0	97.7
=	-156.1	0.0	24.0	97.7
=	-155.6	0.0	24.0	97.8
=	-155.0	0.0	24.0	97.8
=	-154.4	0.0	24.0	97.8
=	-153.8	0.0	24.0	97.9
=	-153.2	0.0	24.0	97.9
=	-152.6	0.0	24.0	97.9
=	-151.9	0.0	24.0	98.0
=	-151.3	0.0	24.0	98.1
=	-150.6	0.0	24.0	98.1
=	-149.9	0.0	24.0	98.2
=	-149.3	0.0	24.0	98.2
=	-148.8	0.0	24.0	98.2
=	-148.1	0.0	24.0	98.2
=	-147.4	0.0	24.0	98.2
=	-146.8	0.0	24.0	98.3
=	-146.2	0.0	24.0	98.3
=	-145.5	0.0	24.0	98.4
=	-144.8	0.0	24.0	98.4
=	-144.1	0.0	24.0	98.4
=	-143.5	0.0	24.0	98.5
=	-142.8	0.0	24.0	98.5
=	-142.2	0.0	24.0	98.6
=	-141.5	0.0	24.0	98.6
=	-140.8	0.0	24.0	98.7
=	-140.3	0.0	24.0	98.7
=	-139.8	0.0	24.0	98.7
=	-139.2	0.0	24.0	98.7
=	-138.5	0.0	24.0	98.8
=	-138.0	0.0	24.0	98.8
=	-137.4	0.0	24.0	98.9
=	-136.8	0.0	24.0	98.9
=	-136.2	0.0	24.0	98.9
=	-135.5	0.0	24.0	99.0
=	-134.6	0.0	24.0	99.0
=	-133.9	0.0	24.0	99.0
=	-133.3	0.0	24.0	99.1
=	-132.7	0.0	24.0	99.1
=	-132.1	0.0	24.0	99.2
=	-131.4	0.0	24.0	99.2
=	-130.7	0.0	24.0	99.2
=	-130.2	0.0	24.0	99.3
=	-129.7	0.0	24.0	99.3
=	-129.2	0.0	24.0	99.3
=	-128.5	0.0	24.0	99.3
=	-127.8	0.0	24.0	99.4
=	-127.2	0.0	24.0	99.4
=	-126.6	0.0	24.0	99.4
=	-126.0	0.0	24.0	99.4
=	-125.5	0.0	24.0	99.5
=	-124.8	0.0	24.0	99.5
=	-124.1	0.0	24.0	99.6
=	-123.5	0.0	24.0	99.6
=	-122.9	0.0	24.0	99.7
=	-122.3	0.0	24.0	99.7
=	-121.6	0.0	24.0	99.8
=	-121.0	0.0	24.0	99.8
=	-120.4	0.0	24.0	99.8
=	-119.8	0.0	24.0	99.9
=	-119.3	0.0	24.0	99.9
=	-118.8	0.0	24.0	99.9
=	-118.2	0.0	24.0	99.9
=	-117.6	0.0	24.0	99.9
=	-117.0	0.0	24.0	99.9
=	-116.3	0.0	24.0	99.9
=	-115.7	0.0	24.0	100.0
=	-115.0	0.0	24.0	100.0
=	-114.2	0.0	24.0	100.1
=	-113.5	0.0	24.0	100.1
=	-112.9	0.0	24.0	100.2
=	-112.3	0.0	24.0	100.2
=	-111.7	0.0	24.0	100.2
=	-110.9	0.0	24.0	100.3
=	-110.4	0.0	24.0	100.3
=	-109.8	0.0	24.0	100.3
=	-109.1	0.0	24.0	100.4
=	-108.5	0.0	24.0	100.4
=	-107.9	0.0	24.0	100.4
=	-107.2	0.0	24.0	100.4
=	-106.6	0.0	24.0	100.4
=	-106.0	0.0	24.0	100.5
=	-105.4	0.0	24.0	100.5
=	-104.8	0.0	24.0	100.6
=	-104.0	0.0	24.0	100.6
=	-103.4	0.0	24.0	100.6
=	-102.8	0.0	24.0	100.7
=	-102.1	0.0	24.0	100.7
=	-101.6	0.0	24.0	100.7
=	-100.8	0.0	24.0	100.7
=	-100.2	0.0	24.0	100.8
=	-99.6	0.0	24.0	100.8
=	-99.0	0.0	24.0	100.8
=	-98.4	0.0	24.0	100.8
=	-97.7	0.0	24.0	100.9
=	-97.0	0.0	24.0	100.9
=	-96.4	0.0	24.0	100.9
=	-95.7	0.0	24.0	100.9
=	-95.0	0.0	24.0	100.9
=	-94.4	0.0	24.0	100.9
=	-93.8	0.0	24.0	101.0
=	-93.1	0.0	24.0	101.0
=	-92.5	0.0	24.0	100.9
=	-91.9	0.0	24.0	101.0
=	-91.1	0.0	24.0	101.0
=	-90.5	0.0	24.0	101.0
=	-89.9	0.0	24.0	101.0
=	-89.2	0.0	24.0	101.1
=	-88.4	0.0	24.0	101.1
=	-87.7	0.0	24.0	101.2
=	-87.1	0.0	24.0	101.2
=	-86.6	0.0	24.0	101.2
=	-85.9	0.0	24.0	101.2
=	-85.3	0.0	24.0	101.2
=	-84.7	0.0	24.0	101.2
=	-84.0	0.0	24.0	101.2
=	-83.4	0.0	24.0	101.2
=	-82.8	0.0	24.0	101.3
=	-82.3	0.0	24.0	101.3
=	-81.7	0.0	24.0	101.3
=	-81.2	0.0	24.0	101.3
=	-80.5	0.0	24.0	101.3
=	-79.9	0.0	24.0	101.3
=	-79.3	0.0	24.0	101.4
=	-78.6	0.0	24.0	101.4
=	-77.9	0.0	24.0	101.4
=	-77.3	0.0	24.0	101.4
=	-76.6	0.0	24.0	101.4
=	-76.1	0.0	24.0	101.4
=	-75.5	0.0	24.0	101.5
=	-74.9	0.0	24.0	101.5
=	-74.2	0.0	24.0	101.5
=	-73.6	0.0	24.0	101.5
=	-73.0	0.0	24.0	101.5
=	-72.3	0.0	24.0	101.5
=	-71.7	0.0	24.0	101.5
=	-71.1	0.0	24.0	101.5
=	-70.5	0.0	24.0	101.5
=	-70.0	0.0	24.0	101.5
=	-69.5	0.0	24.0	101.5
=	-68.7	0.0	24.0	101.5
=	-68.1	0.0	24.0	101.5
=	-67.5	0.0	24.0	101.5
=	-67.0	0.0	24.0	101.5
=	-66.3	0.0	24.0	101.6
=	-65.6	0.0	24.0	101.6
=	-65.0	0.0	24.0	101.6
=	-64.3	0.0	24.0	101.6
=	-63.8	0.0	24.0	101.6
=	-63.3	0.0	24.0	101.6
=	-62.7	0.0	24.0	101.6
=	-62.1	0.0	24.0	101.6
=	-61.5	0.0	24.0	101.6
=	-61.0	0.0	24.0	101.6
=	-60.5	0.0	24.0	101.6
=	-59.9	0.0	24.0	101.6
=	-59.3	0.0	24.0	101.6
=	-58.7	0.0	24.0	101.6
=	-58.1	0.0	24.0	101.6
=	-57.5	0.0	24.0	101.6
=	-57.1	0.0	24.0	101.6
=	-56.5	0.0	24.0	101.6
=	-55.8	0.0	24.0	101.6
=	-55.1	0.0	24.0	101.5
=	-54.3	0.0	24.0	101.5
=	-53.8	0.0	24.0	101.5
=	-53.2	0.0	24.0	101.5
=	-52.5	0.0	24.0	101.5
=	-52.0	0.0	24.0	101.5
=	-51.4	0.0	24.0	101.5
=	-50.6	0.0	24.0	101.5
=	-50.0	0.0	24.0	101.5
=	-49.4	0.0	24.0	101.5
=	-48.7	0.0	24.0	101.5
=	-48.1	0.0	24.0	101.5
=	-47.5	0.0	24.0	101.5
=	-47.0	0.0	24.0	101.5
=	-46.6	0.0	24.0	101.4
=	-46.0	0.0	24.0	101.4
=	-45.3	0.0	24.0	101.4
=	-44.8	0.0	24.0	101.4
=	-44.3	0.0	24.0	101.4
=	-43.7	0.0	24.0	101.3
=	-43.1	0.0	24.0	101.2
=	-42.5	0.0	24.0	101.2
=	-41.9	0.0	24.0	101.2
=	-41.3	0.0	24.0	101.2
=	-40.7	0.0	24.0	101.2
=	-39.9	0.0	24.0	101.1
=	-39.4	0.0	24.0	101.1
=	-38.8	0.0	24.0	101.1
=	-38.1	0.0	24.0	101.1
=	-37.6	0.0	24.0	101.1
=	-36.9	0.0	24.0	101.0
=	-36.4	0.0	24.0	101.0
=	-35.9	0.0	24.0	101.0
=	-35.3	0.0	24.0	100.9
=	-34.8	0.0	24.0	100.9
=	-34.0	0.0	24.0	100.9
=	-33.4	0.0	24.0	100.9
=	-32.9	0.0	24.0	100.9
=	-32.2	0.0	24.0	100.9
=	-31.6	0.0	24.0	100.9
=	-31.0	0.0	24.0	100.8
=	-30.4	0.0	24.0	100.8
=	-29.7	0.0	24.0	100.8
=	-28.9	0.0	24.0	100.8
=	-28.2	0.0	24.0	100.8
=	-27.5	0.0	24.0	100.8
=	-26.9	0.0	24.0	100.8
=	-26.3	0.0	24.0	100.8
=	-25.7	0.0	24.0	100.8
=	-25.1	0.0	24.0	100.8
=	-24.6	0.0	24.0	100.8
=	-24.1	0.0	24.0	100.7
=	-23.4	0.0	24.0	100.7
=	-23.0	0.0	24.0	100.7
=	-22.4	0.0	24.0	100.6
=	-21.8	0.0	24.0	100.6
=	-21.2	0.0	24.0	100.6
=	-20.5	0.0	24.0	100.6
=	-19.9	0.0	24.0	100.5
=	-19.3	0.0	24.0	100.5
=	-18.8	0.0	24.0	100.5
=	-18.1	0.0	24.0	100.4
=	-17.6	0.0	24.0	100.3
=	-16.9	0.0	24.0	100.3
=	-16.2	0.0	24.0	100.3
=	-15.5	0.0	24.0	100.3
=	-14.9	0.0	24.0	100.3
=	-14.2	0.0	24.0	100.3
=	-13.5	0.0	24.0	100.3
=	-12.8	0.0	24.0	100.2
=	-12.1	0.0	24.0	100.2
=	-11.5	0.0	24.0	100.2
=	-11.0	0.0	24.0	100.1
=	-10.5	0.0	24.0	100.1
=	-9.8	0.0	24.0	100.1
=	-9.1	0.0	24.0	100.0
=	-8.6	0.0	24.0	100.0
=	-7.9	0.0	24.0	100.0
=	-7.1	0.0	24.0	100.0
=	-6.5	0.0	24.0	99.9
=	-5.9	0.0	24.0	100.0
=	-5.4	0.0	24.0	100.0
=	-4.8	0.0	24.0	100.0
=	-4.1	0.0	24.0	100.0
=	-3.5	0.0	24.0	100.0
=	-2.9	0.0	24.0	100.0
=	-2.4	0.0	24.0	100.0
=	-1.8	0.0	24.0	100.0
=	-1.3	0.0	24.0	100.0
=	-0.8	0.0	24.0	100.0
=	-0.3	0.0	24.0	100.0
=	0.0	0.0	24.0	100.0
=	0.3	0.0	24.0	100.0
=	0.8	0.0	24.0	100.0
=	1.3	0.0	24.0	100.0
=	1.8	0.0	24.0	100.0
=	2.4	0.0	24.0	100.0
=	2.9	0.0	24.0	100.0
=	3.5	0.0	24.0	100.0
=	4.1	0.0	24.0	100.0
=	4.8	0.0	24.0	100.0
=	5.4	0.0	24.0	100.0
=	5.9	0.0	24.0	100.0
=	6.5	0.0	24.0	99.9
=	7.1	0.0	24.0	100.0
=	7.9	0.0	24.0	100.0
=	8.6	0.0	24.0	100.0
=	9.1	0.0	24.0	100.0
=	9.8	0.0	24.0	100.1
=	10.5	0.0	24.0	100.1
=	11.0	0.0	24.0	100.1
=	11.5	0.0	24.0	100.2
=	12.1	0.0	24.0	100.2
=	12.8	0.0	24.0	100.2
=	13.5	0.0	24.0	100.3
=	14.2	0.0	24.0	100.3
=	14.9	0.0	24.0	100.3
=	15.5	0.0	24.0	100.3
=	16.2	0.0	24.0	100.3
=	16.9	0.0	24.0	100.3
=	17.6	0.0	24.0	100.3
=	18.1	0.0	24.0	100.4
=	18.8	0.0	24.0	100.5
=	19.3	0.0	24.0	100.5
=	19.9	0.0	24.0	100.5
=	20.5	0.0	24.0	100.6
=	21.2	0.0	24.0	100.6
=	21.8	0.0	24.0	100.6
=	22.4	0.0	24.0	100.6
=	23.0	0.0	24.0	100.7
=	23.4	0.0	24.0	100.7
=	24.1	0.0	24.0	100.7
=	24.6	0.0	24.0	100.8
=	25.1	0.0	24.0	100.8
=	25.7	0.0	24.0	100.8
=	26.3	0.0	24.0	100.8
=	26.9	0.0	24.0	100.8
=	27.5	0.0	24.0	100.8
=	28.2	0.0	24.0	100.8
=	28.9	0.0	24.0	100.8
=	29.7	0.0	24.0	100.8
=	30.4	0.0	24.0	100.8
=	31.0	0.0	24.0	100.8
=	31.6	0.0	24.0	100.9
=	32.2	0.0	24.0	100.9
=	32.9	0.0	24.0	100.9
=	33.4	0.0	24.0	100.9
=	34.0	0.0	24.0	100.9
=	34.8	0.0	24.0	100.9
=	35.3	0.0	24.0	100.9
=	35.9	0.0	24.0	101.0
=	36.4	0.0	24.0	101.0
=	36.9	0.0	24.0	101.0
=	37.6	0.0	24.0	101.1
=	38.1	0.0	24.0	101.1
=	38.8	0.0	24.0	101.1
=	39.4	0.0	24.0	101.1
=	39.9	0.0	24.0	101.1
=	40.7	0.0	24.0	101.2
=	41.3	0.0	24.0	101.2
=	41.9	0.0	24.0	101.2
=	42.5	0.0	24.0	101.2
=	43.1	0.0	24.0	101.2
=	43.7	0.0	24.0	101.3
=	44.3	0.0	24.0	101.4
=	44.8	0.0	24.0	101.4
=	45.3	0.0	24.0	101.4
=	46.0	0.0	24.0	101.4
=	46.6	0.0	24.0	101.4
=	47.0	0.0	24.0	101.5
=	47.5	0.0	24.0	101.5
=	48.1	0.0	24.0	101.5
=	48.7	0.0	24.0	101.5
=	49.4	0.0	24.0	101.5
=	50.0	0.0	24.0	101.5
=	50.6	0.0	24.0	101.5
=	51.4	0.0	24.0	101.5
=	52.0	0.0	24.0	101.5
=	52.5	0.0	24.0	101.5
=	53.2	0.0	24.0	101.5
=	53.8	0.0	24.0	101.5
=	54.3	0.0	24.0	101.5
=	55.1	0.0	24.0	101.5
=	55.8	0.0	24.0	101.6
=	56.5	0.0	24.0	101.6
=	57.1	0.0	24.0	101.6
=	57.5	0.0	24.0	101.6
=	58.1	0.0	24.0	101.6
=	58.7	0.0	24.0	101.6
=	59.3	0.0	24.0	101.6
=	59.9	0.0	24.0	101.6
=	60.5	0.0	24.0	101.6
=	61.0	0.0	24.0	101.6
=	61.5	0.0	24.0	101.6
=	62.1	0.0	24.0	101.6
=	62.7	0.0	24.0	101.6
=	63.3	0.0	24.0	101.6
=	63.8	0.0	24.0	101.6
=	64.3	0.0	24.0	101.6
=	65.0	0.0	24.0	101.6
=	65.6	0.0	24.0	101.6
=	66.3	0.0	24.0	101.6
=	67.0	0.0	24.0	101.5
=	67.5	0.0	24.0	101.5
=	68.1	0.0	24.0	101.5
=	68.7	0.0	24.0	101.5
=	69.5	0.0	24.0	101.5
=	70.0	0.0	24.0	101.5
=	70.5	0.0	24.0	101.5
=	71.1	0.0	24.0	101.5
=	71.7	0.0	24.0	101.5
=	72.3	0.0	24.0	101.5
=	73.0	0.0	24.0	101.5
=	73.6	0.0	24.0	101.5
=	74.2	0.0	24.0	101.5
=	74.9	0.0	24.0	101.5
=	75.5	0.0	24.0	101.5
=	76.1	0.0	24.0	101.4
=	76.6	0.0	24.0	101.4
=	77.3	0.0	24.0	101.4
=	77.9	0.0	24.0	101.4
=	78.6	0.0	24.0	101.4
=	79.3	0.0	24.0	101.4
=	79.9	0.0	24.0	101.3
=	80.5	0.0	24.0	101.3
=	81.2	0.0	24.0	101.3
=	81.7	0.0	24.0	101.3
=	82.3	0.0	24.0	101.3
=	82.8	0.0	24.0	101.3
=	83.4	0.0	24.0	101.2
=	84.0	0.0	24.0	101.2
=	84.7	0.0	24.0	101.2
=	85.3	0.0	24.0	101.2
=	85.9	0.0	24.0	101.2
=	86.6	0.0	24.0	101.2
=	87.1	0.0	24.0	101.2
=	87.7	0.0	24.0	101.2
=	88.4	0.0	24.0	101.1
=	89.2	0.0	24.0	101.1
=	89.9	0.0	24.0	101.0
=	90.5	0.0	24.0	101.0
=	91.1	0.0	24.0	101.0
=	91.9	0.0	24.0	101.0
=	92.5	0.0	24.0	100.9
=	93.1	0.0	24.0	101.0
=	93.8	0.0	24.0	101.0
=	94.4	0.0	24.0	100.9
=	95.0	0.0	24.0	100.9
=	95.7	0.0	24.0	100.9
=	96.4	0.0	24.0	100.9
=	97.0	0.0	24.0	100.9
=	97.7	0.0	24.0	100.9
=	98.4	0.0	24.0	100.8
=	99.0	0.0	24.0	100.8
=	99.6	0.0	24.0	100.8
=	100.2	0.0	24.0	100.8
=	100.8	0.0	24.0	100.7
=	101.6	0.0	24.0	100.7
=	102.1	0.0	24.0	100.7
=	102.8	0.0	24.0	100.7
=	103.4	0.0	24.0	100.6
=	104.0	0.0	24.0	100.6
=	104.8	0.0	24.0	100.6
=	105.4	0.0	24.0	100.5
=	106.0	0.0	24.0	100.5
=	106.6	0.0	24.0	100.4
=	107.2	0.0	24.0	100.4
=	107.9	0.0	24.0	100.4
=	108.5	0.0	24.0	100.4
=	109.1	0.0	24.0	100.4
=	109.8	0.0	24.0	100.3
=	110.4	0.0	24.0	100.3
=	110.9	0.0	24.0	100.3
=	111.7	0.0	24.0	100.2
=	112.3	0.0	24.0	100.2
=	112.9	0.0	24.0	100.2
=	113.5	0.0	24.0	100.1
=	114.2	0.0	24.0	100.1
=	115.0	0.0	24.0	100.0
=	115.7	0.0	24.0	100.0
=	116.3	0.0	24.0	99.9
=	117.0	0.0	24.0	99.9
=	117.6	0.0	24.0	99.9
=	118.2	0.0	24.0	99.9
=	118.8	0.0	24.0	99.9
=	119.3	0.0	24.0	99.9
=	119.8	0.0	24.0	99.9
=	120.4	0.0	24.0	99.8
=	121.0	0.0	24.0	99.8
=	121.6	0.0	24.0	99.8
=	122.3	0.0	24.0	99.7
=	122.9	0.0	24.0	99.7
=	123.5	0.0	24.0	99.6
=	124.1	0.0	24.0	99.6
=	124.8	0.0	24.0	99.5
=	125.5	0.0	24.0	99.5
=	126.0	0.0	24.0	99.4
=	126.6	0.0	24.0	99.4
=	127.2	0.0	24.0	99.4
=	127.8	0.0	24.0	99.4
=	128.5	0.0	24.0	99.3
=	129.2	0.0	24.0	99.3
=	129.7	0.0	24.0	99.3
=	130.2	0.0	24.0	99.3
=	130.7	0.0	24.0	99.2
=	131.4	0.0	24.0	99.2
=	132.1	0.0	24.0	99.2
=	132.7	0.0	24.0	99.1
=	133.3	0.0	24.0	99.1
=	133.9	0.0	24.0	99.0
=	134.6	0.0	24.0	99.0
=	135.5	0.0	24.0	99.0
=	136.2	0.0	24.0	98.9
=	136.8	0.0	24.0	98.9
=	137.4	0.0	24.0	98.9
=	138.0	0.0	24.0	98.8
=	138.5	0.0	24.0	98.8
=	139.2	0.0	24.0	98.7
=	139.8	0.0	24.0	98.7
=	140.3	0.0	24.0	98.7
=	140.8	0.0	24.0	98.7
=	141.5	0.0	24.0	98.6
=	142.2	0.0	24.0	98.6
=	142.8	0.0	24.0	98.5
=	143.5	0.0	24.0	98.5
=	144.1	0.0	24.0	98.4
=	144.8	0.0	24.0	98.4
=	145.5	0.0	24.0	98.4
=	146.2	0.0	24.0	98.3
=	146.8	0.0	24.0	98.3
=	147.4	0.0	24.0	98.2
=	148.1	0.0	24.0	98.2
=	148.8	0.0	24.0	98.2
=	149.3	0.0	24.0	98.2
=	149.9	0.0	24.0	98.2
=	150.6	0.0	24.0	98.1
=	151.3	0.0	24.0	98.1
=	151.9	0.0	24.0	98.0
=	152.6	0.0	24.0	97.9
=	153.2	0.0	24.0	97.9
=	153.8	0.0	24.0	97.9
=	154.4	0.0	24.0	97.8
=	155.0	0.0	24.0	97.8
=	155.6	0.0	24.0	97.8
=	156.1	0.0	24.0	97.7
=	156.8	0.0	24.0	97.7
=	157.3	0.0	24.0	97.7
=	158.0	0.0	24.0	97.6
=	158.7	0.0	24.0	97.6
=	159.5	0.0	24.0	97.6
=	160.1	0.0	24.0	97.6
=	160.9	0.0	24.0	97.5
=	161.5	0.0	24.0	97.5
=	162.2	0.0	24.0	97.4
=	162.9	0.0	24.0	97.4
=	163.6	0.0	24.0	97.3
=	164.1	0.0	24.0	97.3
=	164.6	0.0	24.0	97.2
=	165.3	0.0	24.0	97.2
=	166.0	0.0	24.0	97.2
=	166.7	0.0	24.0	97.2
=	167.4	0.0	24.0	97.1
=	168.0	0.0	24.0	97.1
=	168.6	0.0	24.0	97.1
=	169.4	0.0	24.0	97.0
=	170.1	0.0	24.0	97.0
=	170.7	0.0	24.0	96.9
=	171.4	0.0	24.0	96.9
=	172.0	0.0	24.0	96.8
=	172.6	0.0	24.0	96.8
=	173.1	0.0	24.0	96.7
=	173.7	0.0	24.0	96.7
=	174.3	0.0	24.0	96.7
=	175.0	0.0	24.0	96.6
=	175.5	0.0	24.0	96.6
=	176.0	0.0	24.0	96.5
=	176.6	0.0	24.0	96.4
=	177.1	0.0	24.0	96.4
=	177.7	0.0	24.0	96.4
=	178.3	0.0	24.0	96.3
=	178.9	0.0	24.0	96.3
=	179.6	0.0	24.0	96.2
=	180.2	0.0	24.0	96.1
=	180.7	0.0	24.0	96.0
=	181.4	0.0	24.0	95.9
=	182.1	0.0	24.0	95.9
=	182.7	0.0	24.0	95.8
=	183.4	0.0	24.0	95.7
=	184.0	0.0	24.0	95.5
=	184.6	0.0	24.0	95.4
=	185.2	0.0	24.0	95.4
=	185.7	0.0	24.0	95.3
=	186.2	0.0	24.0	95.2
=	186.8	0.0	24.0	95.0
=	187.4	0.0	24.0	95.0
=	188.0	0.0	24.0	94.9
=	188.6	0.0	24.0	94.8
=	189.2	0.0	24.0	94.6
=	189.8	0.0	24.0	94.4
=	190.5	0.0	24.0	94.3
=	191.3	0.0	24.0	94.0
=	191.9	0.0	24.0	93.8
=	192.5	0.0	24.0	93.6
=	193.0	0.0	24.0	93.4
=	193.6	0.0	24.0	93.2
=	194.2	0.0	24.0	92.8
=	194.9	0.0	24.0	92.4
=	195.4	0.0	24.0	92.0
=	196.0	0.0	24.0	91.4
=	196.6	0.0	24.0	90.8
=	197.2	0.0	24.0	89.9
=	197.8	0.0	24.0	89.0
=	198.4	0.0	24.0	87.8
=	199.0	0.0	24.0	86.2
=	199.8	0.0	24.0	83.8
=	200.4	0.0	24.0	81.2
=	201.0	0.0	24.0	78.1
=	201.6	0.0	24.0	74.6
=	202.2	0.0	24.0	70.8
=	202.7	0.0	24.0	66.9
=	203.3	0.0	24.0	61.9
=	204.0	0.0	24.0	56.1
=	204.6	0.0	24.0	51.3
=	205.3	0.0	24.0	45.5
=	205.8	0.0	24.0	41.0
=	206.4	0.0	24.0	36.7
=	207.0	0.0	24.0	33.0
=	207.6	0.0	24.0	29.5
=	208.1	0.0	24.0	26.3
=	208.7	0.0	24.0	23.7
=	209.3	0.0	24.0	21.5
=	209.8	0.0	24.0	19.7
=	210.4	0.0	24.0	18.3
=	211.1	0.0	24.0	16.7
=	211.7	0.0	24.0	15.8
=	212.4	0.0	24.0	14.9
=	213.0	0.0	24.0	14.3
=	213.6	0.0	24.0	13.8
=	214.2	0.0	24.0	13.3
=	215.0	0.0	24.0	12.9
=	215.7	0.0	24.0	12.6
=	216.4	0.0	24.0	12.2
=	216.9	0.0	24.0	12.0
=	217.6	0.0	24.0	11.9
=	218.1	0.0	24.0	11.7
=	218.8	0.0	24.0	11.5
=	219.4	0.0	24.0	11.3
=	220.0	0.0	24.0	11.2
=	220.7	0.0	24.0	11.1
=	221.4	0.0	24.0	10.9
=	222.1	0.0	24.0	10.8
=	222.7	0.0	24.0	10.7
=	223.2	0.0	24.0	10.6
=	223.8	0.0	24.0	10.5
=	224.3	0.0	24.0	10.4
=	224.9	0.0	24.0	10.4
=	225.4	0.0	24.0	10.3
=	225.9	0.0	24.0	10.2
=	226.6	0.0	24.0	10.1
=	227.2	0.0	24.0	10.0
=	227.9	0.0	24.0	9.9
=	228.6	0.0	24.0	9.9
=	229.1	0.0	24.0	9.8
=	229.8	0.0	24.0	9.7
=	230.4	0.0	24.0	9.6
=	231.1	0.0	24.0	9.6
=	231.7	0.0	24.0	9.5
=	232.5	0.0	24.0	9.4
=	233.2	0.0	24.0	9.3
=	233.7	0.0	24.0	9.2
=	234.3	0.0	24.0	9.1
=	234.9	0.0	24.0	9.1
=	235.4	0.0	24.0	9.0
=	236.0	0.0	24.0	9.0
=	236.6	0.0	24.0	8.9
=	237.2	0.0	24.0	8.9
=	238.0	0.0	24.0	8.9
=	238.6	0.0	24.0	8.8
=	239.2	0.0	24.0	8.8
=	239.7	0.0	24.0	8.8
=	240.3	0.0	24.0	8.7
=	240.9	0.0	24.0	8.7
=	241.5	0.0	24.0	8.6
=	242.2	0.0	24.0	8.6
=	242.8	0.0	24.0	8.5
=	243.3	0.0	24.0	8.5
=	243.9	0.0	24.0	8.5
=	244.4	0.0	24.0	8.4
=	244.8	0.0	24.0	8.4
=	245.4	0.0	24.0	8.4
=	246.1	0.0	24.0	8.3
=	246.8	0.0	24.0	8.3
=	247.5	0.0	24.0	8.2
=	248.0	0.0	24.0	8.2
=	248.5	0.0	24.0	8.2
=	249.1	0.0	24.0	8.1
=	249.8	0.0	24.0	8.1
=	250.3	0.0	24.0	8.1
=	250.9	0.0	24.0	8.0
=	251.6	0.0	24.0	8.0
=	252.3	0.0	24.0	8.0
=	253.0	0.0	24.0	7.9
=	253.8	0.0	24.0	7.9
=	254.5	0.0	24.0	7.8
:EOM # End of Measurement
#
# RFA300 ASCII Measurement Dump ( BDS format )
#
# Measurement number 	2
#
%VNR 1.0
%MOD 	RAT
%TYP 	SCN
%SCN 	PRO
%FLD 	ION
%DAT 	10-14-2011
%TIM 	12:00:00
%FSZ 	400	200
%BMT 	PHO	   10.0
%SSD 	1000
%BUP 	0
%BRD 	1000
%FSH 	1
%ASC 	0
%WEG 	45
%GPO 	0
%CPO 	0
%MEA 	6
%PRD 	50,0
%PTS 	830
%STS 	    -259.6	  0.0	   50.0 # Start Scan values in mm ( X , Y , Z )
%EDS 	    259.1	   0.0	   50.0 # End Scan values in mm ( X , Y , Z )
#
#	  X      Y      Z     Dose
#
=	-259.6	0.0	50.0	7.8
=	-259.0	0.0	50.0	7.8
=	-258.4	0.0	50.0	7.8
=	-257.8	0.0	50.0	7.9
=	-257.3	0.0	50.0	7.9
=	-256.7	0.0	50.0	7.9
=	-256.2	0.0	50.0	8.0
=	-255.6	0.0	50.0	8.0
=	-255.1	0.0	50.0	8.1
=	-254.4	0.0	50.0	8.1
=	-253.8	0.0	50.0	8.2
=	-253.0	0.0	50.0	8.2
=	-252.3	0.0	50.0	8.2
=	-251.7	0.0	50.0	8.3
=	-251.1	0.0	50.0	8.3
=	-250.5	0.0	50.0	8.4
=	-249.9	0.0	50.0	8.4
=	-249.2	0.0	50.0	8.5
=	-248.5	0.0	50.0	8.5
=	-247.7	0.0	50.0	8.6
=	-247.1	0.0	50.0	8.6
=	-246.4	0.0	50.0	8.6
=	-245.7	0.0	50.0	8.7
=	-244.9	0.0	50.0	8.8
=	-244.1	0.0	50.0	8.8
=	-243.5	0.0	50.0	8.9
=	-242.8	0.0	50.0	9.0
=	-242.0	0.0	50.0	9.0
=	-241.4	0.0	50.0	9.1
=	-241.0	0.0	50.0	9.1
=	-240.2	0.0	50.0	9.2
=	-239.5	0.0	50.0	9.3
=	-238.9	0.0	50.0	9.4
=	-238.4	0.0	50.0	9.4
=	-237.8	0.0	50.0	9.5
=	-237.1	0.0	50.0	9.6
=	-236.4	0.0	50.0	9.7
=	-235.7	0.0	50.0	9.8
=	-235.2	0.0	50.0	9.9
=	-234.5	0.0	50.0	10.0
=	-234.0	0.0	50.0	10.1
=	-233.3	0.0	50.0	10.1
=	-232.7	0.0	50.0	10.2
=	-232.1	0.0	50.0	10.3
=	-231.5	0.0	50.0	10.4
=	-230.8	0.0	50.0	10.6
=	-230.0	0.0	50.0	10.7
=	-229.3	0.0	50.0	10.8
=	-228.8	0.0	50.0	10.9
=	-228.2	0.0	50.0	11.0
=	-227.6	0.0	50.0	11.1
=	-227.0	0.0	50.0	11.3
=	-226.3	0.0	50.0	11.4
=	-225.7	0.0	50.0	11.5
=	-225.0	0.0	50.0	11.7
=	-224.3	0.0	50.0	11.9
=	-223.5	0.0	50.0	12.1
=	-223.0	0.0	50.0	12.3
=	-222.5	0.0	50.0	12.5
=	-221.9	0.0	50.0	12.7
=	-221.2	0.0	50.0	12.9
=	-220.5	0.0	50.0	13.3
=	-219.8	0.0	50.0	13.7
=	-219.2	0.0	50.0	14.1
=	-218.6	0.0	50.0	14.6
=	-218.0	0.0	50.0	15.1
=	-217.4	0.0	50.0	15.8
=	-216.9	0.0	50.0	16.5
=	-216.4	0.0	50.0	17.2
=	-215.8	0.0	50.0	18.4
=	-215.2	0.0	50.0	19.7
=	-214.7	0.0	50.0	21.1
=	-214.1	0.0	50.0	23.0
=	-213.4	0.0	50.0	26.0
=	-212.6	0.0	50.0	29.9
=	-212.0	0.0	50.0	33.5
=	-211.5	0.0	50.0	36.7
=	-210.8	0.0	50.0	41.4
=	-210.0	0.0	50.0	46.9
=	-209.5	0.0	50.0	51.5
=	-208.9	0.0	50.0	56.0
=	-208.3	0.0	50.0	60.8
=	-207.6	0.0	50.0	66.0
=	-206.9	0.0	50.0	70.8
=	-206.4	0.0	50.0	73.8
=	-205.9	0.0	50.0	76.5
=	-205.3	0.0	50.0	79.3
=	-204.7	0.0	50.0	81.6
=	-204.0	0.0	50.0	83.5
=	-203.5	0.0	50.0	84.8
=	-203.0	0.0	50.0	86.0
=	-202.4	0.0	50.0	87.1
=	-201.9	0.0	50.0	87.8
=	-201.2	0.0	50.0	88.6
=	-200.6	0.0	50.0	89.2
=	-199.9	0.0	50.0	89.8
=	-199.2	0.0	50.0	90.3
=	-198.5	0.0	50.0	90.7
=	-197.9	0.0	50.0	91.2
=	-197.3	0.0	50.0	91.4
=	-196.7	0.0	50.0	91.6
=	-195.9	0.0	50.0	91.9
=	-195.2	0.0	50.0	92.2
=	-194.6	0.0	50.0	92.4
=	-193.9	0.0	50.0	92.7
=	-193.3	0.0	50.0	92.8
=	-192.7	0.0	50.0	93.0
=	-192.1	0.0	50.0	93.1
=	-191.6	0.0	50.0	93.3
=	-190.9	0.0	50.0	93.4
=	-190.2	0.0	50.0	93.6
=	-189.5	0.0	50.0	93.7
=	-189.0	0.0	50.0	93.9
=	-188.2	0.0	50.0	94.0
=	-187.5	0.0	50.0	94.1
=	-186.8	0.0	50.0	94.1
=	-186.2	0.0	50.0	94.2
=	-185.5	0.0	50.0	94.4
=	-184.8	0.0	50.0	94.5
=	-184.0	0.0	50.0	94.6
=	-183.4	0.0	50.0	94.7
=	-182.7	0.0	50.0	94.8
=	-181.9	0.0	50.0	94.9
=	-181.3	0.0	50.0	94.9
=	-180.7	0.0	50.0	95.0
=	-180.1	0.0	50.0	95.1
=	-179.3	0.0	50.0	95.2
=	-178.5	0.0	50.0	95.2
=	-177.8	0.0	50.0	95.3
=	-177.2	0.0	50.0	95.4
=	-176.4	0.0	50.0	95.4
=	-175.6	0.0	50.0	95.5
=	-174.9	0.0	50.0	95.5
=	-174.3	0.0	50.0	95.6
=	-173.8	0.0	50.0	95.6
=	-173.2	0.0	50.0	95.7
=	-172.7	0.0	50.0	95.7
=	-171.9	0.0	50.0	95.8
=	-171.3	0.0	50.0	95.9
=	-170.5	0.0	50.0	95.9
=	-169.7	0.0	50.0	96.0
=	-169.0	0.0	50.0	96.1
=	-168.3	0.0	50.0	96.1
=	-167.5	0.0	50.0	96.2
=	-166.8	0.0	50.0	96.2
=	-166.1	0.0	50.0	96.3
=	-165.5	0.0	50.0	96.3
=	-164.8	0.0	50.0	96.3
=	-164.0	0.0	50.0	96.3
=	-163.3	0.0	50.0	96.4
=	-162.6	0.0	50.0	96.4
=	-162.0	0.0	50.0	96.4
=	-161.4	0.0	50.0	96.5
=	-160.7	0.0	50.0	96.5
=	-160.0	0.0	50.0	96.6
=	-159.4	0.0	50.0	96.6
=	-158.8	0.0	50.0	96.6
=	-158.3	0.0	50.0	96.6
=	-157.8	0.0	50.0	96.7
=	-157.2	0.0	50.0	96.7
=	-156.6	0.0	50.0	96.8
=	-155.8	0.0	50.0	96.8
=	-155.1	0.0	50.0	96.9
=	-154.4	0.0	50.0	96.9
=	-153.7	0.0	50.0	96.9
=	-152.9	0.0	50.0	97.0
=	-152.3	0.0	50.0	97.1
=	-151.7	0.0	50.0	97.1
=	-150.9	0.0	50.0	97.1
=	-150.3	0.0	50.0	97.2
=	-149.8	0.0	50.0	97.3
=	-149.2	0.0	50.0	97.3
=	-148.6	0.0	50.0	97.4
=	-148.1	0.0	50.0	97.4
=	-147.4	0.0	50.0	97.5
=	-146.8	0.0	50.0	97.5
=	-146.0	0.0	50.0	97.5
=	-145.4	0.0	50.0	97.6
=	-144.7	0.0	50.0	97.6
=	-144.0	0.0	50.0	97.6
=	-143.3	0.0	50.0	97.7
=	-142.7	0.0	50.0	97.7
=	-142.1	0.0	50.0	97.7
=	-141.5	0.0	50.0	97.8
=	-140.8	0.0	50.0	97.8
=	-140.2	0.0	50.0	97.9
=	-139.6	0.0	50.0	97.9
=	-139.0	0.0	50.0	97.9
=	-138.4	0.0	50.0	97.9
=	-137.9	0.0	50.0	98.0
=	-137.2	0.0	50.0	98.0
=	-136.5	0.0	50.0	98.1
=	-135.9	0.0	50.0	98.1
=	-135.2	0.0	50.0	98.1
=	-134.6	0.0	50.0	98.2
=	-134.0	0.0	50.0	98.2
=	-133.3	0.0	50.0	98.3
=	-132.7	0.0	50.0	98.3
=	-132.1	0.0	50.0	98.4
=	-131.4	0.0	50.0	98.4
=	-130.9	0.0	50.0	98.5
=	-130.2	0.0	50.0	98.5
=	-129.5	0.0	50.0	98.5
=	-128.9	0.0	50.0	98.6
=	-128.2	0.0	50.0	98.6
=	-127.5	0.0	50.0	98.7
=	-127.0	0.0	50.0	98.7
=	-126.4	0.0	50.0	98.8
=	-125.9	0.0	50.0	98.8
=	-125.4	0.0	50.0	98.8
=	-124.9	0.0	50.0	98.8
=	-124.4	0.0	50.0	98.9
=	-123.8	0.0	50.0	98.9
=	-123.3	0.0	50.0	98.9
=	-122.7	0.0	50.0	98.9
=	-122.0	0.0	50.0	99.0
=	-121.4	0.0	50.0	99.0
=	-120.7	0.0	50.0	99.1
=	-120.0	0.0	50.0	99.1
=	-119.3	0.0	50.0	99.1
=	-118.7	0.0	50.0	99.2
=	-118.2	0.0	50.0	99.2
=	-117.5	0.0	50.0	99.2
=	-117.0	0.0	50.0	99.3
=	-116.5	0.0	50.0	99.3
=	-115.8	0.0	50.0	99.3
=	-115.0	0.0	50.0	99.4
=	-114.4	0.0	50.0	99.4
=	-113.8	0.0	50.0	99.4
=	-113.3	0.0	50.0	99.4
=	-112.7	0.0	50.0	99.4
=	-112.0	0.0	50.0	99.5
=	-111.4	0.0	50.0	99.5
=	-110.7	0.0	50.0	99.5
=	-110.1	0.0	50.0	99.6
=	-109.4	0.0	50.0	99.6
=	-108.7	0.0	50.0	99.7
=	-108.0	0.0	50.0	99.7
=	-107.4	0.0	50.0	99.8
=	-106.8	0.0	50.0	99.8
=	-106.3	0.0	50.0	99.8
=	-105.8	0.0	50.0	99.9
=	-105.1	0.0	50.0	99.9
=	-104.4	0.0	50.0	99.9
=	-103.8	0.0	50.0	100.0
=	-103.2	0.0	50.0	100.0
=	-102.6	0.0	50.0	100.0
=	-102.0	0.0	50.0	100.0
=	-101.2	0.0	50.0	100.1
=	-100.6	0.0	50.0	100.1
=	-100.2	0.0	50.0	100.1
=	-99.6	0.0	50.0	100.1
=	-98.9	0.0	50.0	100.1
=	-98.2	0.0	50.0	100.1
=	-97.6	0.0	50.0	100.2
=	-97.0	0.0	50.0	100.2
=	-96.4	0.0	50.0	100.3
=	-95.9	0.0	50.0	100.3
=	-95.2	0.0	50.0	100.4
=	-94.6	0.0	50.0	100.4
=	-94.0	0.0	50.0	100.4
=	-93.4	0.0	50.0	100.4
=	-92.7	0.0	50.0	100.4
=	-92.1	0.0	50.0	100.4
=	-91.6	0.0	50.0	100.4
=	-90.9	0.0	50.0	100.4
=	-90.3	0.0	50.0	100.4
=	-89.6	0.0	50.0	100.5
=	-88.8	0.0	50.0	100.5
=	-88.2	0.0	50.0	100.5
=	-87.6	0.0	50.0	100.6
=	-86.8	0.0	50.0	100.6
=	-86.2	0.0	50.0	100.6
=	-85.6	0.0	50.0	100.6
=	-85.0	0.0	50.0	100.7
=	-84.4	0.0	50.0	100.7
=	-83.6	0.0	50.0	100.7
=	-83.0	0.0	50.0	100.7
=	-82.1	0.0	50.0	100.8
=	-81.4	0.0	50.0	100.8
=	-80.9	0.0	50.0	100.8
=	-80.3	0.0	50.0	100.8
=	-79.7	0.0	50.0	100.8
=	-79.1	0.0	50.0	100.8
=	-78.4	0.0	50.0	100.9
=	-77.9	0.0	50.0	100.9
=	-77.3	0.0	50.0	100.9
=	-76.7	0.0	50.0	100.9
=	-76.1	0.0	50.0	101.0
=	-75.4	0.0	50.0	101.0
=	-74.8	0.0	50.0	101.0
=	-74.1	0.0	50.0	101.0
=	-73.4	0.0	50.0	101.0
=	-72.8	0.0	50.0	101.0
=	-72.2	0.0	50.0	100.9
=	-71.6	0.0	50.0	100.9
=	-71.1	0.0	50.0	101.0
=	-70.4	0.0	50.0	101.0
=	-69.9	0.0	50.0	101.0
=	-69.2	0.0	50.0	101.0
=	-68.6	0.0	50.0	101.0
=	-67.9	0.0	50.0	101.1
=	-67.3	0.0	50.0	101.1
=	-66.6	0.0	50.0	101.1
=	-66.1	0.0	50.0	101.1
=	-65.5	0.0	50.0	101.0
=	-64.9	0.0	50.0	101.1
=	-64.2	0.0	50.0	101.1
=	-63.4	0.0	50.0	101.1
=	-62.8	0.0	50.0	101.1
=	-62.1	0.0	50.0	101.1
=	-61.5	0.0	50.0	101.1
=	-61.0	0.0	50.0	101.2
=	-60.3	0.0	50.0	101.2
=	-59.8	0.0	50.0	101.2
=	-59.3	0.0	50.0	101.1
=	-58.5	0.0	50.0	101.1
=	-57.9	0.0	50.0	101.2
=	-57.3	0.0	50.0	101.2
=	-56.5	0.0	50.0	101.2
=	-55.8	0.0	50.0	101.2
=	-55.2	0.0	50.0	101.2
=	-54.6	0.0	50.0	101.1
=	-54.1	0.0	50.0	101.2
=	-53.5	0.0	50.0	101.2
=	-52.7	0.0	50.0	101.2
=	-52.1	0.0	50.0	101.2
=	-51.6	0.0	50.0	101.1
=	-50.9	0.0	50.0	101.1
=	-50.3	0.0	50.0	101.1
=	-49.7	0.0	50.0	101.1
=	-49.1	0.0	50.0	101.1
=	-48.5	0.0	50.0	101.1
=	-47.8	0.0	50.0	101.1
=	-47.1	0.0	50.0	101.1
=	-46.5	0.0	50.0	101.1
=	-46.0	0.0	50.0	101.1
=	-45.3	0.0	50.0	101.1
=	-44.6	0.0	50.0	101.0
=	-43.9	0.0	50.0	101.0
=	-43.4	0.0	50.0	101.0
=	-42.8	0.0	50.0	101.0
=	-42.3	0.0	50.0	101.0
=	-41.7	0.0	50.0	101.0
=	-41.0	0.0	50.0	101.0
=	-40.3	0.0	50.0	101.0
=	-39.7	0.0	50.0	100.9
=	-39.2	0.0	50.0	100.9
=	-38.5	0.0	50.0	100.9
=	-37.8	0.0	50.0	100.8
=	-37.3	0.0	50.0	100.8
=	-36.8	0.0	50.0	100.8
=	-36.2	0.0	50.0	100.8
=	-35.6	0.0	50.0	100.8
=	-35.0	0.0	50.0	100.8
=	-34.4	0.0	50.0	100.8
=	-33.8	0.0	50.0	100.7
=	-33.3	0.0	50.0	100.7
=	-32.7	0.0	50.0	100.7
=	-32.1	0.0	50.0	100.8
=	-31.6	0.0	50.0	100.7
=	-31.0	0.0	50.0	100.7
=	-30.3	0.0	50.0	100.7
=	-29.7	0.0	50.0	100.7
=	-29.0	0.0	50.0	100.6
=	-28.4	0.0	50.0	100.6
=	-27.7	0.0	50.0	100.6
=	-26.9	0.0	50.0	100.5
=	-26.3	0.0	50.0	100.5
=	-25.8	0.0	50.0	100.5
=	-25.2	0.0	50.0	100.5
=	-24.7	0.0	50.0	100.5
=	-24.0	0.0	50.0	100.4
=	-23.4	0.0	50.0	100.4
=	-22.8	0.0	50.0	100.4
=	-22.3	0.0	50.0	100.4
=	-21.7	0.0	50.0	100.4
=	-21.2	0.0	50.0	100.4
=	-20.7	0.0	50.0	100.4
=	-20.2	0.0	50.0	100.4
=	-19.8	0.0	50.0	100.4
=	-19.2	0.0	50.0	100.3
=	-18.6	0.0	50.0	100.3
=	-18.0	0.0	50.0	100.3
=	-17.3	0.0	50.0	100.3
=	-16.7	0.0	50.0	100.3
=	-16.2	0.0	50.0	100.2
=	-15.6	0.0	50.0	100.2
=	-15.1	0.0	50.0	100.2
=	-14.4	0.0	50.0	100.1
=	-13.9	0.0	50.0	100.1
=	-13.2	0.0	50.0	100.1
=	-12.6	0.0	50.0	100.0
=	-12.0	0.0	50.0	100.0
=	-11.3	0.0	50.0	100.0
=	-10.8	0.0	50.0	100.0
=	-10.2	0.0	50.0	100.0
=	-9.7	0.0	50.0	99.9
=	-9.0	0.0	50.0	99.9
=	-8.5	0.0	50.0	99.9
=	-8.0	0.0	50.0	99.9
=	-7.4	0.0	50.0	99.9
=	-6.8	0.0	50.0	99.9
=	-6.2	0.0	50.0	99.9
=	-5.7	0.0	50.0	99.9
=	-5.1	0.0	50.0	99.9
=	-4.5	0.0	50.0	99.9
=	-3.8	0.0	50.0	99.9
=	-3.3	0.0	50.0	99.9
=	-2.8	0.0	50.0	99.9
=	-2.2	0.0	50.0	99.9
=	-1.8	0.0	50.0	99.9
=	-1.3	0.0	50.0	99.9
=	-0.8	0.0	50.0	100.0
=	-0.2	0.0	50.0	100.0
=	0.0	0.0	50.0	100.0
=	0.4	0.0	50.0	100.0
=	1.0	0.0	50.0	100.0
=	1.4	0.0	50.0	99.9
=	1.9	0.0	50.0	99.9
=	2.4	0.0	50.0	99.9
=	2.9	0.0	50.0	99.9
=	3.4	0.0	50.0	99.9
=	4.0	0.0	50.0	99.9
=	4.7	0.0	50.0	99.9
=	5.2	0.0	50.0	99.9
=	5.8	0.0	50.0	99.9
=	6.3	0.0	50.0	99.9
=	6.9	0.0	50.0	99.9
=	7.5	0.0	50.0	99.9
=	8.1	0.0	50.0	99.9
=	8.6	0.0	50.0	99.9
=	9.2	0.0	50.0	99.9
=	9.8	0.0	50.0	99.9
=	10.3	0.0	50.0	100.0
=	10.9	0.0	50.0	100.0
=	11.4	0.0	50.0	100.0
=	12.1	0.0	50.0	100.0
=	12.8	0.0	50.0	100.1
=	13.4	0.0	50.0	100.1
=	14.0	0.0	50.0	100.1
=	14.6	0.0	50.0	100.1
=	15.2	0.0	50.0	100.2
=	15.8	0.0	50.0	100.2
=	16.3	0.0	50.0	100.2
=	16.8	0.0	50.0	100.3
=	17.4	0.0	50.0	100.3
=	18.1	0.0	50.0	100.3
=	18.8	0.0	50.0	100.3
=	19.4	0.0	50.0	100.3
=	19.9	0.0	50.0	100.4
=	20.4	0.0	50.0	100.4
=	20.8	0.0	50.0	100.4
=	21.4	0.0	50.0	100.4
=	21.9	0.0	50.0	100.4
=	22.4	0.0	50.0	100.4
=	23.0	0.0	50.0	100.4
=	23.5	0.0	50.0	100.4
=	24.2	0.0	50.0	100.4
=	24.9	0.0	50.0	100.5
=	25.4	0.0	50.0	100.5
=	25.9	0.0	50.0	100.5
