:MSR 	4	 # No. of measurement in file
:SYS BDS 0   # Beam Data Scanner System
#
# RFA300 ASCII Measurement Dump ( BDS format )
#
# Measurement number 	1
#
%VNR 1.0
%MOD 	RAT
%TYP 	SCN
%SCN 	DPT
%FLD 	ION
%DAT 	09-29-2011
%TIM 	12:00:00
%FSZ 	040	040
%BMT 	PHO	   10.0
%SSD 	1200
%BUP 	0
%BRD 	1200
%FSH 	1
%ASC 	0
%WEG 	45
%GPO 	0
%CPO 	0
%MEA 	5
%PRD 	0,0
%PTS 	729
%STS 	    0.0	  0.0	   0.0 # Start Scan values in mm ( X , Y , Z )
%EDS 	    0.0	   0.0	   305.7 # End Scan values in mm ( X , Y , Z )
#
#	  X      Y      Z     Dose
#
=	0.0	0.0	0.0	26.5
=	0.0	0.0	0.5	28.7
=	0.0	0.0	0.9	30.6
=	0.0	0.0	1.3	32.8
=	0.0	0.0	1.7	35.3
=	0.0	0.0	2.1	38.8
=	0.0	0.0	2.5	42.6
=	0.0	0.0	2.9	46.6
=	0.0	0.0	3.2	49.0
=	0.0	0.0	3.4	51.3
=	0.0	0.0	3.7	53.5
=	0.0	0.0	4.0	55.4
=	0.0	0.0	4.2	57.4
=	0.0	0.0	4.5	59.4
=	0.0	0.0	4.8	61.3
=	0.0	0.0	5.1	63.3
=	0.0	0.0	5.3	64.9
=	0.0	0.0	5.7	66.9
=	0.0	0.0	6.0	68.7
=	0.0	0.0	6.2	69.9
=	0.0	0.0	6.5	71.5
=	0.0	0.0	6.8	72.9
=	0.0	0.0	7.1	74.3
=	0.0	0.0	7.3	75.5
=	0.0	0.0	7.6	76.6
=	0.0	0.0	7.9	77.7
=	0.0	0.0	8.2	78.8
=	0.0	0.0	8.4	79.7
=	0.0	0.0	8.8	81.2
=	0.0	0.0	9.1	82.2
=	0.0	0.0	9.3	83.1
=	0.0	0.0	9.6	83.8
=	0.0	0.0	9.9	84.6
=	0.0	0.0	10.2	85.3
=	0.0	0.0	10.5	86.5
=	0.0	0.0	10.7	87.3
=	0.0	0.0	11.0	87.8
=	0.0	0.0	11.4	88.7
=	0.0	0.0	11.8	89.7
=	0.0	0.0	12.2	90.6
=	0.0	0.0	12.6	91.2
=	0.0	0.0	12.9	91.8
=	0.0	0.0	13.2	92.5
=	0.0	0.0	13.6	93.1
=	0.0	0.0	14.0	93.8
=	0.0	0.0	14.4	94.3
=	0.0	0.0	14.8	94.8
=	0.0	0.0	15.2	95.4
=	0.0	0.0	15.6	95.9
=	0.0	0.0	16.0	96.3
=	0.0	0.0	16.4	96.8
=	0.0	0.0	16.8	97.3
=	0.0	0.0	17.2	97.5
=	0.0	0.0	17.6	97.7
=	0.0	0.0	18.0	97.9
=	0.0	0.0	18.5	98.3
=	0.0	0.0	18.9	98.6
=	0.0	0.0	19.3	98.8
=	0.0	0.0	19.7	99.0
=	0.0	0.0	20.0	99.2
=	0.0	0.0	20.5	99.4
=	0.0	0.0	20.9	99.5
=	0.0	0.0	21.3	99.6
=	0.0	0.0	21.7	99.7
=	0.0	0.0	22.1	99.7
=	0.0	0.0	22.5	99.8
=	0.0	0.0	22.9	99.9
=	0.0	0.0	23.3	100.0
=	0.0	0.0	23.7	100.0
=	0.0	0.0	24.1	100.0
=	0.0	0.0	24.6	100.0
=	0.0	0.0	24.9	100.0
=	0.0	0.0	25.4	100.0
=	0.0	0.0	26.1	100.0
=	0.0	0.0	26.6	99.9
=	0.0	0.0	27.0	99.9
=	0.0	0.0	27.4	99.9
=	0.0	0.0	27.8	99.8
=	0.0	0.0	28.2	99.8
=	0.0	0.0	28.6	99.7
=	0.0	0.0	29.0	99.6
=	0.0	0.0	29.4	99.5
=	0.0	0.0	29.8	99.4
=	0.0	0.0	30.2	99.3
=	0.0	0.0	30.6	99.3
=	0.0	0.0	31.0	99.2
=	0.0	0.0	31.4	99.1
=	0.0	0.0	31.8	99.0
=	0.0	0.0	32.2	98.9
=	0.0	0.0	32.6	98.8
=	0.0	0.0	33.1	98.6
=	0.0	0.0	33.4	98.5
=	0.0	0.0	33.8	98.4
=	0.0	0.0	34.3	98.3
=	0.0	0.0	34.7	98.1
=	0.0	0.0	35.1	98.0
=	0.0	0.0	35.5	97.9
=	0.0	0.0	35.9	97.8
=	0.0	0.0	36.5	97.5
=	0.0	0.0	36.9	97.3
=	0.0	0.0	37.3	97.1
=	0.0	0.0	37.7	97.0
=	0.0	0.0	38.1	96.9
=	0.0	0.0	38.7	96.6
=	0.0	0.0	39.1	96.5
=	0.0	0.0	39.5	96.4
=	0.0	0.0	39.9	96.1
=	0.0	0.0	40.3	96.0
=	0.0	0.0	40.8	95.8
=	0.0	0.0	41.1	95.7
=	0.0	0.0	41.5	95.6
=	0.0	0.0	41.9	95.4
=	0.0	0.0	42.3	95.2
=	0.0	0.0	42.8	95.0
=	0.0	0.0	43.2	94.8
=	0.0	0.0	43.6	94.7
=	0.0	0.0	44.0	94.5
=	0.0	0.0	44.4	94.4
=	0.0	0.0	44.8	94.2
=	0.0	0.0	45.2	94.0
=	0.0	0.0	45.6	93.9
=	0.0	0.0	46.0	93.8
=	0.0	0.0	46.4	93.6
=	0.0	0.0	46.8	93.5
=	0.0	0.0	47.1	93.4
=	0.0	0.0	47.7	93.1
=	0.0	0.0	48.2	92.9
=	0.0	0.0	48.6	92.6
=	0.0	0.0	49.0	92.4
=	0.0	0.0	49.4	92.3
=	0.0	0.0	49.8	92.1
=	0.0	0.0	50.2	92.0
=	0.0	0.0	50.7	91.9
=	0.0	0.0	51.1	91.7
=	0.0	0.0	51.5	91.6
=	0.0	0.0	51.9	91.4
=	0.0	0.0	52.3	91.3
=	0.0	0.0	52.7	91.2
=	0.0	0.0	53.1	91.0
=	0.0	0.0	53.5	90.9
=	0.0	0.0	53.9	90.7
=	0.0	0.0	54.4	90.5
=	0.0	0.0	54.8	90.2
=	0.0	0.0	55.2	90.0
=	0.0	0.0	55.5	89.8
=	0.0	0.0	56.0	89.7
=	0.0	0.0	56.4	89.6
=	0.0	0.0	56.8	89.5
=	0.0	0.0	57.2	89.4
=	0.0	0.0	57.6	89.3
=	0.0	0.0	58.0	89.0
=	0.0	0.0	58.4	88.7
=	0.0	0.0	58.8	88.5
=	0.0	0.0	59.2	88.4
=	0.0	0.0	59.6	88.3
=	0.0	0.0	60.0	88.1
=	0.0	0.0	60.5	88.0
=	0.0	0.0	60.9	87.8
=	0.0	0.0	61.3	87.7
=	0.0	0.0	61.9	87.5
=	0.0	0.0	62.7	87.2
=	0.0	0.0	63.3	86.9
=	0.0	0.0	63.7	86.8
=	0.0	0.0	64.3	86.7
=	0.0	0.0	64.9	86.4
=	0.0	0.0	65.3	86.3
=	0.0	0.0	65.7	86.1
=	0.0	0.0	66.1	85.8
=	0.0	0.0	66.5	85.5
=	0.0	0.0	66.9	85.4
=	0.0	0.0	67.3	85.2
=	0.0	0.0	67.7	85.2
=	0.0	0.0	68.2	85.1
=	0.0	0.0	68.5	85.0
=	0.0	0.0	69.0	84.8
=	0.0	0.0	69.5	84.6
=	0.0	0.0	70.0	84.5
=	0.0	0.0	70.4	84.4
=	0.0	0.0	71.0	84.1
=	0.0	0.0	71.4	84.0
=	0.0	0.0	71.8	83.8
=	0.0	0.0	72.2	83.7
=	0.0	0.0	72.6	83.4
=	0.0	0.0	73.0	83.1
=	0.0	0.0	73.4	82.9
=	0.0	0.0	74.0	82.8
=	0.0	0.0	74.8	82.6
=	0.0	0.0	75.3	82.4
=	0.0	0.0	75.7	82.2
=	0.0	0.0	76.3	82.0
=	0.0	0.0	76.7	81.8
=	0.0	0.0	77.1	81.5
=	0.0	0.0	77.5	81.4
=	0.0	0.0	77.9	81.4
=	0.0	0.0	78.3	81.3
=	0.0	0.0	78.7	81.2
=	0.0	0.0	79.1	80.9
=	0.0	0.0	79.6	80.7
=	0.0	0.0	80.0	80.6
=	0.0	0.0	80.4	80.5
=	0.0	0.0	80.8	80.4
=	0.0	0.0	81.2	80.2
=	0.0	0.0	81.6	80.2
=	0.0	0.0	81.9	80.1
=	0.0	0.0	82.2	80.1
=	0.0	0.0	82.5	80.0
=	0.0	0.0	82.8	79.9
=	0.0	0.0	83.2	79.8
=	0.0	0.0	83.5	79.7
=	0.0	0.0	83.9	79.4
=	0.0	0.0	84.3	79.1
=	0.0	0.0	84.7	78.9
=	0.0	0.0	85.1	78.7
=	0.0	0.0	85.5	78.6
=	0.0	0.0	86.0	78.5
=	0.0	0.0	86.4	78.4
=	0.0	0.0	86.8	78.3
=	0.0	0.0	87.2	78.1
=	0.0	0.0	87.6	78.0
=	0.0	0.0	88.0	77.9
=	0.0	0.0	88.4	77.9
=	0.0	0.0	88.8	77.7
=	0.0	0.0	89.2	77.6
=	0.0	0.0	89.6	77.5
=	0.0	0.0	90.0	77.3
=	0.0	0.0	90.5	77.2
=	0.0	0.0	90.9	77.1
=	0.0	0.0	91.3	76.9
=	0.0	0.0	91.7	76.7
=	0.0	0.0	92.0	76.5
=	0.0	0.0	92.5	76.4
=	0.0	0.0	92.9	76.2
=	0.0	0.0	93.3	76.1
=	0.0	0.0	93.7	76.0
=	0.0	0.0	94.1	75.8
=	0.0	0.0	94.5	75.7
=	0.0	0.0	94.8	75.6
=	0.0	0.0	95.1	75.5
=	0.0	0.0	95.4	75.4
=	0.0	0.0	95.7	75.2
=	0.0	0.0	96.1	75.0
=	0.0	0.0	96.6	74.9
=	0.0	0.0	97.0	74.7
=	0.0	0.0	97.3	74.6
=	0.0	0.0	97.8	74.5
=	0.0	0.0	98.2	74.3
=	0.0	0.0	98.6	74.2
=	0.0	0.0	98.9	74.1
=	0.0	0.0	99.3	73.9
=	0.0	0.0	100.0	73.7
=	0.0	0.0	100.4	73.5
=	0.0	0.0	100.8	73.3
=	0.0	0.0	101.3	73.2
=	0.0	0.0	102.0	73.0
=	0.0	0.0	102.4	72.8
=	0.0	0.0	102.8	72.7
=	0.0	0.0	103.2	72.6
=	0.0	0.0	103.6	72.4
=	0.0	0.0	104.1	72.2
=	0.0	0.0	104.5	72.1
=	0.0	0.0	104.9	72.0
=	0.0	0.0	105.3	71.9
=	0.0	0.0	105.7	71.8
=	0.0	0.0	106.0	71.7
=	0.0	0.0	106.5	71.5
=	0.0	0.0	106.9	71.3
=	0.0	0.0	107.3	71.2
=	0.0	0.0	107.7	71.0
=	0.0	0.0	108.1	71.0
=	0.0	0.0	108.6	70.9
=	0.0	0.0	109.4	70.6
=	0.0	0.0	110.2	70.3
=	0.0	0.0	111.0	70.0
=	0.0	0.0	111.8	69.8
=	0.0	0.0	112.6	69.6
=	0.0	0.0	113.4	69.4
=	0.0	0.0	114.2	69.1
=	0.0	0.0	115.0	68.9
=	0.0	0.0	115.7	68.5
=	0.0	0.0	116.3	68.3
=	0.0	0.0	117.1	68.1
=	0.0	0.0	117.7	67.9
=	0.0	0.0	118.1	67.8
=	0.0	0.0	118.6	67.6
=	0.0	0.0	119.0	67.5
=	0.0	0.0	119.4	67.4
=	0.0	0.0	119.8	67.2
=	0.0	0.0	120.2	67.1
=	0.0	0.0	120.6	67.1
=	0.0	0.0	121.0	67.0
=	0.0	0.0	121.4	66.9
=	0.0	0.0	121.8	66.8
=	0.0	0.0	122.2	66.5
=	0.0	0.0	122.7	66.3
=	0.0	0.0	123.1	66.1
=	0.0	0.0	123.5	66.0
=	0.0	0.0	123.8	65.9
=	0.0	0.0	124.3	65.8
=	0.0	0.0	124.7	65.7
=	0.0	0.0	125.1	65.6
=	0.0	0.0	125.5	65.5
=	0.0	0.0	125.9	65.3
=	0.0	0.0	126.3	65.2
=	0.0	0.0	126.7	65.1
=	0.0	0.0	127.1	65.0
=	0.0	0.0	127.5	65.0
=	0.0	0.0	127.9	64.9
=	0.0	0.0	128.4	64.8
=	0.0	0.0	128.8	64.7
=	0.0	0.0	129.2	64.6
=	0.0	0.0	129.6	64.4
=	0.0	0.0	130.0	64.3
=	0.0	0.0	130.4	64.2
=	0.0	0.0	130.8	64.1
=	0.0	0.0	131.2	64.0
=	0.0	0.0	131.6	63.9
=	0.0	0.0	132.0	63.7
=	0.0	0.0	132.4	63.6
=	0.0	0.0	132.8	63.4
=	0.0	0.0	133.2	63.3
=	0.0	0.0	133.6	63.1
=	0.0	0.0	134.0	63.0
=	0.0	0.0	134.5	62.9
=	0.0	0.0	134.9	62.8
=	0.0	0.0	135.3	62.6
=	0.0	0.0	136.1	62.4
=	0.0	0.0	136.7	62.2
=	0.0	0.0	137.1	62.1
=	0.0	0.0	137.4	61.9
=	0.0	0.0	137.9	61.8
=	0.0	0.0	138.3	61.7
=	0.0	0.0	138.7	61.6
=	0.0	0.0	139.1	61.6
=	0.0	0.0	139.5	61.4
=	0.0	0.0	140.1	61.3
=	0.0	0.0	140.8	61.1
=	0.0	0.0	141.3	60.9
=	0.0	0.0	141.8	60.7
=	0.0	0.0	142.3	60.6
=	0.0	0.0	142.9	60.5
=	0.0	0.0	143.3	60.3
=	0.0	0.0	144.1	60.1
=	0.0	0.0	144.6	60.0
=	0.0	0.0	145.0	59.9
=	0.0	0.0	145.4	59.8
=	0.0	0.0	145.8	59.6
=	0.0	0.0	146.2	59.5
=	0.0	0.0	146.7	59.4
=	0.0	0.0	147.0	59.3
=	0.0	0.0	147.5	59.2
=	0.0	0.0	147.9	59.1
=	0.0	0.0	148.3	59.0
=	0.0	0.0	148.7	58.8
=	0.0	0.0	149.1	58.7
=	0.0	0.0	149.5	58.6
=	0.0	0.0	149.9	58.4
=	0.0	0.0	150.3	58.3
=	0.0	0.0	150.7	58.2
=	0.0	0.0	151.1	58.0
=	0.0	0.0	151.5	57.9
=	0.0	0.0	151.9	57.7
=	0.0	0.0	152.1	57.6
=	0.0	0.0	152.4	57.5
=	0.0	0.0	152.9	57.4
=	0.0	0.0	153.1	57.4
=	0.0	0.0	153.4	57.3
=	0.0	0.0	153.7	57.3
=	0.0	0.0	153.9	57.2
=	0.0	0.0	154.3	57.2
=	0.0	0.0	154.7	57.1
=	0.0	0.0	155.1	57.0
=	0.0	0.0	155.4	56.9
=	0.0	0.0	155.7	56.8
=	0.0	0.0	156.0	56.8
=	0.0	0.0	156.4	56.7
=	0.0	0.0	156.8	56.6
=	0.0	0.0	157.2	56.5
=	0.0	0.0	157.4	56.4
=	0.0	0.0	157.7	56.3
=	0.0	0.0	158.0	56.3
=	0.0	0.0	158.2	56.2
=	0.0	0.0	158.6	56.2
=	0.0	0.0	158.9	56.1
=	0.0	0.0	159.2	56.0
=	0.0	0.0	159.6	55.9
=	0.0	0.0	160.0	55.8
=	0.0	0.0	160.4	55.7
=	0.0	0.0	160.7	55.6
=	0.0	0.0	160.9	55.5
=	0.0	0.0	161.2	55.5
=	0.0	0.0	161.5	55.4
=	0.0	0.0	161.8	55.3
=	0.0	0.0	162.1	55.1
=	0.0	0.0	162.5	55.0
=	0.0	0.0	162.9	54.9
=	0.0	0.0	163.3	54.9
=	0.0	0.0	163.8	54.7
=	0.0	0.0	164.2	54.6
=	0.0	0.0	164.6	54.5
=	0.0	0.0	165.0	54.4
=	0.0	0.0	165.4	54.4
=	0.0	0.0	165.8	54.3
=	0.0	0.0	166.2	54.3
=	0.0	0.0	166.6	54.2
=	0.0	0.0	167.0	54.1
=	0.0	0.0	167.4	54.0
=	0.0	0.0	167.8	53.8
=	0.0	0.0	168.2	53.8
=	0.0	0.0	168.6	53.6
=	0.0	0.0	169.0	53.5
=	0.0	0.0	169.5	53.4
=	0.0	0.0	169.8	53.3
=	0.0	0.0	170.3	53.2
=	0.0	0.0	170.7	53.1
=	0.0	0.0	171.1	53.0
=	0.0	0.0	171.5	52.9
=	0.0	0.0	171.9	52.8
=	0.0	0.0	172.3	52.8
=	0.0	0.0	172.7	52.7
=	0.0	0.0	173.1	52.6
=	0.0	0.0	173.5	52.5
=	0.0	0.0	173.9	52.3
=	0.0	0.0	174.3	52.3
=	0.0	0.0	174.7	52.2
=	0.0	0.0	175.1	52.1
=	0.0	0.0	175.6	52.0
=	0.0	0.0	176.0	52.0
=	0.0	0.0	176.3	51.8
=	0.0	0.0	176.7	51.7
=	0.0	0.0	177.2	51.6
=	0.0	0.0	177.6	51.5
=	0.0	0.0	178.0	51.4
=	0.0	0.0	178.4	51.3
=	0.0	0.0	178.8	51.2
=	0.0	0.0	179.1	51.1
=	0.0	0.0	179.4	51.0
=	0.0	0.0	179.8	50.9
=	0.0	0.0	180.2	50.9
=	0.0	0.0	180.6	50.7
=	0.0	0.0	180.9	50.7
=	0.0	0.0	181.1	50.6
=	0.0	0.0	181.4	50.6
=	0.0	0.0	181.8	50.4
=	0.0	0.0	182.1	50.3
=	0.0	0.0	182.4	50.3
=	0.0	0.0	182.6	50.3
=	0.0	0.0	182.9	50.2
=	0.0	0.0	183.2	50.2
=	0.0	0.0	183.5	50.2
=	0.0	0.0	183.9	50.1
=	0.0	0.0	184.2	50.0
=	0.0	0.0	184.6	49.9
=	0.0	0.0	185.0	49.8
=	0.0	0.0	185.4	49.7
=	0.0	0.0	185.9	49.5
=	0.0	0.0	186.2	49.5
=	0.0	0.0	186.6	49.4
=	0.0	0.0	187.1	49.4
=	0.0	0.0	187.5	49.3
=	0.0	0.0	187.9	49.3
=	0.0	0.0	188.3	49.2
=	0.0	0.0	188.6	49.1
=	0.0	0.0	189.1	48.9
=	0.0	0.0	189.5	48.7
=	0.0	0.0	189.9	48.6
=	0.0	0.0	190.3	48.6
=	0.0	0.0	190.7	48.5
=	0.0	0.0	191.1	48.4
=	0.0	0.0	191.5	48.3
=	0.0	0.0	191.9	48.1
=	0.0	0.0	192.4	48.0
=	0.0	0.0	192.9	47.9
=	0.0	0.0	193.5	47.8
=	0.0	0.0	194.1	47.7
=	0.0	0.0	194.6	47.6
=	0.0	0.0	195.0	47.5
=	0.0	0.0	195.6	47.4
=	0.0	0.0	196.0	47.3
=	0.0	0.0	196.4	47.2
=	0.0	0.0	196.8	47.1
=	0.0	0.0	197.2	46.9
=	0.0	0.0	197.6	46.8
=	0.0	0.0	198.1	46.7
=	0.0	0.0	198.4	46.7
=	0.0	0.0	198.8	46.7
=	0.0	0.0	199.2	46.6
=	0.0	0.0	199.6	46.4
=	0.0	0.0	200.0	46.4
=	0.0	0.0	200.4	46.3
=	0.0	0.0	200.7	46.3
=	0.0	0.0	201.0	46.2
=	0.0	0.0	201.4	46.1
=	0.0	0.0	201.8	46.0
=	0.0	0.0	202.2	45.9
=	0.0	0.0	202.6	45.8
=	0.0	0.0	203.1	45.7
=	0.0	0.0	203.5	45.7
=	0.0	0.0	203.9	45.6
=	0.0	0.0	204.3	45.6
=	0.0	0.0	204.7	45.5
=	0.0	0.0	205.1	45.5
=	0.0	0.0	205.5	45.4
=	0.0	0.0	206.0	45.2
=	0.0	0.0	206.3	45.1
=	0.0	0.0	206.7	44.9
=	0.0	0.0	207.2	44.8
=	0.0	0.0	207.6	44.7
=	0.0	0.0	208.0	44.7
=	0.0	0.0	208.4	44.6
=	0.0	0.0	208.9	44.6
=	0.0	0.0	209.8	44.4
=	0.0	0.0	210.2	44.4
=	0.0	0.0	211.0	44.3
=	0.0	0.0	211.8	44.1
=	0.0	0.0	212.4	43.9
=	0.0	0.0	212.8	43.8
=	0.0	0.0	213.3	43.8
=	0.0	0.0	213.7	43.7
=	0.0	0.0	214.2	43.5
=	0.0	0.0	215.0	43.2
=	0.0	0.0	215.8	43.1
=	0.0	0.0	216.7	43.0
=	0.0	0.0	217.3	42.9
=	0.0	0.0	217.8	42.9
=	0.0	0.0	218.7	42.7
=	0.0	0.0	219.5	42.5
=	0.0	0.0	220.1	42.3
=	0.0	0.0	220.7	42.3
=	0.0	0.0	221.5	42.1
=	0.0	0.0	222.3	41.9
=	0.0	0.0	222.8	41.8
=	0.0	0.0	223.2	41.7
=	0.0	0.0	223.6	41.7
=	0.0	0.0	224.0	41.6
=	0.0	0.0	224.3	41.5
=	0.0	0.0	224.7	41.5
=	0.0	0.0	225.2	41.4
=	0.0	0.0	225.5	41.3
=	0.0	0.0	225.9	41.2
=	0.0	0.0	226.4	41.1
=	0.0	0.0	226.8	41.0
=	0.0	0.0	227.2	41.0
=	0.0	0.0	227.6	40.9
=	0.0	0.0	228.0	40.8
=	0.0	0.0	228.4	40.8
=	0.0	0.0	228.8	40.7
=	0.0	0.0	229.2	40.6
=	0.0	0.0	229.6	40.5
=	0.0	0.0	230.0	40.4
=	0.0	0.0	230.4	40.3
=	0.0	0.0	230.7	40.3
=	0.0	0.0	231.2	40.2
=	0.0	0.0	231.4	40.2
=	0.0	0.0	231.7	40.1
=	0.0	0.0	232.0	40.1
=	0.0	0.0	232.4	40.0
=	0.0	0.0	232.8	40.0
=	0.0	0.0	233.2	40.0
=	0.0	0.0	233.6	39.9
=	0.0	0.0	234.0	39.8
=	0.0	0.0	234.4	39.7
=	0.0	0.0	234.8	39.6
=	0.0	0.0	235.2	39.5
=	0.0	0.0	235.6	39.5
=	0.0	0.0	236.0	39.4
=	0.0	0.0	236.4	39.3
=	0.0	0.0	236.8	39.2
=	0.0	0.0	237.3	39.2
=	0.0	0.0	237.7	39.1
=	0.0	0.0	238.1	39.0
=	0.0	0.0	238.5	38.9
=	0.0	0.0	238.9	38.9
=	0.0	0.0	239.3	38.8
=	0.0	0.0	239.7	38.7
=	0.0	0.0	240.1	38.7
=	0.0	0.0	240.5	38.6
=	0.0	0.0	240.9	38.5
=	0.0	0.0	241.3	38.5
=	0.0	0.0	241.7	38.4
=	0.0	0.0	242.1	38.3
=	0.0	0.0	242.4	38.2
=	0.0	0.0	242.7	38.2
=	0.0	0.0	242.9	38.1
=	0.0	0.0	243.3	38.1
=	0.0	0.0	243.6	38.0
=	0.0	0.0	243.9	38.0
=	0.0	0.0	244.2	37.9
=	0.0	0.0	244.5	37.9
=	0.0	0.0	244.9	37.8
=	0.0	0.0	245.3	37.7
=	0.0	0.0	245.7	37.6
=	0.0	0.0	246.1	37.6
=	0.0	0.0	246.5	37.6
=	0.0	0.0	246.8	37.5
=	0.0	0.0	247.2	37.5
=	0.0	0.0	247.7	37.4
=	0.0	0.0	248.1	37.4
=	0.0	0.0	248.5	37.3
=	0.0	0.0	248.9	37.2
=	0.0	0.0	249.3	37.1
=	0.0	0.0	249.7	37.1
=	0.0	0.0	250.1	37.0
=	0.0	0.0	250.6	36.9
=	0.0	0.0	251.0	36.8
=	0.0	0.0	251.4	36.7
=	0.0	0.0	251.9	36.6
=	0.0	0.0	252.4	36.5
=	0.0	0.0	253.1	36.4
=	0.0	0.0	253.6	36.3
=	0.0	0.0	254.0	36.2
=	0.0	0.0	254.4	36.2
=	0.0	0.0	254.8	36.1
=	0.0	0.0	255.2	36.1
=	0.0	0.0	255.6	36.0
=	0.0	0.0	256.4	35.9
=	0.0	0.0	257.2	35.8
=	0.0	0.0	258.0	35.6
=	0.0	0.0	258.8	35.5
=	0.0	0.0	259.6	35.4
=	0.0	0.0	260.2	35.3
=	0.0	0.0	260.6	35.2
=	0.0	0.0	261.1	35.1
=	0.0	0.0	261.5	35.1
=	0.0	0.0	261.9	35.0
=	0.0	0.0	262.3	35.0
=	0.0	0.0	262.7	35.0
=	0.0	0.0	263.0	34.9
=	0.0	0.0	263.3	34.9
=	0.0	0.0	263.7	34.8
=	0.0	0.0	264.1	34.7
=	0.0	0.0	264.5	34.6
=	0.0	0.0	265.0	34.5
=	0.0	0.0	265.4	34.5
=	0.0	0.0	265.8	34.4
=	0.0	0.0	266.2	34.4
=	0.0	0.0	266.6	34.2
=	0.0	0.0	267.0	34.2
=	0.0	0.0	267.4	34.1
=	0.0	0.0	267.8	34.1
=	0.0	0.0	268.2	34.1
=	0.0	0.0	268.7	34.0
=	0.0	0.0	269.1	33.9
=	0.0	0.0	269.5	33.8
=	0.0	0.0	269.9	33.8
=	0.0	0.0	270.3	33.7
=	0.0	0.0	270.7	33.6
=	0.0	0.0	271.1	33.6
=	0.0	0.0	271.5	33.5
=	0.0	0.0	271.9	33.4
=	0.0	0.0	272.3	33.4
=	0.0	0.0	272.7	33.3
=	0.0	0.0	273.1	33.3
=	0.0	0.0	273.5	33.3
=	0.0	0.0	273.9	33.2
=	0.0	0.0	274.3	33.2
=	0.0	0.0	274.7	33.1
=	0.0	0.0	275.2	33.0
=	0.0	0.0	275.6	32.9
=	0.0	0.0	276.0	32.8
=	0.0	0.0	276.4	32.7
=	0.0	0.0	276.8	32.7
=	0.0	0.0	277.2	32.6
=	0.0	0.0	277.6	32.6
=	0.0	0.0	278.0	32.5
=	0.0	0.0	278.4	32.5
=	0.0	0.0	278.8	32.5
=	0.0	0.0	279.2	32.4
=	0.0	0.0	279.6	32.3
=	0.0	0.0	280.0	32.3
=	0.0	0.0	280.4	32.2
=	0.0	0.0	280.8	32.2
=	0.0	0.0	281.2	32.1
=	0.0	0.0	281.6	32.1
=	0.0	0.0	282.0	32.0
=	0.0	0.0	282.4	32.0
=	0.0	0.0	282.8	31.9
=	0.0	0.0	283.2	31.9
=	0.0	0.0	283.6	31.8
=	0.0	0.0	284.1	31.8
=	0.0	0.0	284.5	31.7
=	0.0	0.0	284.9	31.6
=	0.0	0.0	285.3	31.5
=	0.0	0.0	285.7	31.5
=	0.0	0.0	286.4	31.3
=	0.0	0.0	287.2	31.2
=	0.0	0.0	288.0	31.1
=	0.0	0.0	288.5	31.1
=	0.0	0.0	288.9	31.0
=	0.0	0.0	289.3	31.0
=	0.0	0.0	289.7	30.9
=	0.0	0.0	290.1	30.9
=	0.0	0.0	290.5	30.8
=	0.0	0.0	290.9	30.8
=	0.0	0.0	291.4	30.7
=	0.0	0.0	291.8	30.7
=	0.0	0.0	292.2	30.6
=	0.0	0.0	292.6	30.6
=	0.0	0.0	293.0	30.5
=	0.0	0.0	293.4	30.4
=	0.0	0.0	293.8	30.4
=	0.0	0.0	294.2	30.3
=	0.0	0.0	294.6	30.2
=	0.0	0.0	295.0	30.2
=	0.0	0.0	295.4	30.2
=	0.0	0.0	295.8	30.1
=	0.0	0.0	296.2	30.0
=	0.0	0.0	296.7	30.0
=	0.0	0.0	297.1	30.0
=	0.0	0.0	297.5	29.9
=	0.0	0.0	297.9	29.8
=	0.0	0.0	298.3	29.8
=	0.0	0.0	298.7	29.7
=	0.0	0.0	299.0	29.6
=	0.0	0.0	299.5	29.6
=	0.0	0.0	299.9	29.6
=	0.0	0.0	300.3	29.5
=	0.0	0.0	300.7	29.4
=	0.0	0.0	301.1	29.4
=	0.0	0.0	301.5	29.3
=	0.0	0.0	301.9	29.2
=	0.0	0.0	302.3	29.1
=	0.0	0.0	302.9	29.1
=	0.0	0.0	303.3	29.0
=	0.0	0.0	303.7	29.0
=	0.0	0.0	304.1	28.9
=	0.0	0.0	304.6	28.9
=	0.0	0.0	304.9	28.9
=	0.0	0.0	305.3	28.8
=	0.0	0.0	305.7	28.7
:EOM # End of Measurement
#
# RFA300 ASCII Measurement Dump ( BDS format )
#
# Measurement number 	2
#
%VNR 1.0
%MOD 	RAT
%TYP 	SCN
%SCN 	DPT
%FLD 	ION
%DAT 	09-29-2011
%TIM 	12:00:00
%FSZ 	100	100
%BMT 	PHO	   10.0
%SSD 	1200
%BUP 	0
%BRD 	1200
%FSH 	1
%ASC 	0
%WEG 	45
%GPO 	0
%CPO 	0
%MEA 	5
%PRD 	0,0
%PTS 	763
%STS 	    0.0	  0.0	   0.0 # Start Scan values in mm ( X , Y , Z )
%EDS 	    0.0	   0.0	   305.7 # End Scan values in mm ( X , Y , Z )
#
#	  X      Y      Z     Dose
#
=	0.0	0.0	0.0	32.9
=	0.0	0.0	0.1	33.3
=	0.0	0.0	0.5	34.7
=	0.0	0.0	0.9	36.4
=	0.0	0.0	1.3	38.4
=	0.0	0.0	1.6	40.3
=	0.0	0.0	1.9	42.5
=	0.0	0.0	2.1	44.7
=	0.0	0.0	2.5	48.2
=	0.0	0.0	2.9	51.7
=	0.0	0.0	3.3	54.9
=	0.0	0.0	3.7	58.2
=	0.0	0.0	4.1	61.3
=	0.0	0.0	4.5	64.0
=	0.0	0.0	5.0	66.7
=	0.0	0.0	5.4	69.0
=	0.0	0.0	5.8	71.2
=	0.0	0.0	6.2	73.4
=	0.0	0.0	6.6	75.3
=	0.0	0.0	7.0	76.9
=	0.0	0.0	7.4	78.7
=	0.0	0.0	7.8	80.3
=	0.0	0.0	8.2	81.7
=	0.0	0.0	8.6	83.0
=	0.0	0.0	9.0	84.2
=	0.0	0.0	9.4	85.4
=	0.0	0.0	9.8	86.7
=	0.0	0.0	10.2	87.9
=	0.0	0.0	10.6	88.8
=	0.0	0.0	11.0	89.6
=	0.0	0.0	11.4	90.5
=	0.0	0.0	11.8	91.4
=	0.0	0.0	12.2	92.1
=	0.0	0.0	12.7	92.9
=	0.0	0.0	13.1	93.4
=	0.0	0.0	13.5	94.0
=	0.0	0.0	13.9	94.7
=	0.0	0.0	14.3	95.0
=	0.0	0.0	14.5	95.4
=	0.0	0.0	14.9	95.8
=	0.0	0.0	15.3	96.3
=	0.0	0.0	15.6	96.6
=	0.0	0.0	15.9	96.8
=	0.0	0.0	16.3	97.3
=	0.0	0.0	16.7	97.6
=	0.0	0.0	17.1	97.8
=	0.0	0.0	17.5	98.1
=	0.0	0.0	18.0	98.5
=	0.0	0.0	18.3	98.7
=	0.0	0.0	18.7	98.9
=	0.0	0.0	19.1	99.1
=	0.0	0.0	19.4	99.2
=	0.0	0.0	19.8	99.4
=	0.0	0.0	20.1	99.5
=	0.0	0.0	20.5	99.6
=	0.0	0.0	20.9	99.7
=	0.0	0.0	21.1	99.8
=	0.0	0.0	21.4	99.9
=	0.0	0.0	21.8	99.9
=	0.0	0.0	22.2	99.9
=	0.0	0.0	22.6	100.0
=	0.0	0.0	23.0	100.0
=	0.0	0.0	23.3	100.0
=	0.0	0.0	23.6	100.0
=	0.0	0.0	24.0	100.0
=	0.0	0.0	24.3	100.0
=	0.0	0.0	24.7	100.0
=	0.0	0.0	24.9	100.0
=	0.0	0.0	25.3	100.0
=	0.0	0.0	25.7	99.9
=	0.0	0.0	26.1	99.9
=	0.0	0.0	26.6	99.9
=	0.0	0.0	27.0	99.8
=	0.0	0.0	27.4	99.8
=	0.0	0.0	27.8	99.8
=	0.0	0.0	28.1	99.7
=	0.0	0.0	28.4	99.7
=	0.0	0.0	28.7	99.7
=	0.0	0.0	29.0	99.6
=	0.0	0.0	29.2	99.6
=	0.0	0.0	29.5	99.6
=	0.0	0.0	30.0	99.5
=	0.0	0.0	30.3	99.5
=	0.0	0.0	30.6	99.4
=	0.0	0.0	30.8	99.4
=	0.0	0.0	31.1	99.3
=	0.0	0.0	31.4	99.2
=	0.0	0.0	31.6	99.1
=	0.0	0.0	31.9	99.1
=	0.0	0.0	32.4	99.0
=	0.0	0.0	32.7	98.8
=	0.0	0.0	33.1	98.7
=	0.0	0.0	33.4	98.6
=	0.0	0.0	33.8	98.4
=	0.0	0.0	34.0	98.3
=	0.0	0.0	34.4	98.2
=	0.0	0.0	34.8	98.2
=	0.0	0.0	35.2	98.1
=	0.0	0.0	35.6	97.9
=	0.0	0.0	35.9	97.8
=	0.0	0.0	36.2	97.7
=	0.0	0.0	36.6	97.7
=	0.0	0.0	37.0	97.5
=	0.0	0.0	37.4	97.2
=	0.0	0.0	37.7	97.2
=	0.0	0.0	38.0	97.1
=	0.0	0.0	38.2	97.1
=	0.0	0.0	38.6	96.9
=	0.0	0.0	39.0	96.8
=	0.0	0.0	39.4	96.6
=	0.0	0.0	39.8	96.6
=	0.0	0.0	40.1	96.5
=	0.0	0.0	40.4	96.4
=	0.0	0.0	40.8	96.3
=	0.0	0.0	41.2	96.2
=	0.0	0.0	41.7	95.8
=	0.0	0.0	42.0	95.7
=	0.0	0.0	42.3	95.6
=	0.0	0.0	42.6	95.5
=	0.0	0.0	43.0	95.4
=	0.0	0.0	43.4	95.3
=	0.0	0.0	43.8	95.2
=	0.0	0.0	44.0	95.1
=	0.0	0.0	44.3	95.1
=	0.0	0.0	44.6	94.9
=	0.0	0.0	45.0	94.6
=	0.0	0.0	45.5	94.5
=	0.0	0.0	46.0	94.4
=	0.0	0.0	46.3	94.3
=	0.0	0.0	46.7	94.2
=	0.0	0.0	47.1	94.1
=	0.0	0.0	47.8	93.8
=	0.0	0.0	48.4	93.6
=	0.0	0.0	49.0	93.4
=	0.0	0.0	49.6	93.1
=	0.0	0.0	50.0	93.0
=	0.0	0.0	50.4	92.9
=	0.0	0.0	50.8	92.6
=	0.0	0.0	51.3	92.5
=	0.0	0.0	51.7	92.4
=	0.0	0.0	52.1	92.3
=	0.0	0.0	52.5	92.2
=	0.0	0.0	52.9	92.1
=	0.0	0.0	53.1	92.0
=	0.0	0.0	53.5	91.9
=	0.0	0.0	53.9	91.7
=	0.0	0.0	54.3	91.6
=	0.0	0.0	54.7	91.4
=	0.0	0.0	55.1	91.1
=	0.0	0.0	55.5	91.0
=	0.0	0.0	55.9	90.9
=	0.0	0.0	56.4	90.9
=	0.0	0.0	56.8	90.7
=	0.0	0.0	57.2	90.5
=	0.0	0.0	57.6	90.4
=	0.0	0.0	58.0	90.2
=	0.0	0.0	58.4	90.0
=	0.0	0.0	58.8	89.9
=	0.0	0.0	59.2	89.7
=	0.0	0.0	59.6	89.6
=	0.0	0.0	60.0	89.4
=	0.0	0.0	60.4	89.2
=	0.0	0.0	60.8	89.1
=	0.0	0.0	61.2	88.9
=	0.0	0.0	61.6	88.9
=	0.0	0.0	62.0	88.8
=	0.0	0.0	62.5	88.7
=	0.0	0.0	62.9	88.6
=	0.0	0.0	63.3	88.6
=	0.0	0.0	63.7	88.4
=	0.0	0.0	64.1	88.2
=	0.0	0.0	64.4	88.1
=	0.0	0.0	64.7	87.9
=	0.0	0.0	64.9	87.8
=	0.0	0.0	65.3	87.7
=	0.0	0.0	65.7	87.4
=	0.0	0.0	66.0	87.4
=	0.0	0.0	66.3	87.3
=	0.0	0.0	66.6	87.3
=	0.0	0.0	66.8	87.2
=	0.0	0.0	67.1	87.2
=	0.0	0.0	67.5	87.0
=	0.0	0.0	67.9	86.9
=	0.0	0.0	68.3	86.7
=	0.0	0.0	68.7	86.5
=	0.0	0.0	69.1	86.4
=	0.0	0.0	69.5	86.3
=	0.0	0.0	69.9	86.2
=	0.0	0.0	70.3	86.1
=	0.0	0.0	70.8	86.0
=	0.0	0.0	71.1	85.8
=	0.0	0.0	71.6	85.6
=	0.0	0.0	71.9	85.5
=	0.0	0.0	72.4	85.4
=	0.0	0.0	72.8	85.1
=	0.0	0.0	73.2	85.0
=	0.0	0.0	73.6	85.0
=	0.0	0.0	74.0	84.9
=	0.0	0.0	74.4	84.8
=	0.0	0.0	74.8	84.7
=	0.0	0.0	75.2	84.5
=	0.0	0.0	75.6	84.3
=	0.0	0.0	76.0	84.2
=	0.0	0.0	76.4	84.1
=	0.0	0.0	76.8	83.9
=	0.0	0.0	77.3	83.8
=	0.0	0.0	77.7	83.6
=	0.0	0.0	78.1	83.6
=	0.0	0.0	78.5	83.5
=	0.0	0.0	78.9	83.3
=	0.0	0.0	79.3	83.2
=	0.0	0.0	79.7	83.0
=	0.0	0.0	80.1	82.9
=	0.0	0.0	80.5	82.8
=	0.0	0.0	80.9	82.6
=	0.0	0.0	81.4	82.5
=	0.0	0.0	81.8	82.4
=	0.0	0.0	82.2	82.2
=	0.0	0.0	82.6	82.1
=	0.0	0.0	83.0	81.9
=	0.0	0.0	83.4	81.8
=	0.0	0.0	83.8	81.7
=	0.0	0.0	84.2	81.6
=	0.0	0.0	84.6	81.4
=	0.0	0.0	84.9	81.4
=	0.0	0.0	85.2	81.3
=	0.0	0.0	85.5	81.3
=	0.0	0.0	85.8	81.2
=	0.0	0.0	86.2	81.0
=	0.0	0.0	86.5	80.9
=	0.0	0.0	86.9	80.6
=	0.0	0.0	87.3	80.5
=	0.0	0.0	87.6	80.4
=	0.0	0.0	88.0	80.2
=	0.0	0.0	88.4	80.1
=	0.0	0.0	88.9	80.0
=	0.0	0.0	89.3	79.9
=	0.0	0.0	89.7	79.8
=	0.0	0.0	90.1	79.7
=	0.0	0.0	90.5	79.6
=	0.0	0.0	90.9	79.5
=	0.0	0.0	91.2	79.3
=	0.0	0.0	91.5	79.2
=	0.0	0.0	91.9	79.1
=	0.0	0.0	92.3	79.0
=	0.0	0.0	92.7	78.9
=	0.0	0.0	92.9	78.9
=	0.0	0.0	93.3	78.8
=	0.0	0.0	93.7	78.6
=	0.0	0.0	94.1	78.5
=	0.0	0.0	94.5	78.4
=	0.0	0.0	94.9	78.2
=	0.0	0.0	95.3	78.1
=	0.0	0.0	95.7	78.0
=	0.0	0.0	96.1	77.8
=	0.0	0.0	96.6	77.6
=	0.0	0.0	96.9	77.5
=	0.0	0.0	97.3	77.4
=	0.0	0.0	97.8	77.3
=	0.0	0.0	98.2	77.2
=	0.0	0.0	98.6	77.1
=	0.0	0.0	98.9	77.0
=	0.0	0.0	99.2	76.9
=	0.0	0.0	99.5	76.7
=	0.0	0.0	99.8	76.7
=	0.0	0.0	100.0	76.6
=	0.0	0.0	100.4	76.5
=	0.0	0.0	100.8	76.4
=	0.0	0.0	101.2	76.3
=	0.0	0.0	101.6	76.2
=	0.0	0.0	102.0	76.0
=	0.0	0.0	102.4	75.9
=	0.0	0.0	102.8	75.7
=	0.0	0.0	103.2	75.6
=	0.0	0.0	103.6	75.5
=	0.0	0.0	104.0	75.4
=	0.0	0.0	104.4	75.3
=	0.0	0.0	104.8	75.1
=	0.0	0.0	105.2	74.9
=	0.0	0.0	105.7	74.8
=	0.0	0.0	106.1	74.7
=	0.0	0.0	106.5	74.6
=	0.0	0.0	106.9	74.5
=	0.0	0.0	107.3	74.3
=	0.0	0.0	107.7	74.3
=	0.0	0.0	108.1	74.1
=	0.0	0.0	108.5	74.0
=	0.0	0.0	108.9	73.9
=	0.0	0.0	109.3	73.7
=	0.0	0.0	109.7	73.6
=	0.0	0.0	110.1	73.5
=	0.0	0.0	110.5	73.4
=	0.0	0.0	110.9	73.3
=	0.0	0.0	111.3	73.2
=	0.0	0.0	111.7	73.1
=	0.0	0.0	112.2	73.0
=	0.0	0.0	112.5	72.8
=	0.0	0.0	113.0	72.7
=	0.0	0.0	113.5	72.6
=	0.0	0.0	114.1	72.3
=	0.0	0.0	114.5	72.2
=	0.0	0.0	114.9	72.1
=	0.0	0.0	115.4	72.0
=	0.0	0.0	115.7	71.9
=	0.0	0.0	116.1	71.8
=	0.0	0.0	116.6	71.7
=	0.0	0.0	117.0	71.5
=	0.0	0.0	117.4	71.4
=	0.0	0.0	117.8	71.3
=	0.0	0.0	118.2	71.2
=	0.0	0.0	118.6	71.1
=	0.0	0.0	119.0	71.1
=	0.0	0.0	119.5	70.9
=	0.0	0.0	119.9	70.8
=	0.0	0.0	120.3	70.7
=	0.0	0.0	120.7	70.6
=	0.0	0.0	121.1	70.5
=	0.0	0.0	121.9	70.2
=	0.0	0.0	122.7	70.0
=	0.0	0.0	123.3	69.8
=	0.0	0.0	123.7	69.7
=	0.0	0.0	124.1	69.6
=	0.0	0.0	124.5	69.6
=	0.0	0.0	124.9	69.5
=	0.0	0.0	125.4	69.2
=	0.0	0.0	125.9	69.1
=	0.0	0.0	126.8	68.8
=	0.0	0.0	127.2	68.7
=	0.0	0.0	128.0	68.5
=	0.0	0.0	128.6	68.2
=	0.0	0.0	129.2	68.0
=	0.0	0.0	130.0	67.8
=	0.0	0.0	130.8	67.7
=	0.0	0.0	131.3	67.6
=	0.0	0.0	131.7	67.4
=	0.0	0.0	132.3	67.2
=	0.0	0.0	132.7	67.1
=	0.0	0.0	133.1	67.0
=	0.0	0.0	133.5	66.9
=	0.0	0.0	133.9	66.8
=	0.0	0.0	134.3	66.7
=	0.0	0.0	134.7	66.6
=	0.0	0.0	135.1	66.5
=	0.0	0.0	135.5	66.4
=	0.0	0.0	135.8	66.4
=	0.0	0.0	136.1	66.2
=	0.0	0.0	136.4	66.1
=	0.0	0.0	136.7	66.1
=	0.0	0.0	137.0	66.0
=	0.0	0.0	137.4	65.9
=	0.0	0.0	137.8	65.7
=	0.0	0.0	138.3	65.6
=	0.0	0.0	138.6	65.5
=	0.0	0.0	138.8	65.4
=	0.0	0.0	139.1	65.3
=	0.0	0.0	139.5	65.3
=	0.0	0.0	139.9	65.2
=	0.0	0.0	140.3	65.0
=	0.0	0.0	140.7	64.9
=	0.0	0.0	141.1	64.8
=	0.0	0.0	141.5	64.7
=	0.0	0.0	141.9	64.6
=	0.0	0.0	142.3	64.5
=	0.0	0.0	142.7	64.4
=	0.0	0.0	143.1	64.3
=	0.0	0.0	143.5	64.2
=	0.0	0.0	143.9	64.1
=	0.0	0.0	144.5	63.8
=	0.0	0.0	144.9	63.7
=	0.0	0.0	145.3	63.6
=	0.0	0.0	145.7	63.5
=	0.0	0.0	146.2	63.4
=	0.0	0.0	146.6	63.3
=	0.0	0.0	147.0	63.2
=	0.0	0.0	147.4	63.1
=	0.0	0.0	147.8	63.0
=	0.0	0.0	148.2	62.8
=	0.0	0.0	148.6	62.7
=	0.0	0.0	149.0	62.7
=	0.0	0.0	149.4	62.6
=	0.0	0.0	149.8	62.5
=	0.0	0.0	150.2	62.4
=	0.0	0.0	150.7	62.2
=	0.0	0.0	151.1	62.1
=	0.0	0.0	151.5	62.0
=	0.0	0.0	151.9	61.9
=	0.0	0.0	152.3	61.8
=	0.0	0.0	152.7	61.7
=	0.0	0.0	153.1	61.6
=	0.0	0.0	153.5	61.5
=	0.0	0.0	154.0	61.4
=	0.0	0.0	154.4	61.4
=	0.0	0.0	154.8	61.2
=	0.0	0.0	155.2	61.1
=	0.0	0.0	155.5	61.1
=	0.0	0.0	155.8	60.9
=	0.0	0.0	156.2	60.8
=	0.0	0.0	156.4	60.7
=	0.0	0.0	156.8	60.7
=	0.0	0.0	157.1	60.7
=	0.0	0.0	157.4	60.6
=	0.0	0.0	157.8	60.5
=	0.0	0.0	158.2	60.5
=	0.0	0.0	158.4	60.4
=	0.0	0.0	158.7	60.4
=	0.0	0.0	159.0	60.3
=	0.0	0.0	159.5	60.1
=	0.0	0.0	159.9	59.9
=	0.0	0.0	160.3	59.8
=	0.0	0.0	160.7	59.7
=	0.0	0.0	161.1	59.6
=	0.0	0.0	161.5	59.5
=	0.0	0.0	161.9	59.4
=	0.0	0.0	162.3	59.4
=	0.0	0.0	162.7	59.2
=	0.0	0.0	163.3	59.0
=	0.0	0.0	163.8	58.9
=	0.0	0.0	164.5	58.7
=	0.0	0.0	165.3	58.5
=	0.0	0.0	166.1	58.4
=	0.0	0.0	166.6	58.2
=	0.0	0.0	167.0	58.1
=	0.0	0.0	167.4	58.0
=	0.0	0.0	167.8	58.0
=	0.0	0.0	168.2	57.9
=	0.0	0.0	168.7	57.8
=	0.0	0.0	169.1	57.7
=	0.0	0.0	169.5	57.6
=	0.0	0.0	169.9	57.5
=	0.0	0.0	170.3	57.4
=	0.0	0.0	170.7	57.3
=	0.0	0.0	171.1	57.2
=	0.0	0.0	171.5	57.2
=	0.0	0.0	171.9	57.0
=	0.0	0.0	172.3	56.9
=	0.0	0.0	172.7	56.8
=	0.0	0.0	173.5	56.6
=	0.0	0.0	174.3	56.4
=	0.0	0.0	175.0	56.2
=	0.0	0.0	175.4	56.1
=	0.0	0.0	175.8	56.0
=	0.0	0.0	176.2	56.0
=	0.0	0.0	176.6	55.9
=	0.0	0.0	177.1	55.8
=	0.0	0.0	177.5	55.7
=	0.0	0.0	177.9	55.7
=	0.0	0.0	178.3	55.6
=	0.0	0.0	178.7	55.5
=	0.0	0.0	179.1	55.3
=	0.0	0.0	179.5	55.2
=	0.0	0.0	179.9	55.1
=	0.0	0.0	180.2	55.0
=	0.0	0.0	180.7	54.9
=	0.0	0.0	181.1	54.8
=	0.0	0.0	181.5	54.8
=	0.0	0.0	181.9	54.7
=	0.0	0.0	182.3	54.6
=	0.0	0.0	182.7	54.5
=	0.0	0.0	183.1	54.4
=	0.0	0.0	183.5	54.3
=	0.0	0.0	183.7	54.2
=	0.0	0.0	184.0	54.1
=	0.0	0.0	184.3	54.1
=	0.0	0.0	184.7	54.0
=	0.0	0.0	185.1	53.9
=	0.0	0.0	185.5	53.8
=	0.0	0.0	185.7	53.7
=	0.0	0.0	186.0	53.7
=	0.0	0.0	186.3	53.6
=	0.0	0.0	186.5	53.6
=	0.0	0.0	186.8	53.5
=	0.0	0.0	187.1	53.5
=	0.0	0.0	187.4	53.4
=	0.0	0.0	187.6	53.3
=	0.0	0.0	187.9	53.3
=	0.0	0.0	188.3	53.2
=	0.0	0.0	188.6	53.2
=	0.0	0.0	188.8	53.1
=	0.0	0.0	189.1	52.9
=	0.0	0.0	189.5	52.8
=	0.0	0.0	189.9	52.8
=	0.0	0.0	190.4	52.7
=	0.0	0.0	190.8	52.6
=	0.0	0.0	191.2	52.5
=	0.0	0.0	191.6	52.4
=	0.0	0.0	192.0	52.3
=	0.0	0.0	192.2	52.2
=	0.0	0.0	192.6	52.2
=	0.0	0.0	193.0	52.1
=	0.0	0.0	193.4	52.0
=	0.0	0.0	193.8	51.9
=	0.0	0.0	194.2	51.8
=	0.0	0.0	194.6	51.7
=	0.0	0.0	195.0	51.7
=	0.0	0.0	195.4	51.6
=	0.0	0.0	195.7	51.6
=	0.0	0.0	196.0	51.4
=	0.0	0.0	196.4	51.3
=	0.0	0.0	196.9	51.2
=	0.0	0.0	197.3	51.1
=	0.0	0.0	197.7	51.0
=	0.0	0.0	198.1	51.0
=	0.0	0.0	198.5	50.9
=	0.0	0.0	198.9	50.8
=	0.0	0.0	199.3	50.7
=	0.0	0.0	199.9	50.6
=	0.0	0.0	200.3	50.5
=	0.0	0.0	200.7	50.4
=	0.0	0.0	201.1	50.3
=	0.0	0.0	201.5	50.2
=	0.0	0.0	201.9	50.1
=	0.0	0.0	202.3	50.0
=	0.0	0.0	202.7	49.9
=	0.0	0.0	203.1	49.8
=	0.0	0.0	203.5	49.8
=	0.0	0.0	204.1	49.7
=	0.0	0.0	204.5	49.7
=	0.0	0.0	204.9	49.6
=	0.0	0.0	205.4	49.5
=	0.0	0.0	205.7	49.4
=	0.0	0.0	206.1	49.4
=	0.0	0.0	206.5	49.3
=	0.0	0.0	206.9	49.2
=	0.0	0.0	207.3	49.0
=	0.0	0.0	207.7	48.9
=	0.0	0.0	208.2	48.8
=	0.0	0.0	208.6	48.8
=	0.0	0.0	209.0	48.7
=	0.0	0.0	209.4	48.7
=	0.0	0.0	209.8	48.6
=	0.0	0.0	210.2	48.5
=	0.0	0.0	210.6	48.4
=	0.0	0.0	211.0	48.3
=	0.0	0.0	211.5	48.3
=	0.0	0.0	212.2	48.1
=	0.0	0.0	212.6	48.0
=	0.0	0.0	213.0	47.9
=	0.0	0.0	213.5	47.8
=	0.0	0.0	214.3	47.6
=	0.0	0.0	214.8	47.5
=	0.0	0.0	215.2	47.3
=	0.0	0.0	215.6	47.2
=	0.0	0.0	216.0	47.1
=	0.0	0.0	216.4	47.1
=	0.0	0.0	216.8	47.0
=	0.0	0.0	217.2	46.9
=	0.0	0.0	217.6	46.8
=	0.0	0.0	218.2	46.7
=	0.0	0.0	218.6	46.7
=	0.0	0.0	219.0	46.6
=	0.0	0.0	219.5	46.5
=	0.0	0.0	219.9	46.5
=	0.0	0.0	220.3	46.4
=	0.0	0.0	220.7	46.3
=	0.0	0.0	221.0	46.3
=	0.0	0.0	221.5	46.1
=	0.0	0.0	221.9	46.1
=	0.0	0.0	222.3	46.0
=	0.0	0.0	222.7	45.9
=	0.0	0.0	223.1	45.8
=	0.0	0.0	223.5	45.7
=	0.0	0.0	224.0	45.6
=	0.0	0.0	224.4	45.5
=	0.0	0.0	224.8	45.4
=	0.0	0.0	225.2	45.3
=	0.0	0.0	225.6	45.3
=	0.0	0.0	226.0	45.2
=	0.0	0.0	226.4	45.1
=	0.0	0.0	226.8	45.1
=	0.0	0.0	227.2	45.0
=	0.0	0.0	227.6	45.0
=	0.0	0.0	228.0	44.9
=	0.0	0.0	228.4	44.9
=	0.0	0.0	228.8	44.8
=	0.0	0.0	229.2	44.6
=	0.0	0.0	229.6	44.6
=	0.0	0.0	230.0	44.5
=	0.0	0.0	230.4	44.5
=	0.0	0.0	230.9	44.4
=	0.0	0.0	231.3	44.3
=	0.0	0.0	231.7	44.2
=	0.0	0.0	232.1	44.2
=	0.0	0.0	232.5	44.1
=	0.0	0.0	232.9	44.1
=	0.0	0.0	233.3	44.0
=	0.0	0.0	233.7	43.9
=	0.0	0.0	234.1	43.9
=	0.0	0.0	234.5	43.7
=	0.0	0.0	234.9	43.7
=	0.0	0.0	235.3	43.6
=	0.0	0.0	235.7	43.5
=	0.0	0.0	236.1	43.4
=	0.0	0.0	236.5	43.4
=	0.0	0.0	237.0	43.2
=	0.0	0.0	237.4	43.2
=	0.0	0.0	237.8	43.1
=	0.0	0.0	238.2	43.0
=	0.0	0.0	238.6	42.9
=	0.0	0.0	239.0	42.9
=	0.0	0.0	239.4	42.8
=	0.0	0.0	239.8	42.7
=	0.0	0.0	240.2	42.7
=	0.0	0.0	240.6	42.6
=	0.0	0.0	241.0	42.5
=	0.0	0.0	241.6	42.4
=	0.0	0.0	242.0	42.3
=	0.0	0.0	242.4	42.3
=	0.0	0.0	243.0	42.2
=	0.0	0.0	243.4	42.1
=	0.0	0.0	243.8	42.1
=	0.0	0.0	244.2	42.1
=	0.0	0.0	244.6	42.0
=	0.0	0.0	245.1	41.9
=	0.0	0.0	245.5	41.8
=	0.0	0.0	245.9	41.7
=	0.0	0.0	246.2	41.6
=	0.0	0.0	246.6	41.6
=	0.0	0.0	247.1	41.5
=	0.0	0.0	247.5	41.4
=	0.0	0.0	247.9	41.3
=	0.0	0.0	248.3	41.2
=	0.0	0.0	248.6	41.2
=	0.0	0.0	248.8	41.1
=	0.0	0.0	249.1	41.1
=	0.0	0.0	249.4	41.0
=	0.0	0.0	249.7	41.0
=	0.0	0.0	250.0	41.0
=	0.0	0.0	250.2	40.9
=	0.0	0.0	250.6	40.8
=	0.0	0.0	251.0	40.7
=	0.0	0.0	251.4	40.7
=	0.0	0.0	251.9	40.6
=	0.0	0.0	252.3	40.6
=	0.0	0.0	252.7	40.5
=	0.0	0.0	253.1	40.4
=	0.0	0.0	253.5	40.3
=	0.0	0.0	253.9	40.2
=	0.0	0.0	254.3	40.2
=	0.0	0.0	254.7	40.1
=	0.0	0.0	255.1	40.1
=	0.0	0.0	255.5	40.0
=	0.0	0.0	255.9	39.9
=	0.0	0.0	256.3	39.8
=	0.0	0.0	256.7	39.7
=	0.0	0.0	257.1	39.7
=	0.0	0.0	257.5	39.6
=	0.0	0.0	257.9	39.5
=	0.0	0.0	258.2	39.4
=	0.0	0.0	258.6	39.4
=	0.0	0.0	259.0	39.3
=	0.0	0.0	259.3	39.3
=	0.0	0.0	259.6	39.3
=	0.0	0.0	260.0	39.2
=	0.0	0.0	260.4	39.2
=	0.0	0.0	260.8	39.1
=	0.0	0.0	261.0	39.1
=	0.0	0.0	261.3	39.0
=	0.0	0.0	261.7	38.9
=	0.0	0.0	262.1	38.9
=	0.0	0.0	262.5	38.8
=	0.0	0.0	262.9	38.7
=	0.0	0.0	263.3	38.7
=	0.0	0.0	263.7	38.6
=	0.0	0.0	264.1	38.5
=	0.0	0.0	264.5	38.5
=	0.0	0.0	264.9	38.4
=	0.0	0.0	265.3	38.3
=	0.0	0.0	265.7	38.3
=	0.0	0.0	266.1	38.2
=	0.0	0.0	266.5	38.1
=	0.0	0.0	266.9	38.1
=	0.0	0.0	267.4	37.9
=	0.0	0.0	267.8	37.9
=	0.0	0.0	268.2	37.8
=	0.0	0.0	268.6	37.8
=	0.0	0.0	269.4	37.7
=	0.0	0.0	270.2	37.6
