:MSR 	4	 # No. of measurement in file
:SYS BDS 0   # Beam Data Scanner System
#
# RFA300 ASCII Measurement Dump ( BDS format )
#
# Measurement number 	1
#
%VNR 1.0
%MOD 	RAT
%TYP 	SCN
%SCN 	DPT
%FLD 	ION
%DAT 	09-23-2011
%TIM 	12:00:00
%FSZ 	040	040
%BMT 	PHO	   10.0
%SSD 	1000
%BUP 	0
%BRD 	1000
%FSH 	1
%ASC 	0
%WEG 	45
%GPO 	0
%CPO 	0
%MEA 	5
%PRD 	0,0
%PTS 	740
%STS 	    0.0	  0.0	   0.0 # Start Scan values in mm ( X , Y , Z )
%EDS 	    0.0	   0.0	   347.6 # End Scan values in mm ( X , Y , Z )
#
#	  X      Y      Z     Dose
#
=	0.0	0.0	0.0	27.1
=	0.0	0.0	0.1	27.6
=	0.0	0.0	0.6	29.4
=	0.0	0.0	1.1	31.6
=	0.0	0.0	1.5	34.2
=	0.0	0.0	2.0	38.4
=	0.0	0.0	2.5	42.5
=	0.0	0.0	2.9	46.3
=	0.0	0.0	3.4	50.4
=	0.0	0.0	3.8	54.1
=	0.0	0.0	4.1	56.4
=	0.0	0.0	4.4	58.8
=	0.0	0.0	4.8	61.6
=	0.0	0.0	5.1	63.8
=	0.0	0.0	5.6	67.0
=	0.0	0.0	6.1	69.8
=	0.0	0.0	6.5	72.0
=	0.0	0.0	6.9	73.7
=	0.0	0.0	7.3	75.9
=	0.0	0.0	7.8	78.1
=	0.0	0.0	8.2	79.4
=	0.0	0.0	8.6	81.2
=	0.0	0.0	9.0	82.6
=	0.0	0.0	9.5	84.0
=	0.0	0.0	9.9	85.4
=	0.0	0.0	10.3	86.7
=	0.0	0.0	10.9	88.1
=	0.0	0.0	11.5	89.4
=	0.0	0.0	11.9	90.8
=	0.0	0.0	12.3	91.5
=	0.0	0.0	12.7	92.2
=	0.0	0.0	13.2	93.0
=	0.0	0.0	13.7	93.8
=	0.0	0.0	14.1	94.4
=	0.0	0.0	14.5	94.9
=	0.0	0.0	14.8	95.4
=	0.0	0.0	15.3	96.2
=	0.0	0.0	15.8	96.5
=	0.0	0.0	16.2	96.8
=	0.0	0.0	16.6	97.1
=	0.0	0.0	17.0	97.5
=	0.0	0.0	17.4	97.9
=	0.0	0.0	17.9	98.2
=	0.0	0.0	18.4	98.6
=	0.0	0.0	18.8	98.9
=	0.0	0.0	19.3	99.1
=	0.0	0.0	19.7	99.2
=	0.0	0.0	20.1	99.4
=	0.0	0.0	20.5	99.5
=	0.0	0.0	20.9	99.7
=	0.0	0.0	21.3	99.7
=	0.0	0.0	21.8	99.8
=	0.0	0.0	22.3	99.9
=	0.0	0.0	22.7	100.0
=	0.0	0.0	23.1	100.0
=	0.0	0.0	23.5	100.0
=	0.0	0.0	23.8	100.0
=	0.0	0.0	24.4	100.0
=	0.0	0.0	24.9	100.0
=	0.0	0.0	25.3	100.0
=	0.0	0.0	25.6	100.0
=	0.0	0.0	26.2	99.9
=	0.0	0.0	26.6	99.8
=	0.0	0.0	27.2	99.7
=	0.0	0.0	27.8	99.6
=	0.0	0.0	28.3	99.5
=	0.0	0.0	28.8	99.4
=	0.0	0.0	29.3	99.3
=	0.0	0.0	29.7	99.2
=	0.0	0.0	30.1	99.1
=	0.0	0.0	30.6	99.0
=	0.0	0.0	30.9	98.9
=	0.0	0.0	31.3	98.7
=	0.0	0.0	31.8	98.5
=	0.0	0.0	32.3	98.3
=	0.0	0.0	32.8	98.2
=	0.0	0.0	33.3	98.0
=	0.0	0.0	33.9	97.8
=	0.0	0.0	34.5	97.6
=	0.0	0.0	34.9	97.5
=	0.0	0.0	35.4	97.3
=	0.0	0.0	36.0	97.1
=	0.0	0.0	36.4	96.9
=	0.0	0.0	37.0	96.7
=	0.0	0.0	37.5	96.5
=	0.0	0.0	38.0	96.3
=	0.0	0.0	38.5	96.1
=	0.0	0.0	39.0	95.7
=	0.0	0.0	39.4	95.5
=	0.0	0.0	39.8	95.4
=	0.0	0.0	40.1	95.3
=	0.0	0.0	40.6	95.1
=	0.0	0.0	41.1	94.9
=	0.0	0.0	41.4	94.7
=	0.0	0.0	41.9	94.5
=	0.0	0.0	42.5	94.2
=	0.0	0.0	43.1	94.0
=	0.0	0.0	43.5	93.7
=	0.0	0.0	43.9	93.6
=	0.0	0.0	44.3	93.4
=	0.0	0.0	44.7	93.2
=	0.0	0.0	45.1	93.1
=	0.0	0.0	45.6	92.9
=	0.0	0.0	46.1	92.8
=	0.0	0.0	46.6	92.6
=	0.0	0.0	46.9	92.3
=	0.0	0.0	47.3	92.2
=	0.0	0.0	47.8	92.0
=	0.0	0.0	48.4	91.8
=	0.0	0.0	48.8	91.7
=	0.0	0.0	49.1	91.5
=	0.0	0.0	49.5	91.3
=	0.0	0.0	49.9	91.1
=	0.0	0.0	50.3	91.0
=	0.0	0.0	50.7	90.8
=	0.0	0.0	51.1	90.7
=	0.0	0.0	51.7	90.5
=	0.0	0.0	52.2	90.3
=	0.0	0.0	52.6	90.1
=	0.0	0.0	53.1	89.9
=	0.0	0.0	53.5	89.7
=	0.0	0.0	54.0	89.4
=	0.0	0.0	54.4	89.2
=	0.0	0.0	55.0	89.0
=	0.0	0.0	55.7	88.8
=	0.0	0.0	56.3	88.5
=	0.0	0.0	56.7	88.3
=	0.0	0.0	57.3	87.9
=	0.0	0.0	57.9	87.7
=	0.0	0.0	58.4	87.6
=	0.0	0.0	59.0	87.4
=	0.0	0.0	59.4	87.2
=	0.0	0.0	59.8	86.9
=	0.0	0.0	60.2	86.7
=	0.0	0.0	60.7	86.5
=	0.0	0.0	61.1	86.3
=	0.0	0.0	61.5	86.2
=	0.0	0.0	61.9	86.1
=	0.0	0.0	62.4	85.9
=	0.0	0.0	62.8	85.7
=	0.0	0.0	63.2	85.6
=	0.0	0.0	63.6	85.4
=	0.0	0.0	64.0	85.3
=	0.0	0.0	64.4	85.1
=	0.0	0.0	64.8	84.9
=	0.0	0.0	65.2	84.7
=	0.0	0.0	65.6	84.6
=	0.0	0.0	66.0	84.4
=	0.0	0.0	66.5	84.1
=	0.0	0.0	67.0	83.9
=	0.0	0.0	67.5	83.7
=	0.0	0.0	67.9	83.5
=	0.0	0.0	68.4	83.3
=	0.0	0.0	68.8	83.2
=	0.0	0.0	69.2	83.1
=	0.0	0.0	69.6	83.0
=	0.0	0.0	70.1	82.8
=	0.0	0.0	70.5	82.6
=	0.0	0.0	70.9	82.5
=	0.0	0.0	71.3	82.4
=	0.0	0.0	71.7	82.2
=	0.0	0.0	72.1	82.1
=	0.0	0.0	72.6	81.9
=	0.0	0.0	73.1	81.5
=	0.0	0.0	73.5	81.4
=	0.0	0.0	73.9	81.2
=	0.0	0.0	74.4	81.0
=	0.0	0.0	74.8	80.8
=	0.0	0.0	75.3	80.6
=	0.0	0.0	75.9	80.4
=	0.0	0.0	76.3	80.2
=	0.0	0.0	76.7	80.1
=	0.0	0.0	77.1	80.0
=	0.0	0.0	77.6	79.8
=	0.0	0.0	78.1	79.6
=	0.0	0.0	78.7	79.5
=	0.0	0.0	79.2	79.3
=	0.0	0.0	79.7	79.1
=	0.0	0.0	80.1	78.9
=	0.0	0.0	80.6	78.7
=	0.0	0.0	81.1	78.6
=	0.0	0.0	81.6	78.3
=	0.0	0.0	82.1	78.0
=	0.0	0.0	82.6	77.9
=	0.0	0.0	83.1	77.7
=	0.0	0.0	83.5	77.5
=	0.0	0.0	84.0	77.3
=	0.0	0.0	84.5	77.0
=	0.0	0.0	84.9	76.8
=	0.0	0.0	85.4	76.7
=	0.0	0.0	85.9	76.6
=	0.0	0.0	86.3	76.4
=	0.0	0.0	86.9	76.2
=	0.0	0.0	87.4	75.9
=	0.0	0.0	87.9	75.7
=	0.0	0.0	88.2	75.6
=	0.0	0.0	88.6	75.5
=	0.0	0.0	89.0	75.4
=	0.0	0.0	89.5	75.2
=	0.0	0.0	90.1	74.9
=	0.0	0.0	90.6	74.7
=	0.0	0.0	91.1	74.6
=	0.0	0.0	91.5	74.5
=	0.0	0.0	92.0	74.3
=	0.0	0.0	92.5	74.1
=	0.0	0.0	93.1	73.8
=	0.0	0.0	93.7	73.6
=	0.0	0.0	94.3	73.4
=	0.0	0.0	94.8	73.2
=	0.0	0.0	95.1	73.1
=	0.0	0.0	95.6	73.0
=	0.0	0.0	96.0	72.9
=	0.0	0.0	96.5	72.7
=	0.0	0.0	96.9	72.5
=	0.0	0.0	97.5	72.4
=	0.0	0.0	98.0	72.2
=	0.0	0.0	98.5	72.0
=	0.0	0.0	99.0	71.9
=	0.0	0.0	99.5	71.7
=	0.0	0.0	99.9	71.5
=	0.0	0.0	100.4	71.3
=	0.0	0.0	100.8	71.0
=	0.0	0.0	101.4	70.8
=	0.0	0.0	101.9	70.7
=	0.0	0.0	102.5	70.6
=	0.0	0.0	103.1	70.4
=	0.0	0.0	103.5	70.2
=	0.0	0.0	104.0	70.0
=	0.0	0.0	104.4	69.9
=	0.0	0.0	104.8	69.8
=	0.0	0.0	105.3	69.6
=	0.0	0.0	105.7	69.6
=	0.0	0.0	106.2	69.5
=	0.0	0.0	106.7	69.2
=	0.0	0.0	107.3	68.9
=	0.0	0.0	107.7	68.7
=	0.0	0.0	108.1	68.6
=	0.0	0.0	108.5	68.4
=	0.0	0.0	109.1	68.3
=	0.0	0.0	109.5	68.2
=	0.0	0.0	110.1	68.0
=	0.0	0.0	110.7	67.7
=	0.0	0.0	111.3	67.5
=	0.0	0.0	111.8	67.4
=	0.0	0.0	112.2	67.3
=	0.0	0.0	112.8	67.0
=	0.0	0.0	113.3	66.8
=	0.0	0.0	114.0	66.6
=	0.0	0.0	114.5	66.5
=	0.0	0.0	114.8	66.4
=	0.0	0.0	115.2	66.2
=	0.0	0.0	115.6	66.1
=	0.0	0.0	116.0	65.9
=	0.0	0.0	116.6	65.8
=	0.0	0.0	117.0	65.6
=	0.0	0.0	117.4	65.5
=	0.0	0.0	117.8	65.4
=	0.0	0.0	118.2	65.3
=	0.0	0.0	118.6	65.1
=	0.0	0.0	118.9	65.0
=	0.0	0.0	119.4	64.9
=	0.0	0.0	119.8	64.8
=	0.0	0.0	120.2	64.6
=	0.0	0.0	120.7	64.4
=	0.0	0.0	121.2	64.3
=	0.0	0.0	121.5	64.2
=	0.0	0.0	121.8	64.2
=	0.0	0.0	122.2	64.0
=	0.0	0.0	122.7	63.8
=	0.0	0.0	123.3	63.7
=	0.0	0.0	123.7	63.5
=	0.0	0.0	124.2	63.4
=	0.0	0.0	124.7	63.2
=	0.0	0.0	125.2	63.0
=	0.0	0.0	125.6	62.9
=	0.0	0.0	126.1	62.8
=	0.0	0.0	126.5	62.6
=	0.0	0.0	126.9	62.4
=	0.0	0.0	127.5	62.3
=	0.0	0.0	128.0	62.2
=	0.0	0.0	128.6	62.0
=	0.0	0.0	129.1	61.8
=	0.0	0.0	129.5	61.7
=	0.0	0.0	130.0	61.5
=	0.0	0.0	130.4	61.4
=	0.0	0.0	130.9	61.2
=	0.0	0.0	131.4	61.0
=	0.0	0.0	131.9	60.9
=	0.0	0.0	132.3	60.8
=	0.0	0.0	132.8	60.7
=	0.0	0.0	133.1	60.5
=	0.0	0.0	133.5	60.5
=	0.0	0.0	134.1	60.4
=	0.0	0.0	134.6	60.2
=	0.0	0.0	135.1	60.1
=	0.0	0.0	135.5	60.0
=	0.0	0.0	136.0	59.9
=	0.0	0.0	136.5	59.7
=	0.0	0.0	136.9	59.5
=	0.0	0.0	137.5	59.3
=	0.0	0.0	138.0	59.2
=	0.0	0.0	138.4	59.1
=	0.0	0.0	138.8	59.0
=	0.0	0.0	139.1	58.9
=	0.0	0.0	139.6	58.7
=	0.0	0.0	140.0	58.5
=	0.0	0.0	140.6	58.3
=	0.0	0.0	141.2	58.1
=	0.0	0.0	141.8	58.0
=	0.0	0.0	142.4	57.9
=	0.0	0.0	143.0	57.8
=	0.0	0.0	143.5	57.6
=	0.0	0.0	144.1	57.5
=	0.0	0.0	144.5	57.4
=	0.0	0.0	145.0	57.2
=	0.0	0.0	145.5	56.9
=	0.0	0.0	146.1	56.8
=	0.0	0.0	146.6	56.6
=	0.0	0.0	147.0	56.5
=	0.0	0.0	147.4	56.4
=	0.0	0.0	147.9	56.2
=	0.0	0.0	148.4	56.1
=	0.0	0.0	148.9	55.9
=	0.0	0.0	149.4	55.7
=	0.0	0.0	150.0	55.6
=	0.0	0.0	150.4	55.5
=	0.0	0.0	150.8	55.4
=	0.0	0.0	151.4	55.3
=	0.0	0.0	151.8	55.1
=	0.0	0.0	152.4	55.0
=	0.0	0.0	152.7	54.9
=	0.0	0.0	153.1	54.8
=	0.0	0.0	153.5	54.7
=	0.0	0.0	154.0	54.6
=	0.0	0.0	154.6	54.5
=	0.0	0.0	155.2	54.4
=	0.0	0.0	155.8	54.2
=	0.0	0.0	156.2	54.1
=	0.0	0.0	156.6	54.0
=	0.0	0.0	157.1	53.9
=	0.0	0.0	157.6	53.8
=	0.0	0.0	158.0	53.6
=	0.0	0.0	158.5	53.5
=	0.0	0.0	159.1	53.4
=	0.0	0.0	159.7	53.2
=	0.0	0.0	160.2	53.0
=	0.0	0.0	160.6	53.0
=	0.0	0.0	161.1	52.8
=	0.0	0.0	161.6	52.6
=	0.0	0.0	162.1	52.5
=	0.0	0.0	162.4	52.3
=	0.0	0.0	162.8	52.2
=	0.0	0.0	163.3	52.1
=	0.0	0.0	163.8	52.0
=	0.0	0.0	164.4	51.8
=	0.0	0.0	165.0	51.7
=	0.0	0.0	165.5	51.6
=	0.0	0.0	165.9	51.5
=	0.0	0.0	166.3	51.4
=	0.0	0.0	166.7	51.3
=	0.0	0.0	167.3	51.2
=	0.0	0.0	167.9	51.0
=	0.0	0.0	168.5	50.9
=	0.0	0.0	169.0	50.8
=	0.0	0.0	169.6	50.6
=	0.0	0.0	170.1	50.5
=	0.0	0.0	170.5	50.4
=	0.0	0.0	170.9	50.3
=	0.0	0.0	171.2	50.2
=	0.0	0.0	171.7	50.0
=	0.0	0.0	172.2	49.9
=	0.0	0.0	172.7	49.8
=	0.0	0.0	173.3	49.6
=	0.0	0.0	173.9	49.5
=	0.0	0.0	174.3	49.4
=	0.0	0.0	174.7	49.3
=	0.0	0.0	175.1	49.2
=	0.0	0.0	175.4	49.2
=	0.0	0.0	175.8	49.1
=	0.0	0.0	176.4	48.9
=	0.0	0.0	176.9	48.8
=	0.0	0.0	177.3	48.7
=	0.0	0.0	177.8	48.6
=	0.0	0.0	178.4	48.5
=	0.0	0.0	179.0	48.4
=	0.0	0.0	179.5	48.3
=	0.0	0.0	179.9	48.2
=	0.0	0.0	180.2	48.1
=	0.0	0.0	180.7	48.0
=	0.0	0.0	181.3	47.8
=	0.0	0.0	181.8	47.7
=	0.0	0.0	182.3	47.6
=	0.0	0.0	182.8	47.4
=	0.0	0.0	183.4	47.2
=	0.0	0.0	183.9	47.1
=	0.0	0.0	184.3	47.0
=	0.0	0.0	184.7	46.9
=	0.0	0.0	185.2	46.8
=	0.0	0.0	185.7	46.8
=	0.0	0.0	186.1	46.7
=	0.0	0.0	186.4	46.6
=	0.0	0.0	187.0	46.4
=	0.0	0.0	187.4	46.3
=	0.0	0.0	187.8	46.2
=	0.0	0.0	188.2	46.0
=	0.0	0.0	188.7	46.0
=	0.0	0.0	189.2	45.9
=	0.0	0.0	189.7	45.8
=	0.0	0.0	190.3	45.7
=	0.0	0.0	190.8	45.6
=	0.0	0.0	191.2	45.4
=	0.0	0.0	191.7	45.3
=	0.0	0.0	192.0	45.3
=	0.0	0.0	192.4	45.2
=	0.0	0.0	192.8	45.2
=	0.0	0.0	193.2	45.0
=	0.0	0.0	193.6	44.9
=	0.0	0.0	194.2	44.8
=	0.0	0.0	194.7	44.7
=	0.0	0.0	195.3	44.6
=	0.0	0.0	195.7	44.5
=	0.0	0.0	196.2	44.3
=	0.0	0.0	196.7	44.2
=	0.0	0.0	197.1	44.1
=	0.0	0.0	197.5	44.0
=	0.0	0.0	197.9	44.0
=	0.0	0.0	198.4	43.9
=	0.0	0.0	198.9	43.8
=	0.0	0.0	199.3	43.7
=	0.0	0.0	199.7	43.6
=	0.0	0.0	200.1	43.5
=	0.0	0.0	200.5	43.5
=	0.0	0.0	201.1	43.4
=	0.0	0.0	201.6	43.2
=	0.0	0.0	202.2	43.1
=	0.0	0.0	202.8	42.9
=	0.0	0.0	203.3	42.9
=	0.0	0.0	203.8	42.8
=	0.0	0.0	204.3	42.7
=	0.0	0.0	204.7	42.6
=	0.0	0.0	205.3	42.5
=	0.0	0.0	205.6	42.5
=	0.0	0.0	206.0	42.4
=	0.0	0.0	206.4	42.3
=	0.0	0.0	206.8	42.2
=	0.0	0.0	207.3	42.1
=	0.0	0.0	207.7	42.0
=	0.0	0.0	208.2	41.9
=	0.0	0.0	208.7	41.8
=	0.0	0.0	209.1	41.7
=	0.0	0.0	209.8	41.6
=	0.0	0.0	210.4	41.5
=	0.0	0.0	211.0	41.4
=	0.0	0.0	211.5	41.3
=	0.0	0.0	212.1	41.1
=	0.0	0.0	212.6	41.0
=	0.0	0.0	213.2	40.8
=	0.0	0.0	213.7	40.8
=	0.0	0.0	214.1	40.7
=	0.0	0.0	214.7	40.6
=	0.0	0.0	215.1	40.5
=	0.0	0.0	215.6	40.4
=	0.0	0.0	215.9	40.3
=	0.0	0.0	216.3	40.2
=	0.0	0.0	216.7	40.1
=	0.0	0.0	217.1	40.1
=	0.0	0.0	217.6	39.9
=	0.0	0.0	218.2	39.8
=	0.0	0.0	218.8	39.7
=	0.0	0.0	219.4	39.6
=	0.0	0.0	220.0	39.5
=	0.0	0.0	220.6	39.3
=	0.0	0.0	221.2	39.2
=	0.0	0.0	221.7	39.1
=	0.0	0.0	222.1	39.1
=	0.0	0.0	222.4	39.0
=	0.0	0.0	222.8	39.0
=	0.0	0.0	223.3	38.9
=	0.0	0.0	223.9	38.8
=	0.0	0.0	224.3	38.7
=	0.0	0.0	224.7	38.7
=	0.0	0.0	225.3	38.6
=	0.0	0.0	225.8	38.5
=	0.0	0.0	226.4	38.4
=	0.0	0.0	227.0	38.3
=	0.0	0.0	227.4	38.2
=	0.0	0.0	227.8	38.1
=	0.0	0.0	228.4	38.0
=	0.0	0.0	229.0	37.9
=	0.0	0.0	229.5	37.8
=	0.0	0.0	230.0	37.7
=	0.0	0.0	230.5	37.6
=	0.0	0.0	231.0	37.5
=	0.0	0.0	231.5	37.4
=	0.0	0.0	232.0	37.3
=	0.0	0.0	232.5	37.2
=	0.0	0.0	232.9	37.2
=	0.0	0.0	233.4	37.1
=	0.0	0.0	233.9	37.0
=	0.0	0.0	234.3	37.0
=	0.0	0.0	234.8	36.9
=	0.0	0.0	235.3	36.8
=	0.0	0.0	235.9	36.7
=	0.0	0.0	236.3	36.6
=	0.0	0.0	236.9	36.4
=	0.0	0.0	237.4	36.4
=	0.0	0.0	237.9	36.3
=	0.0	0.0	238.5	36.2
=	0.0	0.0	239.1	36.1
=	0.0	0.0	239.7	36.0
=	0.0	0.0	240.1	35.9
=	0.0	0.0	240.6	35.8
=	0.0	0.0	241.1	35.7
=	0.0	0.0	241.5	35.7
=	0.0	0.0	241.8	35.6
=	0.0	0.0	242.2	35.5
=	0.0	0.0	242.6	35.4
=	0.0	0.0	243.0	35.3
=	0.0	0.0	243.5	35.3
=	0.0	0.0	243.9	35.2
=	0.0	0.0	244.3	35.2
=	0.0	0.0	244.9	35.1
=	0.0	0.0	245.5	34.9
=	0.0	0.0	245.9	34.8
=	0.0	0.0	246.5	34.7
=	0.0	0.0	246.9	34.7
=	0.0	0.0	247.5	34.6
=	0.0	0.0	248.0	34.5
=	0.0	0.0	248.5	34.4
=	0.0	0.0	249.0	34.4
=	0.0	0.0	249.5	34.3
=	0.0	0.0	250.0	34.2
=	0.0	0.0	250.5	34.1
=	0.0	0.0	250.9	34.1
=	0.0	0.0	251.3	34.0
=	0.0	0.0	251.7	33.9
=	0.0	0.0	252.1	33.9
=	0.0	0.0	252.5	33.8
=	0.0	0.0	252.8	33.8
=	0.0	0.0	253.2	33.7
=	0.0	0.0	253.6	33.7
=	0.0	0.0	254.0	33.7
=	0.0	0.0	254.5	33.6
=	0.0	0.0	254.9	33.5
=	0.0	0.0	255.4	33.4
=	0.0	0.0	255.8	33.3
=	0.0	0.0	256.3	33.2
=	0.0	0.0	256.7	33.1
=	0.0	0.0	257.1	33.1
=	0.0	0.0	257.6	33.0
=	0.0	0.0	258.0	33.0
=	0.0	0.0	258.5	32.9
=	0.0	0.0	259.0	32.8
=	0.0	0.0	259.5	32.7
=	0.0	0.0	260.0	32.6
=	0.0	0.0	260.6	32.5
=	0.0	0.0	261.1	32.5
=	0.0	0.0	261.5	32.4
=	0.0	0.0	262.0	32.3
=	0.0	0.0	262.6	32.2
=	0.0	0.0	263.2	32.1
=	0.0	0.0	263.6	32.1
=	0.0	0.0	264.1	32.0
=	0.0	0.0	264.7	31.9
=	0.0	0.0	265.2	31.8
=	0.0	0.0	265.7	31.8
=	0.0	0.0	266.2	31.7
=	0.0	0.0	266.6	31.6
=	0.0	0.0	267.2	31.5
=	0.0	0.0	267.7	31.4
=	0.0	0.0	268.2	31.3
=	0.0	0.0	268.7	31.3
=	0.0	0.0	269.1	31.3
=	0.0	0.0	269.6	31.2
=	0.0	0.0	270.2	31.1
=	0.0	0.0	270.9	31.0
=	0.0	0.0	271.5	30.9
=	0.0	0.0	272.0	30.9
=	0.0	0.0	272.6	30.8
=	0.0	0.0	273.0	30.7
=	0.0	0.0	273.5	30.6
=	0.0	0.0	274.0	30.5
=	0.0	0.0	274.4	30.5
=	0.0	0.0	274.8	30.4
=	0.0	0.0	275.4	30.3
=	0.0	0.0	276.0	30.3
=	0.0	0.0	276.6	30.2
=	0.0	0.0	277.0	30.1
=	0.0	0.0	277.4	30.1
=	0.0	0.0	277.7	30.1
=	0.0	0.0	278.2	30.0
=	0.0	0.0	278.6	29.9
=	0.0	0.0	278.9	29.8
=	0.0	0.0	279.3	29.8
=	0.0	0.0	279.7	29.7
=	0.0	0.0	280.3	29.6
=	0.0	0.0	280.7	29.6
=	0.0	0.0	281.0	29.5
=	0.0	0.0	281.4	29.5
=	0.0	0.0	281.9	29.4
=	0.0	0.0	282.3	29.3
=	0.0	0.0	282.8	29.3
=	0.0	0.0	283.2	29.2
=	0.0	0.0	283.6	29.2
=	0.0	0.0	283.9	29.1
=	0.0	0.0	284.4	29.0
=	0.0	0.0	284.9	29.0
=	0.0	0.0	285.4	28.9
=	0.0	0.0	285.9	28.8
=	0.0	0.0	286.3	28.8
=	0.0	0.0	286.7	28.7
=	0.0	0.0	287.1	28.7
=	0.0	0.0	287.5	28.7
=	0.0	0.0	288.1	28.6
=	0.0	0.0	288.5	28.5
=	0.0	0.0	289.1	28.4
=	0.0	0.0	289.6	28.3
=	0.0	0.0	290.0	28.2
=	0.0	0.0	290.4	28.2
=	0.0	0.0	291.0	28.1
=	0.0	0.0	291.6	28.1
=	0.0	0.0	292.1	28.0
=	0.0	0.0	292.7	28.0
=	0.0	0.0	293.3	27.9
=	0.0	0.0	293.9	27.9
=	0.0	0.0	294.4	27.8
=	0.0	0.0	294.9	27.7
=	0.0	0.0	295.3	27.6
=	0.0	0.0	295.7	27.6
=	0.0	0.0	296.2	27.5
=	0.0	0.0	296.6	27.4
=	0.0	0.0	297.1	27.4
=	0.0	0.0	297.5	27.3
=	0.0	0.0	298.1	27.2
=	0.0	0.0	298.6	27.2
=	0.0	0.0	299.0	27.1
=	0.0	0.0	299.4	27.1
=	0.0	0.0	299.9	27.1
=	0.0	0.0	300.4	26.9
=	0.0	0.0	301.1	26.9
=	0.0	0.0	301.7	26.8
=	0.0	0.0	302.1	26.7
=	0.0	0.0	302.7	26.7
=	0.0	0.0	303.3	26.6
=	0.0	0.0	303.7	26.5
=	0.0	0.0	304.2	26.5
=	0.0	0.0	304.6	26.4
=	0.0	0.0	305.0	26.4
=	0.0	0.0	305.4	26.3
=	0.0	0.0	306.0	26.3
=	0.0	0.0	306.4	26.2
=	0.0	0.0	306.8	26.2
=	0.0	0.0	307.2	26.1
=	0.0	0.0	307.6	26.1
=	0.0	0.0	308.0	26.0
=	0.0	0.0	308.5	25.9
=	0.0	0.0	309.0	25.9
=	0.0	0.0	309.5	25.8
=	0.0	0.0	310.1	25.7
=	0.0	0.0	310.6	25.7
=	0.0	0.0	311.0	25.7
=	0.0	0.0	311.5	25.6
=	0.0	0.0	312.0	25.6
=	0.0	0.0	312.4	25.5
=	0.0	0.0	312.9	25.4
=	0.0	0.0	313.4	25.4
=	0.0	0.0	313.8	25.3
=	0.0	0.0	314.2	25.2
=	0.0	0.0	314.6	25.2
=	0.0	0.0	315.0	25.1
=	0.0	0.0	315.5	25.1
=	0.0	0.0	316.0	25.1
=	0.0	0.0	316.5	25.0
=	0.0	0.0	317.1	25.0
=	0.0	0.0	317.5	24.9
=	0.0	0.0	318.0	24.9
=	0.0	0.0	318.4	24.8
=	0.0	0.0	318.8	24.8
=	0.0	0.0	319.2	24.7
=	0.0	0.0	319.6	24.6
=	0.0	0.0	320.0	24.6
=	0.0	0.0	320.5	24.6
=	0.0	0.0	320.8	24.5
=	0.0	0.0	321.3	24.5
=	0.0	0.0	321.7	24.5
=	0.0	0.0	322.3	24.4
=	0.0	0.0	322.8	24.3
=	0.0	0.0	323.2	24.3
=	0.0	0.0	323.7	24.2
=	0.0	0.0	324.0	24.2
=	0.0	0.0	324.4	24.1
=	0.0	0.0	324.9	24.1
=	0.0	0.0	325.3	24.0
=	0.0	0.0	325.7	24.0
=	0.0	0.0	326.1	23.9
=	0.0	0.0	326.5	23.9
=	0.0	0.0	327.0	23.8
=	0.0	0.0	327.5	23.8
=	0.0	0.0	328.1	23.7
=	0.0	0.0	328.6	23.7
=	0.0	0.0	329.2	23.6
=	0.0	0.0	329.8	23.5
=	0.0	0.0	330.2	23.5
=	0.0	0.0	330.6	23.5
=	0.0	0.0	331.2	23.4
=	0.0	0.0	331.6	23.4
=	0.0	0.0	332.3	23.3
=	0.0	0.0	332.8	23.2
=	0.0	0.0	333.4	23.1
=	0.0	0.0	333.9	23.0
=	0.0	0.0	334.5	23.0
=	0.0	0.0	334.9	22.9
=	0.0	0.0	335.3	22.9
=	0.0	0.0	335.7	22.9
=	0.0	0.0	336.2	22.8
=	0.0	0.0	336.8	22.7
=	0.0	0.0	337.2	22.7
=	0.0	0.0	337.7	22.6
=	0.0	0.0	338.2	22.6
=	0.0	0.0	338.6	22.5
=	0.0	0.0	338.9	22.5
=	0.0	0.0	339.3	22.5
=	0.0	0.0	339.9	22.4
=	0.0	0.0	340.4	22.4
=	0.0	0.0	341.0	22.3
=	0.0	0.0	341.5	22.3
=	0.0	0.0	342.0	22.2
=	0.0	0.0	342.5	22.2
=	0.0	0.0	342.8	22.1
=	0.0	0.0	343.3	22.1
=	0.0	0.0	343.7	22.0
=	0.0	0.0	344.1	22.0
=	0.0	0.0	344.5	21.9
=	0.0	0.0	344.8	21.9
=	0.0	0.0	345.3	21.8
=	0.0	0.0	345.7	21.8
=	0.0	0.0	346.1	21.8
=	0.0	0.0	346.7	21.8
=	0.0	0.0	347.1	21.7
=	0.0	0.0	347.6	21.7
:EOM # End of Measurement
#
# RFA300 ASCII Measurement Dump ( BDS format )
#
# Measurement number 	2
#
%VNR 1.0
%MOD 	RAT
%TYP 	SCN
%SCN 	DPT
%FLD 	ION
%DAT 	09-23-2011
%TIM 	12:00:00
%FSZ 	100	100
%BMT 	PHO	   10.0
%SSD 	1000
%BUP 	0
%BRD 	1000
%FSH 	1
%ASC 	0
%WEG 	45
%GPO 	0
%CPO 	0
%MEA 	5
%PRD 	0,0
%PTS 	729
%STS 	    0.0	  0.0	   0.0 # Start Scan values in mm ( X , Y , Z )
%EDS 	    0.0	   0.0	   348.0 # End Scan values in mm ( X , Y , Z )
#
#	  X      Y      Z     Dose
#
=	0.0	0.0	0.0	33.5
=	0.0	0.0	0.3	34.6
=	0.0	0.0	0.8	36.4
=	0.0	0.0	1.3	38.7
=	0.0	0.0	1.7	41.2
=	0.0	0.0	2.0	44.3
=	0.0	0.0	2.4	48.2
=	0.0	0.0	2.8	51.7
=	0.0	0.0	3.4	55.8
=	0.0	0.0	3.8	59.3
=	0.0	0.0	4.4	63.4
=	0.0	0.0	4.8	66.7
=	0.0	0.0	5.4	69.6
=	0.0	0.0	5.9	72.4
=	0.0	0.0	6.4	75.1
=	0.0	0.0	7.0	77.7
=	0.0	0.0	7.5	80.0
=	0.0	0.0	8.0	82.0
=	0.0	0.0	8.5	83.4
=	0.0	0.0	8.9	84.9
=	0.0	0.0	9.4	86.3
=	0.0	0.0	10.1	88.0
=	0.0	0.0	10.6	89.2
=	0.0	0.0	10.9	90.0
=	0.0	0.0	11.3	90.9
=	0.0	0.0	11.8	91.8
=	0.0	0.0	12.3	92.9
=	0.0	0.0	12.9	93.8
=	0.0	0.0	13.4	94.4
=	0.0	0.0	13.9	95.1
=	0.0	0.0	14.3	95.6
=	0.0	0.0	14.8	96.2
=	0.0	0.0	15.2	96.6
=	0.0	0.0	15.7	97.0
=	0.0	0.0	16.0	97.3
=	0.0	0.0	16.4	97.6
=	0.0	0.0	16.9	98.1
=	0.0	0.0	17.3	98.4
=	0.0	0.0	17.7	98.5
=	0.0	0.0	18.0	98.7
=	0.0	0.0	18.6	98.9
=	0.0	0.0	19.1	99.1
=	0.0	0.0	19.6	99.2
=	0.0	0.0	20.1	99.5
=	0.0	0.0	20.6	99.7
=	0.0	0.0	21.1	99.8
=	0.0	0.0	21.6	99.8
=	0.0	0.0	22.0	99.9
=	0.0	0.0	22.4	100.0
=	0.0	0.0	22.8	100.0
=	0.0	0.0	23.3	100.0
=	0.0	0.0	23.8	100.0
=	0.0	0.0	24.3	100.0
=	0.0	0.0	24.9	99.9
=	0.0	0.0	25.5	99.8
=	0.0	0.0	25.9	99.8
=	0.0	0.0	26.3	99.8
=	0.0	0.0	26.8	99.7
=	0.0	0.0	27.3	99.6
=	0.0	0.0	27.7	99.5
=	0.0	0.0	28.2	99.5
=	0.0	0.0	28.6	99.4
=	0.0	0.0	29.0	99.3
=	0.0	0.0	29.4	99.2
=	0.0	0.0	29.8	99.0
=	0.0	0.0	30.2	98.9
=	0.0	0.0	30.6	98.8
=	0.0	0.0	31.2	98.7
=	0.0	0.0	31.8	98.6
=	0.0	0.0	32.2	98.5
=	0.0	0.0	32.5	98.3
=	0.0	0.0	32.9	98.2
=	0.0	0.0	33.4	98.0
=	0.0	0.0	33.8	97.9
=	0.0	0.0	34.3	97.7
=	0.0	0.0	34.8	97.5
=	0.0	0.0	35.3	97.3
=	0.0	0.0	35.9	97.1
=	0.0	0.0	36.3	97.0
=	0.0	0.0	36.6	96.9
=	0.0	0.0	37.0	96.7
=	0.0	0.0	37.4	96.6
=	0.0	0.0	37.8	96.4
=	0.0	0.0	38.3	96.2
=	0.0	0.0	38.7	96.1
=	0.0	0.0	39.1	95.9
=	0.0	0.0	39.5	95.7
=	0.0	0.0	39.9	95.6
=	0.0	0.0	40.3	95.4
=	0.0	0.0	41.0	95.1
=	0.0	0.0	41.4	95.0
=	0.0	0.0	41.8	94.9
=	0.0	0.0	42.4	94.7
=	0.0	0.0	43.0	94.5
=	0.0	0.0	43.5	94.3
=	0.0	0.0	44.0	94.2
=	0.0	0.0	44.5	93.9
=	0.0	0.0	44.8	93.8
=	0.0	0.0	45.3	93.7
=	0.0	0.0	45.7	93.5
=	0.0	0.0	46.1	93.3
=	0.0	0.0	46.5	93.1
=	0.0	0.0	47.0	93.0
=	0.0	0.0	47.4	92.9
=	0.0	0.0	47.7	92.7
=	0.0	0.0	48.1	92.5
=	0.0	0.0	48.5	92.4
=	0.0	0.0	49.0	92.2
=	0.0	0.0	49.6	91.9
=	0.0	0.0	50.0	91.7
=	0.0	0.0	50.4	91.6
=	0.0	0.0	50.9	91.5
=	0.0	0.0	51.4	91.2
=	0.0	0.0	51.9	91.0
=	0.0	0.0	52.3	90.8
=	0.0	0.0	52.7	90.7
=	0.0	0.0	53.1	90.6
=	0.0	0.0	53.4	90.5
=	0.0	0.0	53.9	90.3
=	0.0	0.0	54.3	90.2
=	0.0	0.0	54.8	90.0
=	0.0	0.0	55.4	89.7
=	0.0	0.0	55.9	89.5
=	0.0	0.0	56.3	89.3
=	0.0	0.0	56.8	89.2
=	0.0	0.0	57.2	89.1
=	0.0	0.0	57.6	89.0
=	0.0	0.0	58.2	88.8
=	0.0	0.0	58.6	88.7
=	0.0	0.0	59.1	88.6
=	0.0	0.0	59.6	88.3
=	0.0	0.0	60.1	88.2
=	0.0	0.0	60.7	87.9
=	0.0	0.0	61.2	87.8
=	0.0	0.0	61.7	87.5
=	0.0	0.0	62.1	87.4
=	0.0	0.0	62.5	87.1
=	0.0	0.0	63.0	87.0
=	0.0	0.0	63.5	86.8
=	0.0	0.0	63.9	86.6
=	0.0	0.0	64.2	86.5
=	0.0	0.0	64.6	86.4
=	0.0	0.0	65.0	86.2
=	0.0	0.0	65.5	86.0
=	0.0	0.0	66.0	85.9
=	0.0	0.0	66.4	85.7
=	0.0	0.0	66.9	85.5
=	0.0	0.0	67.3	85.3
=	0.0	0.0	67.6	85.2
=	0.0	0.0	68.1	85.2
=	0.0	0.0	68.6	84.9
=	0.0	0.0	69.1	84.8
=	0.0	0.0	69.6	84.6
=	0.0	0.0	70.0	84.5
=	0.0	0.0	70.4	84.4
=	0.0	0.0	70.7	84.3
=	0.0	0.0	71.2	84.2
=	0.0	0.0	71.8	83.9
=	0.0	0.0	72.4	83.7
=	0.0	0.0	72.9	83.6
=	0.0	0.0	73.4	83.4
=	0.0	0.0	74.0	83.2
=	0.0	0.0	74.4	83.0
=	0.0	0.0	74.8	82.9
=	0.0	0.0	75.3	82.7
=	0.0	0.0	75.8	82.4
=	0.0	0.0	76.4	82.1
=	0.0	0.0	76.8	82.1
=	0.0	0.0	77.3	81.9
=	0.0	0.0	77.7	81.8
=	0.0	0.0	78.1	81.7
=	0.0	0.0	78.4	81.5
=	0.0	0.0	78.9	81.3
=	0.0	0.0	79.3	81.2
=	0.0	0.0	79.8	81.0
=	0.0	0.0	80.3	80.8
=	0.0	0.0	80.7	80.6
=	0.0	0.0	81.3	80.5
=	0.0	0.0	81.8	80.4
=	0.0	0.0	82.1	80.3
=	0.0	0.0	82.5	80.0
=	0.0	0.0	82.9	79.9
=	0.0	0.0	83.3	79.7
=	0.0	0.0	83.7	79.7
=	0.0	0.0	84.2	79.5
=	0.0	0.0	84.7	79.4
=	0.0	0.0	85.3	79.2
=	0.0	0.0	86.0	78.9
=	0.0	0.0	86.5	78.7
=	0.0	0.0	87.0	78.5
=	0.0	0.0	87.6	78.3
=	0.0	0.0	88.2	78.0
=	0.0	0.0	88.6	77.8
=	0.0	0.0	89.0	77.7
=	0.0	0.0	89.5	77.6
=	0.0	0.0	90.0	77.4
=	0.0	0.0	90.5	77.2
=	0.0	0.0	90.9	77.1
=	0.0	0.0	91.3	77.0
=	0.0	0.0	91.9	76.9
=	0.0	0.0	92.3	76.6
=	0.0	0.0	92.7	76.4
=	0.0	0.0	93.1	76.3
=	0.0	0.0	93.5	76.2
=	0.0	0.0	93.9	76.1
=	0.0	0.0	94.4	75.9
=	0.0	0.0	95.0	75.8
=	0.0	0.0	95.5	75.6
=	0.0	0.0	95.9	75.5
=	0.0	0.0	96.3	75.3
=	0.0	0.0	96.7	75.2
=	0.0	0.0	97.1	75.0
=	0.0	0.0	97.6	74.9
=	0.0	0.0	98.2	74.7
=	0.0	0.0	98.6	74.6
=	0.0	0.0	99.1	74.5
=	0.0	0.0	99.5	74.3
=	0.0	0.0	100.0	74.1
=	0.0	0.0	100.3	74.0
=	0.0	0.0	100.8	73.9
=	0.0	0.0	101.1	73.8
=	0.0	0.0	101.7	73.6
=	0.0	0.0	102.2	73.4
=	0.0	0.0	102.7	73.2
=	0.0	0.0	103.3	73.1
=	0.0	0.0	103.8	72.9
=	0.0	0.0	104.2	72.8
=	0.0	0.0	104.7	72.7
=	0.0	0.0	105.1	72.6
=	0.0	0.0	105.5	72.4
=	0.0	0.0	106.0	72.2
=	0.0	0.0	106.5	72.1
=	0.0	0.0	107.0	71.8
=	0.0	0.0	107.4	71.7
=	0.0	0.0	108.0	71.6
=	0.0	0.0	108.6	71.4
=	0.0	0.0	109.1	71.3
=	0.0	0.0	109.7	71.1
=	0.0	0.0	110.2	70.9
=	0.0	0.0	110.5	70.7
=	0.0	0.0	111.0	70.6
=	0.0	0.0	111.5	70.5
=	0.0	0.0	112.1	70.4
=	0.0	0.0	112.4	70.3
=	0.0	0.0	112.9	70.1
=	0.0	0.0	113.3	70.0
=	0.0	0.0	113.9	69.7
=	0.0	0.0	114.3	69.6
=	0.0	0.0	114.7	69.5
=	0.0	0.0	115.1	69.3
=	0.0	0.0	115.5	69.2
=	0.0	0.0	116.0	69.0
=	0.0	0.0	116.4	68.9
=	0.0	0.0	116.8	68.8
=	0.0	0.0	117.3	68.7
=	0.0	0.0	117.8	68.5
=	0.0	0.0	118.3	68.4
=	0.0	0.0	118.7	68.3
=	0.0	0.0	119.1	68.2
=	0.0	0.0	119.6	68.0
=	0.0	0.0	120.2	67.8
=	0.0	0.0	120.7	67.6
=	0.0	0.0	121.1	67.5
=	0.0	0.0	121.5	67.4
=	0.0	0.0	121.9	67.2
=	0.0	0.0	122.3	67.1
=	0.0	0.0	122.7	67.0
=	0.0	0.0	123.1	66.8
=	0.0	0.0	123.6	66.6
=	0.0	0.0	124.1	66.5
=	0.0	0.0	124.7	66.3
=	0.0	0.0	125.3	66.2
=	0.0	0.0	125.9	66.0
=	0.0	0.0	126.5	65.8
=	0.0	0.0	127.1	65.7
=	0.0	0.0	127.6	65.6
=	0.0	0.0	128.0	65.5
=	0.0	0.0	128.5	65.4
=	0.0	0.0	128.9	65.1
=	0.0	0.0	129.4	65.0
=	0.0	0.0	130.0	64.9
=	0.0	0.0	130.4	64.8
=	0.0	0.0	130.8	64.7
=	0.0	0.0	131.3	64.6
=	0.0	0.0	131.6	64.4
=	0.0	0.0	132.0	64.3
=	0.0	0.0	132.6	64.2
=	0.0	0.0	133.1	64.0
=	0.0	0.0	133.6	63.9
=	0.0	0.0	134.0	63.7
=	0.0	0.0	134.6	63.5
=	0.0	0.0	135.1	63.4
=	0.0	0.0	135.6	63.1
=	0.0	0.0	136.0	63.0
=	0.0	0.0	136.3	63.0
=	0.0	0.0	136.8	62.9
=	0.0	0.0	137.3	62.8
=	0.0	0.0	137.8	62.7
=	0.0	0.0	138.4	62.5
=	0.0	0.0	138.9	62.3
=	0.0	0.0	139.5	62.1
=	0.0	0.0	140.1	61.9
=	0.0	0.0	140.7	61.8
=	0.0	0.0	141.2	61.7
=	0.0	0.0	141.8	61.6
=	0.0	0.0	142.3	61.4
=	0.0	0.0	142.8	61.2
=	0.0	0.0	143.3	61.1
=	0.0	0.0	143.8	60.9
=	0.0	0.0	144.3	60.8
=	0.0	0.0	144.7	60.6
=	0.0	0.0	145.3	60.5
=	0.0	0.0	145.8	60.3
=	0.0	0.0	146.3	60.2
=	0.0	0.0	146.9	60.0
=	0.0	0.0	147.5	59.9
=	0.0	0.0	148.0	59.8
=	0.0	0.0	148.4	59.7
=	0.0	0.0	149.0	59.6
=	0.0	0.0	149.4	59.4
=	0.0	0.0	149.7	59.3
=	0.0	0.0	150.2	59.2
=	0.0	0.0	150.7	59.1
=	0.0	0.0	151.2	59.0
=	0.0	0.0	151.8	58.8
=	0.0	0.0	152.5	58.7
=	0.0	0.0	153.1	58.5
=	0.0	0.0	153.7	58.3
=	0.0	0.0	154.1	58.1
=	0.0	0.0	154.6	58.0
=	0.0	0.0	155.1	57.8
=	0.0	0.0	155.6	57.7
=	0.0	0.0	156.0	57.6
=	0.0	0.0	156.4	57.5
=	0.0	0.0	157.0	57.4
=	0.0	0.0	157.6	57.2
=	0.0	0.0	158.2	57.1
=	0.0	0.0	158.7	56.9
=	0.0	0.0	159.3	56.8
=	0.0	0.0	159.7	56.8
=	0.0	0.0	160.3	56.6
=	0.0	0.0	160.9	56.5
=	0.0	0.0	161.3	56.4
=	0.0	0.0	161.8	56.2
=	0.0	0.0	162.3	56.1
=	0.0	0.0	162.9	56.0
=	0.0	0.0	163.4	55.9
=	0.0	0.0	163.9	55.7
=	0.0	0.0	164.3	55.6
=	0.0	0.0	164.8	55.4
=	0.0	0.0	165.3	55.3
=	0.0	0.0	165.9	55.1
=	0.0	0.0	166.4	54.9
=	0.0	0.0	166.8	54.8
=	0.0	0.0	167.3	54.8
=	0.0	0.0	167.8	54.7
=	0.0	0.0	168.3	54.6
=	0.0	0.0	168.8	54.4
=	0.0	0.0	169.1	54.4
=	0.0	0.0	169.5	54.3
=	0.0	0.0	170.0	54.2
=	0.0	0.0	170.4	54.1
=	0.0	0.0	171.0	53.9
=	0.0	0.0	171.6	53.7
=	0.0	0.0	172.0	53.6
=	0.0	0.0	172.4	53.5
=	0.0	0.0	172.8	53.4
=	0.0	0.0	173.2	53.3
=	0.0	0.0	173.6	53.2
=	0.0	0.0	174.2	53.1
=	0.0	0.0	174.9	53.0
=	0.0	0.0	175.4	52.9
=	0.0	0.0	176.1	52.7
=	0.0	0.0	176.7	52.5
=	0.0	0.0	177.1	52.5
=	0.0	0.0	177.6	52.3
=	0.0	0.0	178.0	52.2
=	0.0	0.0	178.5	52.1
=	0.0	0.0	179.0	52.0
=	0.0	0.0	179.5	51.9
=	0.0	0.0	179.9	51.8
=	0.0	0.0	180.4	51.7
=	0.0	0.0	181.0	51.6
=	0.0	0.0	181.6	51.5
=	0.0	0.0	182.0	51.3
=	0.0	0.0	182.4	51.2
=	0.0	0.0	182.9	51.0
=	0.0	0.0	183.3	51.0
=	0.0	0.0	183.7	50.9
=	0.0	0.0	184.2	50.7
=	0.0	0.0	184.6	50.6
=	0.0	0.0	185.1	50.5
=	0.0	0.0	185.6	50.5
=	0.0	0.0	186.2	50.4
=	0.0	0.0	186.8	50.2
=	0.0	0.0	187.3	50.1
=	0.0	0.0	187.9	49.9
=	0.0	0.0	188.4	49.8
=	0.0	0.0	188.8	49.7
=	0.0	0.0	189.2	49.6
=	0.0	0.0	189.6	49.4
=	0.0	0.0	190.0	49.3
=	0.0	0.0	190.6	49.2
=	0.0	0.0	191.2	49.1
=	0.0	0.0	191.7	49.0
=	0.0	0.0	192.2	48.9
=	0.0	0.0	192.7	48.8
=	0.0	0.0	193.2	48.7
=	0.0	0.0	193.6	48.6
=	0.0	0.0	194.1	48.5
=	0.0	0.0	194.5	48.4
=	0.0	0.0	195.1	48.3
=	0.0	0.0	195.6	48.2
=	0.0	0.0	196.2	48.0
=	0.0	0.0	196.7	47.9
=	0.0	0.0	197.2	47.8
=	0.0	0.0	197.5	47.7
=	0.0	0.0	198.0	47.6
=	0.0	0.0	198.4	47.5
=	0.0	0.0	198.8	47.4
=	0.0	0.0	199.2	47.3
=	0.0	0.0	199.6	47.2
=	0.0	0.0	199.9	47.1
=	0.0	0.0	200.4	47.0
=	0.0	0.0	200.8	46.9
=	0.0	0.0	201.2	46.8
=	0.0	0.0	201.6	46.8
=	0.0	0.0	202.2	46.7
=	0.0	0.0	202.7	46.6
=	0.0	0.0	203.3	46.5
=	0.0	0.0	203.7	46.4
=	0.0	0.0	204.1	46.3
=	0.0	0.0	204.6	46.3
=	0.0	0.0	205.1	46.2
=	0.0	0.0	205.7	46.0
=	0.0	0.0	206.3	45.9
=	0.0	0.0	206.7	45.9
=	0.0	0.0	207.1	45.7
=	0.0	0.0	207.5	45.7
=	0.0	0.0	208.0	45.6
=	0.0	0.0	208.6	45.5
=	0.0	0.0	209.2	45.4
=	0.0	0.0	209.7	45.2
=	0.0	0.0	210.2	45.1
=	0.0	0.0	210.7	44.9
=	0.0	0.0	211.2	44.8
=	0.0	0.0	211.7	44.7
=	0.0	0.0	212.1	44.7
=	0.0	0.0	212.5	44.6
=	0.0	0.0	213.0	44.5
=	0.0	0.0	213.4	44.4
=	0.0	0.0	213.9	44.3
=	0.0	0.0	214.3	44.2
=	0.0	0.0	214.7	44.1
=	0.0	0.0	215.1	44.0
=	0.0	0.0	215.5	44.0
=	0.0	0.0	216.2	43.9
=	0.0	0.0	216.7	43.7
=	0.0	0.0	217.2	43.6
=	0.0	0.0	217.6	43.6
=	0.0	0.0	218.1	43.5
=	0.0	0.0	218.6	43.4
=	0.0	0.0	219.1	43.3
=	0.0	0.0	219.6	43.2
=	0.0	0.0	220.1	43.1
=	0.0	0.0	220.7	43.0
=	0.0	0.0	221.3	42.9
=	0.0	0.0	221.7	42.8
=	0.0	0.0	222.2	42.7
=	0.0	0.0	222.7	42.6
=	0.0	0.0	223.3	42.5
=	0.0	0.0	223.8	42.4
=	0.0	0.0	224.4	42.3
=	0.0	0.0	225.0	42.2
=	0.0	0.0	225.5	42.1
=	0.0	0.0	226.0	42.0
=	0.0	0.0	226.6	41.9
=	0.0	0.0	227.2	41.7
=	0.0	0.0	227.6	41.7
=	0.0	0.0	228.2	41.5
=	0.0	0.0	228.7	41.5
=	0.0	0.0	229.3	41.4
=	0.0	0.0	229.8	41.2
=	0.0	0.0	230.3	41.1
=	0.0	0.0	230.9	41.0
=	0.0	0.0	231.3	40.9
=	0.0	0.0	231.8	40.8
=	0.0	0.0	232.2	40.8
=	0.0	0.0	232.7	40.7
=	0.0	0.0	233.3	40.6
=	0.0	0.0	233.8	40.5
=	0.0	0.0	234.2	40.4
=	0.0	0.0	234.7	40.4
=	0.0	0.0	235.1	40.3
=	0.0	0.0	235.5	40.2
=	0.0	0.0	235.9	40.1
=	0.0	0.0	236.3	40.1
=	0.0	0.0	236.7	40.0
=	0.0	0.0	237.3	39.9
=	0.0	0.0	237.7	39.8
=	0.0	0.0	238.1	39.8
=	0.0	0.0	238.5	39.7
=	0.0	0.0	238.9	39.6
=	0.0	0.0	239.3	39.6
=	0.0	0.0	239.7	39.4
=	0.0	0.0	240.1	39.3
=	0.0	0.0	240.5	39.2
=	0.0	0.0	240.9	39.2
=	0.0	0.0	241.4	39.1
=	0.0	0.0	241.8	39.0
=	0.0	0.0	242.4	38.9
=	0.0	0.0	242.9	38.8
=	0.0	0.0	243.4	38.7
=	0.0	0.0	244.0	38.6
=	0.0	0.0	244.6	38.5
=	0.0	0.0	245.1	38.4
=	0.0	0.0	245.5	38.4
=	0.0	0.0	246.0	38.3
=	0.0	0.0	246.5	38.2
=	0.0	0.0	247.1	38.1
=	0.0	0.0	247.7	38.1
=	0.0	0.0	248.0	38.0
=	0.0	0.0	248.5	37.9
=	0.0	0.0	249.1	37.8
=	0.0	0.0	249.6	37.8
=	0.0	0.0	250.1	37.6
=	0.0	0.0	250.5	37.5
=	0.0	0.0	250.9	37.4
=	0.0	0.0	251.2	37.4
=	0.0	0.0	251.7	37.3
=	0.0	0.0	252.2	37.3
=	0.0	0.0	252.6	37.2
=	0.0	0.0	253.0	37.2
=	0.0	0.0	253.7	37.1
=	0.0	0.0	254.2	37.0
=	0.0	0.0	254.7	36.9
=	0.0	0.0	255.2	36.8
=	0.0	0.0	255.7	36.7
=	0.0	0.0	256.3	36.6
=	0.0	0.0	256.9	36.5
=	0.0	0.0	257.5	36.4
=	0.0	0.0	258.1	36.3
=	0.0	0.0	258.6	36.3
=	0.0	0.0	259.0	36.2
=	0.0	0.0	259.4	36.1
=	0.0	0.0	259.9	36.0
=	0.0	0.0	260.3	36.0
=	0.0	0.0	260.7	35.9
=	0.0	0.0	261.1	35.9
=	0.0	0.0	261.6	35.8
=	0.0	0.0	262.1	35.7
=	0.0	0.0	262.5	35.6
=	0.0	0.0	263.0	35.5
=	0.0	0.0	263.3	35.4
=	0.0	0.0	263.8	35.4
=	0.0	0.0	264.4	35.3
=	0.0	0.0	264.9	35.2
=	0.0	0.0	265.5	35.1
=	0.0	0.0	266.0	35.0
=	0.0	0.0	266.6	34.9
=	0.0	0.0	267.1	34.9
=	0.0	0.0	267.6	34.8
=	0.0	0.0	268.0	34.7
=	0.0	0.0	268.5	34.6
=	0.0	0.0	268.9	34.6
=	0.0	0.0	269.2	34.5
=	0.0	0.0	269.8	34.4
=	0.0	0.0	270.3	34.4
=	0.0	0.0	270.8	34.3
=	0.0	0.0	271.3	34.3
=	0.0	0.0	271.9	34.2
=	0.0	0.0	272.4	34.1
=	0.0	0.0	272.9	33.9
=	0.0	0.0	273.5	33.9
=	0.0	0.0	274.0	33.8
=	0.0	0.0	274.5	33.8
=	0.0	0.0	275.0	33.7
=	0.0	0.0	275.4	33.6
=	0.0	0.0	275.8	33.6
=	0.0	0.0	276.3	33.5
=	0.0	0.0	276.8	33.4
=	0.0	0.0	277.2	33.3
=	0.0	0.0	277.7	33.2
=	0.0	0.0	278.2	33.1
=	0.0	0.0	278.8	33.0
=	0.0	0.0	279.3	32.9
=	0.0	0.0	279.8	32.9
=	0.0	0.0	280.1	32.8
=	0.0	0.0	280.5	32.8
=	0.0	0.0	281.1	32.7
=	0.0	0.0	281.5	32.7
=	0.0	0.0	282.0	32.6
=	0.0	0.0	282.4	32.5
=	0.0	0.0	282.9	32.5
=	0.0	0.0	283.5	32.4
=	0.0	0.0	284.0	32.3
=	0.0	0.0	284.4	32.3
=	0.0	0.0	284.8	32.2
=	0.0	0.0	285.2	32.2
=	0.0	0.0	285.7	32.1
=	0.0	0.0	286.4	32.0
=	0.0	0.0	286.9	31.9
=	0.0	0.0	287.5	31.8
=	0.0	0.0	288.0	31.7
=	0.0	0.0	288.5	31.7
=	0.0	0.0	289.0	31.6
=	0.0	0.0	289.5	31.5
=	0.0	0.0	290.1	31.4
=	0.0	0.0	290.7	31.3
=	0.0	0.0	291.1	31.3
=	0.0	0.0	291.5	31.2
=	0.0	0.0	292.0	31.2
=	0.0	0.0	292.4	31.1
=	0.0	0.0	292.8	31.1
=	0.0	0.0	293.2	31.0
=	0.0	0.0	293.5	31.0
=	0.0	0.0	293.9	30.9
=	0.0	0.0	294.3	30.9
=	0.0	0.0	294.7	30.8
=	0.0	0.0	295.2	30.8
=	0.0	0.0	295.6	30.7
=	0.0	0.0	296.2	30.6
=	0.0	0.0	296.6	30.6
=	0.0	0.0	297.0	30.5
=	0.0	0.0	297.4	30.4
=	0.0	0.0	297.9	30.4
=	0.0	0.0	298.4	30.3
=	0.0	0.0	299.0	30.2
=	0.0	0.0	299.4	30.2
=	0.0	0.0	299.8	30.1
=	0.0	0.0	300.2	30.0
=	0.0	0.0	300.8	30.0
=	0.0	0.0	301.3	29.9
=	0.0	0.0	301.7	29.8
=	0.0	0.0	302.1	29.8
=	0.0	0.0	302.5	29.7
=	0.0	0.0	303.1	29.7
=	0.0	0.0	303.6	29.6
=	0.0	0.0	304.1	29.6
=	0.0	0.0	304.5	29.5
=	0.0	0.0	305.1	29.4
=	0.0	0.0	305.7	29.3
=	0.0	0.0	306.1	29.3
=	0.0	0.0	306.5	29.2
=	0.0	0.0	306.9	29.2
=	0.0	0.0	307.4	29.1
=	0.0	0.0	308.0	29.0
=	0.0	0.0	308.5	29.0
=	0.0	0.0	308.9	28.9
=	0.0	0.0	309.4	28.9
=	0.0	0.0	309.9	28.8
=	0.0	0.0	310.4	28.7
=	0.0	0.0	310.9	28.6
=	0.0	0.0	311.4	28.6
=	0.0	0.0	312.0	28.5
=	0.0	0.0	312.4	28.5
=	0.0	0.0	312.9	28.4
=	0.0	0.0	313.4	28.4
=	0.0	0.0	313.8	28.3
=	0.0	0.0	314.4	28.2
=	0.0	0.0	315.0	28.1
=	0.0	0.0	315.4	28.0
