:MSR 	5	 # No. of measurement in file
:SYS BDS 0   # Beam Data Scanner System
#
# RFA300 ASCII Measurement Dump ( BDS format )
#
# Measurement number 	1
#
%VNR 1.0
%MOD 	RAT
%TYP 	SCN
%SCN 	PRO
%FLD 	ION
%DAT 	10-14-2011
%TIM 	12:00:00
%FSZ 	400	200
%BMT 	PHO	   10.0
%SSD 	1000
%BUP 	0
%BRD 	1000
%FSH 	1
%ASC 	0
%WEG 	45
%GPO 	0
%CPO 	0
%MEA 	6
%PRD 	24,0
%PTS 	825
%STS 	    0.0	  -254.5	   24.0 # Start Scan values in mm ( X , Y , Z )
%EDS 	    0.0	   254.5	   24.0 # End Scan values in mm ( X , Y , Z )
#
#	  X      Y      Z     Dose
#
=	0.0	-254.5	24.0	7.8
=	0.0	-253.8	24.0	7.9
=	0.0	-253.0	24.0	7.9
=	0.0	-252.3	24.0	8.0
=	0.0	-251.6	24.0	8.0
=	0.0	-250.9	24.0	8.0
=	0.0	-250.3	24.0	8.1
=	0.0	-249.8	24.0	8.1
=	0.0	-249.1	24.0	8.1
=	0.0	-248.5	24.0	8.2
=	0.0	-248.0	24.0	8.2
=	0.0	-247.5	24.0	8.2
=	0.0	-246.8	24.0	8.3
=	0.0	-246.1	24.0	8.3
=	0.0	-245.4	24.0	8.4
=	0.0	-244.8	24.0	8.4
=	0.0	-244.4	24.0	8.4
=	0.0	-243.9	24.0	8.5
=	0.0	-243.3	24.0	8.5
=	0.0	-242.8	24.0	8.5
=	0.0	-242.2	24.0	8.6
=	0.0	-241.5	24.0	8.6
=	0.0	-240.9	24.0	8.7
=	0.0	-240.3	24.0	8.7
=	0.0	-239.7	24.0	8.8
=	0.0	-239.2	24.0	8.8
=	0.0	-238.6	24.0	8.8
=	0.0	-238.0	24.0	8.9
=	0.0	-237.2	24.0	8.9
=	0.0	-236.6	24.0	8.9
=	0.0	-236.0	24.0	9.0
=	0.0	-235.4	24.0	9.0
=	0.0	-234.9	24.0	9.1
=	0.0	-234.3	24.0	9.1
=	0.0	-233.7	24.0	9.2
=	0.0	-233.2	24.0	9.3
=	0.0	-232.5	24.0	9.4
=	0.0	-231.7	24.0	9.5
=	0.0	-231.1	24.0	9.6
=	0.0	-230.4	24.0	9.6
=	0.0	-229.8	24.0	9.7
=	0.0	-229.1	24.0	9.8
=	0.0	-228.6	24.0	9.9
=	0.0	-227.9	24.0	9.9
=	0.0	-227.2	24.0	10.0
=	0.0	-226.6	24.0	10.1
=	0.0	-225.9	24.0	10.2
=	0.0	-225.4	24.0	10.3
=	0.0	-224.9	24.0	10.4
=	0.0	-224.3	24.0	10.4
=	0.0	-223.8	24.0	10.5
=	0.0	-223.2	24.0	10.6
=	0.0	-222.7	24.0	10.7
=	0.0	-222.1	24.0	10.8
=	0.0	-221.4	24.0	10.9
=	0.0	-220.7	24.0	11.1
=	0.0	-220.0	24.0	11.2
=	0.0	-219.4	24.0	11.3
=	0.0	-218.8	24.0	11.5
=	0.0	-218.1	24.0	11.7
=	0.0	-217.6	24.0	11.9
=	0.0	-216.9	24.0	12.0
=	0.0	-216.4	24.0	12.2
=	0.0	-215.7	24.0	12.6
=	0.0	-215.0	24.0	12.9
=	0.0	-214.2	24.0	13.3
=	0.0	-213.6	24.0	13.8
=	0.0	-213.0	24.0	14.3
=	0.0	-212.4	24.0	14.9
=	0.0	-211.7	24.0	15.8
=	0.0	-211.1	24.0	16.7
=	0.0	-210.4	24.0	18.3
=	0.0	-209.8	24.0	19.7
=	0.0	-209.3	24.0	21.5
=	0.0	-208.7	24.0	23.7
=	0.0	-208.1	24.0	26.3
=	0.0	-207.6	24.0	29.5
=	0.0	-207.0	24.0	33.0
=	0.0	-206.4	24.0	36.7
=	0.0	-205.8	24.0	41.0
=	0.0	-205.3	24.0	45.5
=	0.0	-204.6	24.0	51.3
=	0.0	-204.0	24.0	56.1
=	0.0	-203.3	24.0	61.9
=	0.0	-202.7	24.0	66.9
=	0.0	-202.2	24.0	70.8
=	0.0	-201.6	24.0	74.6
=	0.0	-201.0	24.0	78.1
=	0.0	-200.4	24.0	81.2
=	0.0	-199.8	24.0	83.8
=	0.0	-199.0	24.0	86.2
=	0.0	-198.4	24.0	87.8
=	0.0	-197.8	24.0	89.0
=	0.0	-197.2	24.0	89.9
=	0.0	-196.6	24.0	90.8
=	0.0	-196.0	24.0	91.4
=	0.0	-195.4	24.0	92.0
=	0.0	-194.9	24.0	92.4
=	0.0	-194.2	24.0	92.8
=	0.0	-193.6	24.0	93.2
=	0.0	-193.0	24.0	93.4
=	0.0	-192.5	24.0	93.6
=	0.0	-191.9	24.0	93.8
=	0.0	-191.3	24.0	94.0
=	0.0	-190.5	24.0	94.3
=	0.0	-189.8	24.0	94.4
=	0.0	-189.2	24.0	94.6
=	0.0	-188.6	24.0	94.8
=	0.0	-188.0	24.0	94.9
=	0.0	-187.4	24.0	95.0
=	0.0	-186.8	24.0	95.0
=	0.0	-186.2	24.0	95.2
=	0.0	-185.7	24.0	95.3
=	0.0	-185.2	24.0	95.4
=	0.0	-184.6	24.0	95.4
=	0.0	-184.0	24.0	95.5
=	0.0	-183.4	24.0	95.7
=	0.0	-182.7	24.0	95.8
=	0.0	-182.1	24.0	95.9
=	0.0	-181.4	24.0	95.9
=	0.0	-180.7	24.0	96.0
=	0.0	-180.2	24.0	96.1
=	0.0	-179.6	24.0	96.2
=	0.0	-178.9	24.0	96.3
=	0.0	-178.3	24.0	96.3
=	0.0	-177.7	24.0	96.4
=	0.0	-177.1	24.0	96.4
=	0.0	-176.6	24.0	96.4
=	0.0	-176.0	24.0	96.5
=	0.0	-175.5	24.0	96.6
=	0.0	-175.0	24.0	96.6
=	0.0	-174.3	24.0	96.7
=	0.0	-173.7	24.0	96.7
=	0.0	-173.1	24.0	96.7
=	0.0	-172.6	24.0	96.8
=	0.0	-172.0	24.0	96.8
=	0.0	-171.4	24.0	96.9
=	0.0	-170.7	24.0	96.9
=	0.0	-170.1	24.0	97.0
=	0.0	-169.4	24.0	97.0
=	0.0	-168.6	24.0	97.1
=	0.0	-168.0	24.0	97.1
=	0.0	-167.4	24.0	97.1
=	0.0	-166.7	24.0	97.2
=	0.0	-166.0	24.0	97.2
=	0.0	-165.3	24.0	97.2
=	0.0	-164.6	24.0	97.2
=	0.0	-164.1	24.0	97.3
=	0.0	-163.6	24.0	97.3
=	0.0	-162.9	24.0	97.4
=	0.0	-162.2	24.0	97.4
=	0.0	-161.5	24.0	97.5
=	0.0	-160.9	24.0	97.5
=	0.0	-160.1	24.0	97.6
=	0.0	-159.5	24.0	97.6
=	0.0	-158.7	24.0	97.6
=	0.0	-158.0	24.0	97.6
=	0.0	-157.3	24.0	97.7
=	0.0	-156.8	24.0	97.7
=	0.0	-156.1	24.0	97.7
=	0.0	-155.6	24.0	97.8
=	0.0	-155.0	24.0	97.8
=	0.0	-154.4	24.0	97.8
=	0.0	-153.8	24.0	97.9
=	0.0	-153.2	24.0	97.9
=	0.0	-152.6	24.0	97.9
=	0.0	-151.9	24.0	98.0
=	0.0	-151.3	24.0	98.1
=	0.0	-150.6	24.0	98.1
=	0.0	-149.9	24.0	98.2
=	0.0	-149.3	24.0	98.2
=	0.0	-148.8	24.0	98.2
=	0.0	-148.1	24.0	98.2
=	0.0	-147.4	24.0	98.2
=	0.0	-146.8	24.0	98.3
=	0.0	-146.2	24.0	98.3
=	0.0	-145.5	24.0	98.4
=	0.0	-144.8	24.0	98.4
=	0.0	-144.1	24.0	98.4
=	0.0	-143.5	24.0	98.5
=	0.0	-142.8	24.0	98.5
=	0.0	-142.2	24.0	98.6
=	0.0	-141.5	24.0	98.6
=	0.0	-140.8	24.0	98.7
=	0.0	-140.3	24.0	98.7
=	0.0	-139.8	24.0	98.7
=	0.0	-139.2	24.0	98.7
=	0.0	-138.5	24.0	98.8
=	0.0	-138.0	24.0	98.8
=	0.0	-137.4	24.0	98.9
=	0.0	-136.8	24.0	98.9
=	0.0	-136.2	24.0	98.9
=	0.0	-135.5	24.0	99.0
=	0.0	-134.6	24.0	99.0
=	0.0	-133.9	24.0	99.0
=	0.0	-133.3	24.0	99.1
=	0.0	-132.7	24.0	99.1
=	0.0	-132.1	24.0	99.2
=	0.0	-131.4	24.0	99.2
=	0.0	-130.7	24.0	99.2
=	0.0	-130.2	24.0	99.3
=	0.0	-129.7	24.0	99.3
=	0.0	-129.2	24.0	99.3
=	0.0	-128.5	24.0	99.3
=	0.0	-127.8	24.0	99.4
=	0.0	-127.2	24.0	99.4
=	0.0	-126.6	24.0	99.4
=	0.0	-126.0	24.0	99.4
=	0.0	-125.5	24.0	99.5
=	0.0	-124.8	24.0	99.5
=	0.0	-124.1	24.0	99.6
=	0.0	-123.5	24.0	99.6
=	0.0	-122.9	24.0	99.7
=	0.0	-122.3	24.0	99.7
=	0.0	-121.6	24.0	99.8
=	0.0	-121.0	24.0	99.8
=	0.0	-120.4	24.0	99.8
=	0.0	-119.8	24.0	99.9
=	0.0	-119.3	24.0	99.9
=	0.0	-118.8	24.0	99.9
=	0.0	-118.2	24.0	99.9
=	0.0	-117.6	24.0	99.9
=	0.0	-117.0	24.0	99.9
=	0.0	-116.3	24.0	99.9
=	0.0	-115.7	24.0	100.0
=	0.0	-115.0	24.0	100.0
=	0.0	-114.2	24.0	100.1
=	0.0	-113.5	24.0	100.1
=	0.0	-112.9	24.0	100.2
=	0.0	-112.3	24.0	100.2
=	0.0	-111.7	24.0	100.2
=	0.0	-110.9	24.0	100.3
=	0.0	-110.4	24.0	100.3
=	0.0	-109.8	24.0	100.3
=	0.0	-109.1	24.0	100.4
=	0.0	-108.5	24.0	100.4
=	0.0	-107.9	24.0	100.4
=	0.0	-107.2	24.0	100.4
=	0.0	-106.6	24.0	100.4
=	0.0	-106.0	24.0	100.5
=	0.0	-105.4	24.0	100.5
=	0.0	-104.8	24.0	100.6
=	0.0	-104.0	24.0	100.6
=	0.0	-103.4	24.0	100.6
=	0.0	-102.8	24.0	100.7
=	0.0	-102.1	24.0	100.7
=	0.0	-101.6	24.0	100.7
=	0.0	-100.8	24.0	100.7
=	0.0	-100.2	24.0	100.8
=	0.0	-99.6	24.0	100.8
=	0.0	-99.0	24.0	100.8
=	0.0	-98.4	24.0	100.8
=	0.0	-97.7	24.0	100.9
=	0.0	-97.0	24.0	100.9
=	0.0	-96.4	24.0	100.9
=	0.0	-95.7	24.0	100.9
=	0.0	-95.0	24.0	100.9
=	0.0	-94.4	24.0	100.9
=	0.0	-93.8	24.0	101.0
=	0.0	-93.1	24.0	101.0
=	0.0	-92.5	24.0	100.9
=	0.0	-91.9	24.0	101.0
=	0.0	-91.1	24.0	101.0
=	0.0	-90.5	24.0	101.0
=	0.0	-89.9	24.0	101.0
=	0.0	-89.2	24.0	101.1
=	0.0	-88.4	24.0	101.1
=	0.0	-87.7	24.0	101.2
=	0.0	-87.1	24.0	101.2
=	0.0	-86.6	24.0	101.2
=	0.0	-85.9	24.0	101.2
=	0.0	-85.3	24.0	101.2
=	0.0	-84.7	24.0	101.2
=	0.0	-84.0	24.0	101.2
=	0.0	-83.4	24.0	101.2
=	0.0	-82.8	24.0	101.3
=	0.0	-82.3	24.0	101.3
=	0.0	-81.7	24.0	101.3
=	0.0	-81.2	24.0	101.3
=	0.0	-80.5	24.0	101.3
=	0.0	-79.9	24.0	101.3
=	0.0	-79.3	24.0	101.4
=	0.0	-78.6	24.0	101.4
=	0.0	-77.9	24.0	101.4
=	0.0	-77.3	24.0	101.4
=	0.0	-76.6	24.0	101.4
=	0.0	-76.1	24.0	101.4
=	0.0	-75.5	24.0	101.5
=	0.0	-74.9	24.0	101.5
=	0.0	-74.2	24.0	101.5
=	0.0	-73.6	24.0	101.5
=	0.0	-73.0	24.0	101.5
=	0.0	-72.3	24.0	101.5
=	0.0	-71.7	24.0	101.5
=	0.0	-71.1	24.0	101.5
=	0.0	-70.5	24.0	101.5
=	0.0	-70.0	24.0	101.5
=	0.0	-69.5	24.0	101.5
=	0.0	-68.7	24.0	101.5
=	0.0	-68.1	24.0	101.5
=	0.0	-67.5	24.0	101.5
=	0.0	-67.0	24.0	101.5
=	0.0	-66.3	24.0	101.6
=	0.0	-65.6	24.0	101.6
=	0.0	-65.0	24.0	101.6
=	0.0	-64.3	24.0	101.6
=	0.0	-63.8	24.0	101.6
=	0.0	-63.3	24.0	101.6
=	0.0	-62.7	24.0	101.6
=	0.0	-62.1	24.0	101.6
=	0.0	-61.5	24.0	101.6
=	0.0	-61.0	24.0	101.6
=	0.0	-60.5	24.0	101.6
=	0.0	-59.9	24.0	101.6
=	0.0	-59.3	24.0	101.6
=	0.0	-58.7	24.0	101.6
=	0.0	-58.1	24.0	101.6
=	0.0	-57.5	24.0	101.6
=	0.0	-57.1	24.0	101.6
=	0.0	-56.5	24.0	101.6
=	0.0	-55.8	24.0	101.6
=	0.0	-55.1	24.0	101.5
=	0.0	-54.3	24.0	101.5
=	0.0	-53.8	24.0	101.5
=	0.0	-53.2	24.0	101.5
=	0.0	-52.5	24.0	101.5
=	0.0	-52.0	24.0	101.5
=	0.0	-51.4	24.0	101.5
=	0.0	-50.6	24.0	101.5
=	0.0	-50.0	24.0	101.5
=	0.0	-49.4	24.0	101.5
=	0.0	-48.7	24.0	101.5
=	0.0	-48.1	24.0	101.5
=	0.0	-47.5	24.0	101.5
=	0.0	-47.0	24.0	101.5
=	0.0	-46.6	24.0	101.4
=	0.0	-46.0	24.0	101.4
=	0.0	-45.3	24.0	101.4
=	0.0	-44.8	24.0	101.4
=	0.0	-44.3	24.0	101.4
=	0.0	-43.7	24.0	101.3
=	0.0	-43.1	24.0	101.2
=	0.0	-42.5	24.0	101.2
=	0.0	-41.9	24.0	101.2
=	0.0	-41.3	24.0	101.2
=	0.0	-40.7	24.0	101.2
=	0.0	-39.9	24.0	101.1
=	0.0	-39.4	24.0	101.1
=	0.0	-38.8	24.0	101.1
=	0.0	-38.1	24.0	101.1
=	0.0	-37.6	24.0	101.1
=	0.0	-36.9	24.0	101.0
=	0.0	-36.4	24.0	101.0
=	0.0	-35.9	24.0	101.0
=	0.0	-35.3	24.0	100.9
=	0.0	-34.8	24.0	100.9
=	0.0	-34.0	24.0	100.9
=	0.0	-33.4	24.0	100.9
=	0.0	-32.9	24.0	100.9
=	0.0	-32.2	24.0	100.9
=	0.0	-31.6	24.0	100.9
=	0.0	-31.0	24.0	100.8
=	0.0	-30.4	24.0	100.8
=	0.0	-29.7	24.0	100.8
=	0.0	-28.9	24.0	100.8
=	0.0	-28.2	24.0	100.8
=	0.0	-27.5	24.0	100.8
=	0.0	-26.9	24.0	100.8
=	0.0	-26.3	24.0	100.8
=	0.0	-25.7	24.0	100.8
=	0.0	-25.1	24.0	100.8
=	0.0	-24.6	24.0	100.8
=	0.0	-24.1	24.0	100.7
=	0.0	-23.4	24.0	100.7
=	0.0	-23.0	24.0	100.7
=	0.0	-22.4	24.0	100.6
=	0.0	-21.8	24.0	100.6
=	0.0	-21.2	24.0	100.6
=	0.0	-20.5	24.0	100.6
=	0.0	-19.9	24.0	100.5
=	0.0	-19.3	24.0	100.5
=	0.0	-18.8	24.0	100.5
=	0.0	-18.1	24.0	100.4
=	0.0	-17.6	24.0	100.3
=	0.0	-16.9	24.0	100.3
=	0.0	-16.2	24.0	100.3
=	0.0	-15.5	24.0	100.3
=	0.0	-14.9	24.0	100.3
=	0.0	-14.2	24.0	100.3
=	0.0	-13.5	24.0	100.3
=	0.0	-12.8	24.0	100.2
=	0.0	-12.1	24.0	100.2
=	0.0	-11.5	24.0	100.2
=	0.0	-11.0	24.0	100.1
=	0.0	-10.5	24.0	100.1
=	0.0	-9.8	24.0	100.1
=	0.0	-9.1	24.0	100.0
=	0.0	-8.6	24.0	100.0
=	0.0	-7.9	24.0	100.0
=	0.0	-7.1	24.0	100.0
=	0.0	-6.5	24.0	99.9
=	0.0	-5.9	24.0	100.0
=	0.0	-5.4	24.0	100.0
=	0.0	-4.8	24.0	100.0
=	0.0	-4.1	24.0	100.0
=	0.0	-3.5	24.0	100.0
=	0.0	-2.9	24.0	100.0
=	0.0	-2.4	24.0	100.0
=	0.0	-1.8	24.0	100.0
=	0.0	-1.3	24.0	100.0
=	0.0	-0.8	24.0	100.0
=	0.0	-0.3	24.0	100.0
=	0.0	0.0	24.0	100.0
=	0.0	0.3	24.0	100.0
=	0.0	0.8	24.0	100.0
=	0.0	1.3	24.0	100.0
=	0.0	1.8	24.0	100.0
=	0.0	2.4	24.0	100.0
=	0.0	2.9	24.0	100.0
=	0.0	3.5	24.0	100.0
=	0.0	4.1	24.0	100.0
=	0.0	4.8	24.0	100.0
=	0.0	5.4	24.0	100.0
=	0.0	5.9	24.0	100.0
=	0.0	6.5	24.0	99.9
=	0.0	7.1	24.0	100.0
=	0.0	7.9	24.0	100.0
=	0.0	8.6	24.0	100.0
=	0.0	9.1	24.0	100.0
=	0.0	9.8	24.0	100.1
=	0.0	10.5	24.0	100.1
=	0.0	11.0	24.0	100.1
=	0.0	11.5	24.0	100.2
=	0.0	12.1	24.0	100.2
=	0.0	12.8	24.0	100.2
=	0.0	13.5	24.0	100.3
=	0.0	14.2	24.0	100.3
=	0.0	14.9	24.0	100.3
=	0.0	15.5	24.0	100.3
=	0.0	16.2	24.0	100.3
=	0.0	16.9	24.0	100.3
=	0.0	17.6	24.0	100.3
=	0.0	18.1	24.0	100.4
=	0.0	18.8	24.0	100.5
=	0.0	19.3	24.0	100.5
=	0.0	19.9	24.0	100.5
=	0.0	20.5	24.0	100.6
=	0.0	21.2	24.0	100.6
=	0.0	21.8	24.0	100.6
=	0.0	22.4	24.0	100.6
=	0.0	23.0	24.0	100.7
=	0.0	23.4	24.0	100.7
=	0.0	24.1	24.0	100.7
=	0.0	24.6	24.0	100.8
=	0.0	25.1	24.0	100.8
=	0.0	25.7	24.0	100.8
=	0.0	26.3	24.0	100.8
=	0.0	26.9	24.0	100.8
=	0.0	27.5	24.0	100.8
=	0.0	28.2	24.0	100.8
=	0.0	28.9	24.0	100.8
=	0.0	29.7	24.0	100.8
=	0.0	30.4	24.0	100.8
=	0.0	31.0	24.0	100.8
=	0.0	31.6	24.0	100.9
=	0.0	32.2	24.0	100.9
=	0.0	32.9	24.0	100.9
=	0.0	33.4	24.0	100.9
=	0.0	34.0	24.0	100.9
=	0.0	34.8	24.0	100.9
=	0.0	35.3	24.0	100.9
=	0.0	35.9	24.0	101.0
=	0.0	36.4	24.0	101.0
=	0.0	36.9	24.0	101.0
=	0.0	37.6	24.0	101.1
=	0.0	38.1	24.0	101.1
=	0.0	38.8	24.0	101.1
=	0.0	39.4	24.0	101.1
=	0.0	39.9	24.0	101.1
=	0.0	40.7	24.0	101.2
=	0.0	41.3	24.0	101.2
=	0.0	41.9	24.0	101.2
=	0.0	42.5	24.0	101.2
=	0.0	43.1	24.0	101.2
=	0.0	43.7	24.0	101.3
=	0.0	44.3	24.0	101.4
=	0.0	44.8	24.0	101.4
=	0.0	45.3	24.0	101.4
=	0.0	46.0	24.0	101.4
=	0.0	46.6	24.0	101.4
=	0.0	47.0	24.0	101.5
=	0.0	47.5	24.0	101.5
=	0.0	48.1	24.0	101.5
=	0.0	48.7	24.0	101.5
=	0.0	49.4	24.0	101.5
=	0.0	50.0	24.0	101.5
=	0.0	50.6	24.0	101.5
=	0.0	51.4	24.0	101.5
=	0.0	52.0	24.0	101.5
=	0.0	52.5	24.0	101.5
=	0.0	53.2	24.0	101.5
=	0.0	53.8	24.0	101.5
=	0.0	54.3	24.0	101.5
=	0.0	55.1	24.0	101.5
=	0.0	55.8	24.0	101.6
=	0.0	56.5	24.0	101.6
=	0.0	57.1	24.0	101.6
=	0.0	57.5	24.0	101.6
=	0.0	58.1	24.0	101.6
=	0.0	58.7	24.0	101.6
=	0.0	59.3	24.0	101.6
=	0.0	59.9	24.0	101.6
=	0.0	60.5	24.0	101.6
=	0.0	61.0	24.0	101.6
=	0.0	61.5	24.0	101.6
=	0.0	62.1	24.0	101.6
=	0.0	62.7	24.0	101.6
=	0.0	63.3	24.0	101.6
=	0.0	63.8	24.0	101.6
=	0.0	64.3	24.0	101.6
=	0.0	65.0	24.0	101.6
=	0.0	65.6	24.0	101.6
=	0.0	66.3	24.0	101.6
=	0.0	67.0	24.0	101.5
=	0.0	67.5	24.0	101.5
=	0.0	68.1	24.0	101.5
=	0.0	68.7	24.0	101.5
=	0.0	69.5	24.0	101.5
=	0.0	70.0	24.0	101.5
=	0.0	70.5	24.0	101.5
=	0.0	71.1	24.0	101.5
=	0.0	71.7	24.0	101.5
=	0.0	72.3	24.0	101.5
=	0.0	73.0	24.0	101.5
=	0.0	73.6	24.0	101.5
=	0.0	74.2	24.0	101.5
=	0.0	74.9	24.0	101.5
=	0.0	75.5	24.0	101.5
=	0.0	76.1	24.0	101.4
=	0.0	76.6	24.0	101.4
=	0.0	77.3	24.0	101.4
=	0.0	77.9	24.0	101.4
=	0.0	78.6	24.0	101.4
=	0.0	79.3	24.0	101.4
=	0.0	79.9	24.0	101.3
=	0.0	80.5	24.0	101.3
=	0.0	81.2	24.0	101.3
=	0.0	81.7	24.0	101.3
=	0.0	82.3	24.0	101.3
=	0.0	82.8	24.0	101.3
=	0.0	83.4	24.0	101.2
=	0.0	84.0	24.0	101.2
=	0.0	84.7	24.0	101.2
=	0.0	85.3	24.0	101.2
=	0.0	85.9	24.0	101.2
=	0.0	86.6	24.0	101.2
=	0.0	87.1	24.0	101.2
=	0.0	87.7	24.0	101.2
=	0.0	88.4	24.0	101.1
=	0.0	89.2	24.0	101.1
=	0.0	89.9	24.0	101.0
=	0.0	90.5	24.0	101.0
=	0.0	91.1	24.0	101.0
=	0.0	91.9	24.0	101.0
=	0.0	92.5	24.0	100.9
=	0.0	93.1	24.0	101.0
=	0.0	93.8	24.0	101.0
=	0.0	94.4	24.0	100.9
=	0.0	95.0	24.0	100.9
=	0.0	95.7	24.0	100.9
=	0.0	96.4	24.0	100.9
=	0.0	97.0	24.0	100.9
=	0.0	97.7	24.0	100.9
=	0.0	98.4	24.0	100.8
=	0.0	99.0	24.0	100.8
=	0.0	99.6	24.0	100.8
=	0.0	100.2	24.0	100.8
=	0.0	100.8	24.0	100.7
=	0.0	101.6	24.0	100.7
=	0.0	102.1	24.0	100.7
=	0.0	102.8	24.0	100.7
=	0.0	103.4	24.0	100.6
=	0.0	104.0	24.0	100.6
=	0.0	104.8	24.0	100.6
=	0.0	105.4	24.0	100.5
=	0.0	106.0	24.0	100.5
=	0.0	106.6	24.0	100.4
=	0.0	107.2	24.0	100.4
=	0.0	107.9	24.0	100.4
=	0.0	108.5	24.0	100.4
=	0.0	109.1	24.0	100.4
=	0.0	109.8	24.0	100.3
=	0.0	110.4	24.0	100.3
=	0.0	110.9	24.0	100.3
=	0.0	111.7	24.0	100.2
=	0.0	112.3	24.0	100.2
=	0.0	112.9	24.0	100.2
=	0.0	113.5	24.0	100.1
=	0.0	114.2	24.0	100.1
=	0.0	115.0	24.0	100.0
=	0.0	115.7	24.0	100.0
=	0.0	116.3	24.0	99.9
=	0.0	117.0	24.0	99.9
=	0.0	117.6	24.0	99.9
=	0.0	118.2	24.0	99.9
=	0.0	118.8	24.0	99.9
=	0.0	119.3	24.0	99.9
=	0.0	119.8	24.0	99.9
=	0.0	120.4	24.0	99.8
=	0.0	121.0	24.0	99.8
=	0.0	121.6	24.0	99.8
=	0.0	122.3	24.0	99.7
=	0.0	122.9	24.0	99.7
=	0.0	123.5	24.0	99.6
=	0.0	124.1	24.0	99.6
=	0.0	124.8	24.0	99.5
=	0.0	125.5	24.0	99.5
=	0.0	126.0	24.0	99.4
=	0.0	126.6	24.0	99.4
=	0.0	127.2	24.0	99.4
=	0.0	127.8	24.0	99.4
=	0.0	128.5	24.0	99.3
=	0.0	129.2	24.0	99.3
=	0.0	129.7	24.0	99.3
=	0.0	130.2	24.0	99.3
=	0.0	130.7	24.0	99.2
=	0.0	131.4	24.0	99.2
=	0.0	132.1	24.0	99.2
=	0.0	132.7	24.0	99.1
=	0.0	133.3	24.0	99.1
=	0.0	133.9	24.0	99.0
=	0.0	134.6	24.0	99.0
=	0.0	135.5	24.0	99.0
=	0.0	136.2	24.0	98.9
=	0.0	136.8	24.0	98.9
=	0.0	137.4	24.0	98.9
=	0.0	138.0	24.0	98.8
=	0.0	138.5	24.0	98.8
=	0.0	139.2	24.0	98.7
=	0.0	139.8	24.0	98.7
=	0.0	140.3	24.0	98.7
=	0.0	140.8	24.0	98.7
=	0.0	141.5	24.0	98.6
=	0.0	142.2	24.0	98.6
=	0.0	142.8	24.0	98.5
=	0.0	143.5	24.0	98.5
=	0.0	144.1	24.0	98.4
=	0.0	144.8	24.0	98.4
=	0.0	145.5	24.0	98.4
=	0.0	146.2	24.0	98.3
=	0.0	146.8	24.0	98.3
=	0.0	147.4	24.0	98.2
=	0.0	148.1	24.0	98.2
=	0.0	148.8	24.0	98.2
=	0.0	149.3	24.0	98.2
=	0.0	149.9	24.0	98.2
=	0.0	150.6	24.0	98.1
=	0.0	151.3	24.0	98.1
=	0.0	151.9	24.0	98.0
=	0.0	152.6	24.0	97.9
=	0.0	153.2	24.0	97.9
=	0.0	153.8	24.0	97.9
=	0.0	154.4	24.0	97.8
=	0.0	155.0	24.0	97.8
=	0.0	155.6	24.0	97.8
=	0.0	156.1	24.0	97.7
=	0.0	156.8	24.0	97.7
=	0.0	157.3	24.0	97.7
=	0.0	158.0	24.0	97.6
=	0.0	158.7	24.0	97.6
=	0.0	159.5	24.0	97.6
=	0.0	160.1	24.0	97.6
=	0.0	160.9	24.0	97.5
=	0.0	161.5	24.0	97.5
=	0.0	162.2	24.0	97.4
=	0.0	162.9	24.0	97.4
=	0.0	163.6	24.0	97.3
=	0.0	164.1	24.0	97.3
=	0.0	164.6	24.0	97.2
=	0.0	165.3	24.0	97.2
=	0.0	166.0	24.0	97.2
=	0.0	166.7	24.0	97.2
=	0.0	167.4	24.0	97.1
=	0.0	168.0	24.0	97.1
=	0.0	168.6	24.0	97.1
=	0.0	169.4	24.0	97.0
=	0.0	170.1	24.0	97.0
=	0.0	170.7	24.0	96.9
=	0.0	171.4	24.0	96.9
=	0.0	172.0	24.0	96.8
=	0.0	172.6	24.0	96.8
=	0.0	173.1	24.0	96.7
=	0.0	173.7	24.0	96.7
=	0.0	174.3	24.0	96.7
=	0.0	175.0	24.0	96.6
=	0.0	175.5	24.0	96.6
=	0.0	176.0	24.0	96.5
=	0.0	176.6	24.0	96.4
=	0.0	177.1	24.0	96.4
=	0.0	177.7	24.0	96.4
=	0.0	178.3	24.0	96.3
=	0.0	178.9	24.0	96.3
=	0.0	179.6	24.0	96.2
=	0.0	180.2	24.0	96.1
=	0.0	180.7	24.0	96.0
=	0.0	181.4	24.0	95.9
=	0.0	182.1	24.0	95.9
=	0.0	182.7	24.0	95.8
=	0.0	183.4	24.0	95.7
=	0.0	184.0	24.0	95.5
=	0.0	184.6	24.0	95.4
=	0.0	185.2	24.0	95.4
=	0.0	185.7	24.0	95.3
=	0.0	186.2	24.0	95.2
=	0.0	186.8	24.0	95.0
=	0.0	187.4	24.0	95.0
=	0.0	188.0	24.0	94.9
=	0.0	188.6	24.0	94.8
=	0.0	189.2	24.0	94.6
=	0.0	189.8	24.0	94.4
=	0.0	190.5	24.0	94.3
=	0.0	191.3	24.0	94.0
=	0.0	191.9	24.0	93.8
=	0.0	192.5	24.0	93.6
=	0.0	193.0	24.0	93.4
=	0.0	193.6	24.0	93.2
=	0.0	194.2	24.0	92.8
=	0.0	194.9	24.0	92.4
=	0.0	195.4	24.0	92.0
=	0.0	196.0	24.0	91.4
=	0.0	196.6	24.0	90.8
=	0.0	197.2	24.0	89.9
=	0.0	197.8	24.0	89.0
=	0.0	198.4	24.0	87.8
=	0.0	199.0	24.0	86.2
=	0.0	199.8	24.0	83.8
=	0.0	200.4	24.0	81.2
=	0.0	201.0	24.0	78.1
=	0.0	201.6	24.0	74.6
=	0.0	202.2	24.0	70.8
=	0.0	202.7	24.0	66.9
=	0.0	203.3	24.0	61.9
=	0.0	204.0	24.0	56.1
=	0.0	204.6	24.0	51.3
=	0.0	205.3	24.0	45.5
=	0.0	205.8	24.0	41.0
=	0.0	206.4	24.0	36.7
=	0.0	207.0	24.0	33.0
=	0.0	207.6	24.0	29.5
=	0.0	208.1	24.0	26.3
=	0.0	208.7	24.0	23.7
=	0.0	209.3	24.0	21.5
=	0.0	209.8	24.0	19.7
=	0.0	210.4	24.0	18.3
=	0.0	211.1	24.0	16.7
=	0.0	211.7	24.0	15.8
=	0.0	212.4	24.0	14.9
=	0.0	213.0	24.0	14.3
=	0.0	213.6	24.0	13.8
=	0.0	214.2	24.0	13.3
=	0.0	215.0	24.0	12.9
=	0.0	215.7	24.0	12.6
=	0.0	216.4	24.0	12.2
=	0.0	216.9	24.0	12.0
=	0.0	217.6	24.0	11.9
=	0.0	218.1	24.0	11.7
=	0.0	218.8	24.0	11.5
=	0.0	219.4	24.0	11.3
=	0.0	220.0	24.0	11.2
=	0.0	220.7	24.0	11.1
=	0.0	221.4	24.0	10.9
=	0.0	222.1	24.0	10.8
=	0.0	222.7	24.0	10.7
=	0.0	223.2	24.0	10.6
=	0.0	223.8	24.0	10.5
=	0.0	224.3	24.0	10.4
=	0.0	224.9	24.0	10.4
=	0.0	225.4	24.0	10.3
=	0.0	225.9	24.0	10.2
=	0.0	226.6	24.0	10.1
=	0.0	227.2	24.0	10.0
=	0.0	227.9	24.0	9.9
=	0.0	228.6	24.0	9.9
=	0.0	229.1	24.0	9.8
=	0.0	229.8	24.0	9.7
=	0.0	230.4	24.0	9.6
=	0.0	231.1	24.0	9.6
=	0.0	231.7	24.0	9.5
=	0.0	232.5	24.0	9.4
=	0.0	233.2	24.0	9.3
=	0.0	233.7	24.0	9.2
=	0.0	234.3	24.0	9.1
=	0.0	234.9	24.0	9.1
=	0.0	235.4	24.0	9.0
=	0.0	236.0	24.0	9.0
=	0.0	236.6	24.0	8.9
=	0.0	237.2	24.0	8.9
=	0.0	238.0	24.0	8.9
=	0.0	238.6	24.0	8.8
=	0.0	239.2	24.0	8.8
=	0.0	239.7	24.0	8.8
=	0.0	240.3	24.0	8.7
=	0.0	240.9	24.0	8.7
=	0.0	241.5	24.0	8.6
=	0.0	242.2	24.0	8.6
=	0.0	242.8	24.0	8.5
=	0.0	243.3	24.0	8.5
=	0.0	243.9	24.0	8.5
=	0.0	244.4	24.0	8.4
=	0.0	244.8	24.0	8.4
=	0.0	245.4	24.0	8.4
=	0.0	246.1	24.0	8.3
=	0.0	246.8	24.0	8.3
=	0.0	247.5	24.0	8.2
=	0.0	248.0	24.0	8.2
=	0.0	248.5	24.0	8.2
=	0.0	249.1	24.0	8.1
=	0.0	249.8	24.0	8.1
=	0.0	250.3	24.0	8.1
=	0.0	250.9	24.0	8.0
=	0.0	251.6	24.0	8.0
=	0.0	252.3	24.0	8.0
=	0.0	253.0	24.0	7.9
=	0.0	253.8	24.0	7.9
=	0.0	254.5	24.0	7.8
:EOM # End of Measurement
#
# RFA300 ASCII Measurement Dump ( BDS format )
#
# Measurement number 	2
#
%VNR 1.0
%MOD 	RAT
%TYP 	SCN
%SCN 	PRO
%FLD 	ION
%DAT 	10-14-2011
%TIM 	12:00:00
%FSZ 	400	200
%BMT 	PHO	   10.0
%SSD 	1000
%BUP 	0
%BRD 	1000
%FSH 	1
%ASC 	0
%WEG 	45
%GPO 	0
%CPO 	0
%MEA 	6
%PRD 	50,0
%PTS 	830
%STS 	    0.0	  -259.6	   50.0 # Start Scan values in mm ( X , Y , Z )
%EDS 	    0.0	   259.1	   50.0 # End Scan values in mm ( X , Y , Z )
#
#	  X      Y      Z     Dose
#
=	0.0	-259.6	50.0	7.8
=	0.0	-259.0	50.0	7.8
=	0.0	-258.4	50.0	7.8
=	0.0	-257.8	50.0	7.9
=	0.0	-257.3	50.0	7.9
=	0.0	-256.7	50.0	7.9
=	0.0	-256.2	50.0	8.0
=	0.0	-255.6	50.0	8.0
=	0.0	-255.1	50.0	8.1
=	0.0	-254.4	50.0	8.1
=	0.0	-253.8	50.0	8.2
=	0.0	-253.0	50.0	8.2
=	0.0	-252.3	50.0	8.2
=	0.0	-251.7	50.0	8.3
=	0.0	-251.1	50.0	8.3
=	0.0	-250.5	50.0	8.4
=	0.0	-249.9	50.0	8.4
=	0.0	-249.2	50.0	8.5
=	0.0	-248.5	50.0	8.5
=	0.0	-247.7	50.0	8.6
=	0.0	-247.1	50.0	8.6
=	0.0	-246.4	50.0	8.6
=	0.0	-245.7	50.0	8.7
=	0.0	-244.9	50.0	8.8
=	0.0	-244.1	50.0	8.8
=	0.0	-243.5	50.0	8.9
=	0.0	-242.8	50.0	9.0
=	0.0	-242.0	50.0	9.0
=	0.0	-241.4	50.0	9.1
=	0.0	-241.0	50.0	9.1
=	0.0	-240.2	50.0	9.2
=	0.0	-239.5	50.0	9.3
=	0.0	-238.9	50.0	9.4
=	0.0	-238.4	50.0	9.4
=	0.0	-237.8	50.0	9.5
=	0.0	-237.1	50.0	9.6
=	0.0	-236.4	50.0	9.7
=	0.0	-235.7	50.0	9.8
=	0.0	-235.2	50.0	9.9
=	0.0	-234.5	50.0	10.0
=	0.0	-234.0	50.0	10.1
=	0.0	-233.3	50.0	10.1
=	0.0	-232.7	50.0	10.2
=	0.0	-232.1	50.0	10.3
=	0.0	-231.5	50.0	10.4
=	0.0	-230.8	50.0	10.6
=	0.0	-230.0	50.0	10.7
=	0.0	-229.3	50.0	10.8
=	0.0	-228.8	50.0	10.9
=	0.0	-228.2	50.0	11.0
=	0.0	-227.6	50.0	11.1
=	0.0	-227.0	50.0	11.3
=	0.0	-226.3	50.0	11.4
=	0.0	-225.7	50.0	11.5
=	0.0	-225.0	50.0	11.7
=	0.0	-224.3	50.0	11.9
=	0.0	-223.5	50.0	12.1
=	0.0	-223.0	50.0	12.3
=	0.0	-222.5	50.0	12.5
=	0.0	-221.9	50.0	12.7
=	0.0	-221.2	50.0	12.9
=	0.0	-220.5	50.0	13.3
=	0.0	-219.8	50.0	13.7
=	0.0	-219.2	50.0	14.1
=	0.0	-218.6	50.0	14.6
=	0.0	-218.0	50.0	15.1
=	0.0	-217.4	50.0	15.8
=	0.0	-216.9	50.0	16.5
=	0.0	-216.4	50.0	17.2
=	0.0	-215.8	50.0	18.4
=	0.0	-215.2	50.0	19.7
=	0.0	-214.7	50.0	21.1
=	0.0	-214.1	50.0	23.0
=	0.0	-213.4	50.0	26.0
=	0.0	-212.6	50.0	29.9
=	0.0	-212.0	50.0	33.5
=	0.0	-211.5	50.0	36.7
=	0.0	-210.8	50.0	41.4
=	0.0	-210.0	50.0	46.9
=	0.0	-209.5	50.0	51.5
=	0.0	-208.9	50.0	56.0
=	0.0	-208.3	50.0	60.8
=	0.0	-207.6	50.0	66.0
=	0.0	-206.9	50.0	70.8
=	0.0	-206.4	50.0	73.8
=	0.0	-205.9	50.0	76.5
=	0.0	-205.3	50.0	79.3
=	0.0	-204.7	50.0	81.6
=	0.0	-204.0	50.0	83.5
=	0.0	-203.5	50.0	84.8
=	0.0	-203.0	50.0	86.0
=	0.0	-202.4	50.0	87.1
=	0.0	-201.9	50.0	87.8
=	0.0	-201.2	50.0	88.6
=	0.0	-200.6	50.0	89.2
=	0.0	-199.9	50.0	89.8
=	0.0	-199.2	50.0	90.3
=	0.0	-198.5	50.0	90.7
=	0.0	-197.9	50.0	91.2
=	0.0	-197.3	50.0	91.4
=	0.0	-196.7	50.0	91.6
=	0.0	-195.9	50.0	91.9
=	0.0	-195.2	50.0	92.2
=	0.0	-194.6	50.0	92.4
=	0.0	-193.9	50.0	92.7
=	0.0	-193.3	50.0	92.8
=	0.0	-192.7	50.0	93.0
=	0.0	-192.1	50.0	93.1
=	0.0	-191.6	50.0	93.3
=	0.0	-190.9	50.0	93.4
=	0.0	-190.2	50.0	93.6
=	0.0	-189.5	50.0	93.7
=	0.0	-189.0	50.0	93.9
=	0.0	-188.2	50.0	94.0
=	0.0	-187.5	50.0	94.1
=	0.0	-186.8	50.0	94.1
=	0.0	-186.2	50.0	94.2
=	0.0	-185.5	50.0	94.4
=	0.0	-184.8	50.0	94.5
=	0.0	-184.0	50.0	94.6
=	0.0	-183.4	50.0	94.7
=	0.0	-182.7	50.0	94.8
=	0.0	-181.9	50.0	94.9
=	0.0	-181.3	50.0	94.9
=	0.0	-180.7	50.0	95.0
=	0.0	-180.1	50.0	95.1
=	0.0	-179.3	50.0	95.2
=	0.0	-178.5	50.0	95.2
=	0.0	-177.8	50.0	95.3
=	0.0	-177.2	50.0	95.4
=	0.0	-176.4	50.0	95.4
=	0.0	-175.6	50.0	95.5
=	0.0	-174.9	50.0	95.5
=	0.0	-174.3	50.0	95.6
=	0.0	-173.8	50.0	95.6
=	0.0	-173.2	50.0	95.7
=	0.0	-172.7	50.0	95.7
=	0.0	-171.9	50.0	95.8
=	0.0	-171.3	50.0	95.9
=	0.0	-170.5	50.0	95.9
=	0.0	-169.7	50.0	96.0
=	0.0	-169.0	50.0	96.1
=	0.0	-168.3	50.0	96.1
=	0.0	-167.5	50.0	96.2
=	0.0	-166.8	50.0	96.2
=	0.0	-166.1	50.0	96.3
=	0.0	-165.5	50.0	96.3
=	0.0	-164.8	50.0	96.3
=	0.0	-164.0	50.0	96.3
=	0.0	-163.3	50.0	96.4
=	0.0	-162.6	50.0	96.4
=	0.0	-162.0	50.0	96.4
=	0.0	-161.4	50.0	96.5
=	0.0	-160.7	50.0	96.5
=	0.0	-160.0	50.0	96.6
=	0.0	-159.4	50.0	96.6
=	0.0	-158.8	50.0	96.6
=	0.0	-158.3	50.0	96.6
=	0.0	-157.8	50.0	96.7
=	0.0	-157.2	50.0	96.7
=	0.0	-156.6	50.0	96.8
=	0.0	-155.8	50.0	96.8
=	0.0	-155.1	50.0	96.9
=	0.0	-154.4	50.0	96.9
=	0.0	-153.7	50.0	96.9
=	0.0	-152.9	50.0	97.0
=	0.0	-152.3	50.0	97.1
=	0.0	-151.7	50.0	97.1
=	0.0	-150.9	50.0	97.1
=	0.0	-150.3	50.0	97.2
=	0.0	-149.8	50.0	97.3
=	0.0	-149.2	50.0	97.3
=	0.0	-148.6	50.0	97.4
=	0.0	-148.1	50.0	97.4
=	0.0	-147.4	50.0	97.5
=	0.0	-146.8	50.0	97.5
=	0.0	-146.0	50.0	97.5
=	0.0	-145.4	50.0	97.6
=	0.0	-144.7	50.0	97.6
=	0.0	-144.0	50.0	97.6
=	0.0	-143.3	50.0	97.7
=	0.0	-142.7	50.0	97.7
=	0.0	-142.1	50.0	97.7
=	0.0	-141.5	50.0	97.8
=	0.0	-140.8	50.0	97.8
=	0.0	-140.2	50.0	97.9
=	0.0	-139.6	50.0	97.9
=	0.0	-139.0	50.0	97.9
=	0.0	-138.4	50.0	97.9
=	0.0	-137.9	50.0	98.0
=	0.0	-137.2	50.0	98.0
=	0.0	-136.5	50.0	98.1
=	0.0	-135.9	50.0	98.1
=	0.0	-135.2	50.0	98.1
=	0.0	-134.6	50.0	98.2
=	0.0	-134.0	50.0	98.2
=	0.0	-133.3	50.0	98.3
=	0.0	-132.7	50.0	98.3
=	0.0	-132.1	50.0	98.4
=	0.0	-131.4	50.0	98.4
=	0.0	-130.9	50.0	98.5
=	0.0	-130.2	50.0	98.5
=	0.0	-129.5	50.0	98.5
=	0.0	-128.9	50.0	98.6
=	0.0	-128.2	50.0	98.6
=	0.0	-127.5	50.0	98.7
=	0.0	-127.0	50.0	98.7
=	0.0	-126.4	50.0	98.8
=	0.0	-125.9	50.0	98.8
=	0.0	-125.4	50.0	98.8
=	0.0	-124.9	50.0	98.8
=	0.0	-124.4	50.0	98.9
=	0.0	-123.8	50.0	98.9
=	0.0	-123.3	50.0	98.9
=	0.0	-122.7	50.0	98.9
=	0.0	-122.0	50.0	99.0
=	0.0	-121.4	50.0	99.0
=	0.0	-120.7	50.0	99.1
=	0.0	-120.0	50.0	99.1
=	0.0	-119.3	50.0	99.1
=	0.0	-118.7	50.0	99.2
=	0.0	-118.2	50.0	99.2
=	0.0	-117.5	50.0	99.2
=	0.0	-117.0	50.0	99.3
=	0.0	-116.5	50.0	99.3
=	0.0	-115.8	50.0	99.3
=	0.0	-115.0	50.0	99.4
=	0.0	-114.4	50.0	99.4
=	0.0	-113.8	50.0	99.4
=	0.0	-113.3	50.0	99.4
=	0.0	-112.7	50.0	99.4
=	0.0	-112.0	50.0	99.5
=	0.0	-111.4	50.0	99.5
=	0.0	-110.7	50.0	99.5
=	0.0	-110.1	50.0	99.6
=	0.0	-109.4	50.0	99.6
=	0.0	-108.7	50.0	99.7
=	0.0	-108.0	50.0	99.7
=	0.0	-107.4	50.0	99.8
=	0.0	-106.8	50.0	99.8
=	0.0	-106.3	50.0	99.8
=	0.0	-105.8	50.0	99.9
=	0.0	-105.1	50.0	99.9
=	0.0	-104.4	50.0	99.9
=	0.0	-103.8	50.0	100.0
=	0.0	-103.2	50.0	100.0
=	0.0	-102.6	50.0	100.0
=	0.0	-102.0	50.0	100.0
=	0.0	-101.2	50.0	100.1
=	0.0	-100.6	50.0	100.1
=	0.0	-100.2	50.0	100.1
=	0.0	-99.6	50.0	100.1
=	0.0	-98.9	50.0	100.1
=	0.0	-98.2	50.0	100.1
=	0.0	-97.6	50.0	100.2
=	0.0	-97.0	50.0	100.2
=	0.0	-96.4	50.0	100.3
=	0.0	-95.9	50.0	100.3
=	0.0	-95.2	50.0	100.4
=	0.0	-94.6	50.0	100.4
=	0.0	-94.0	50.0	100.4
=	0.0	-93.4	50.0	100.4
=	0.0	-92.7	50.0	100.4
=	0.0	-92.1	50.0	100.4
=	0.0	-91.6	50.0	100.4
=	0.0	-90.9	50.0	100.4
=	0.0	-90.3	50.0	100.4
=	0.0	-89.6	50.0	100.5
=	0.0	-88.8	50.0	100.5
=	0.0	-88.2	50.0	100.5
=	0.0	-87.6	50.0	100.6
=	0.0	-86.8	50.0	100.6
=	0.0	-86.2	50.0	100.6
=	0.0	-85.6	50.0	100.6
=	0.0	-85.0	50.0	100.7
=	0.0	-84.4	50.0	100.7
=	0.0	-83.6	50.0	100.7
=	0.0	-83.0	50.0	100.7
=	0.0	-82.1	50.0	100.8
=	0.0	-81.4	50.0	100.8
=	0.0	-80.9	50.0	100.8
=	0.0	-80.3	50.0	100.8
=	0.0	-79.7	50.0	100.8
=	0.0	-79.1	50.0	100.8
=	0.0	-78.4	50.0	100.9
=	0.0	-77.9	50.0	100.9
=	0.0	-77.3	50.0	100.9
=	0.0	-76.7	50.0	100.9
=	0.0	-76.1	50.0	101.0
=	0.0	-75.4	50.0	101.0
=	0.0	-74.8	50.0	101.0
=	0.0	-74.1	50.0	101.0
=	0.0	-73.4	50.0	101.0
=	0.0	-72.8	50.0	101.0
=	0.0	-72.2	50.0	100.9
=	0.0	-71.6	50.0	100.9
=	0.0	-71.1	50.0	101.0
=	0.0	-70.4	50.0	101.0
=	0.0	-69.9	50.0	101.0
=	0.0	-69.2	50.0	101.0
=	0.0	-68.6	50.0	101.0
=	0.0	-67.9	50.0	101.1
=	0.0	-67.3	50.0	101.1
=	0.0	-66.6	50.0	101.1
=	0.0	-66.1	50.0	101.1
=	0.0	-65.5	50.0	101.0
=	0.0	-64.9	50.0	101.1
=	0.0	-64.2	50.0	101.1
=	0.0	-63.4	50.0	101.1
=	0.0	-62.8	50.0	101.1
=	0.0	-62.1	50.0	101.1
=	0.0	-61.5	50.0	101.1
=	0.0	-61.0	50.0	101.2
=	0.0	-60.3	50.0	101.2
=	0.0	-59.8	50.0	101.2
=	0.0	-59.3	50.0	101.1
=	0.0	-58.5	50.0	101.1
=	0.0	-57.9	50.0	101.2
=	0.0	-57.3	50.0	101.2
=	0.0	-56.5	50.0	101.2
=	0.0	-55.8	50.0	101.2
=	0.0	-55.2	50.0	101.2
=	0.0	-54.6	50.0	101.1
=	0.0	-54.1	50.0	101.2
=	0.0	-53.5	50.0	101.2
=	0.0	-52.7	50.0	101.2
=	0.0	-52.1	50.0	101.2
=	0.0	-51.6	50.0	101.1
=	0.0	-50.9	50.0	101.1
=	0.0	-50.3	50.0	101.1
=	0.0	-49.7	50.0	101.1
=	0.0	-49.1	50.0	101.1
=	0.0	-48.5	50.0	101.1
=	0.0	-47.8	50.0	101.1
=	0.0	-47.1	50.0	101.1
=	0.0	-46.5	50.0	101.1
=	0.0	-46.0	50.0	101.1
=	0.0	-45.3	50.0	101.1
=	0.0	-44.6	50.0	101.0
=	0.0	-43.9	50.0	101.0
=	0.0	-43.4	50.0	101.0
=	0.0	-42.8	50.0	101.0
=	0.0	-42.3	50.0	101.0
=	0.0	-41.7	50.0	101.0
=	0.0	-41.0	50.0	101.0
=	0.0	-40.3	50.0	101.0
=	0.0	-39.7	50.0	100.9
=	0.0	-39.2	50.0	100.9
=	0.0	-38.5	50.0	100.9
=	0.0	-37.8	50.0	100.8
=	0.0	-37.3	50.0	100.8
=	0.0	-36.8	50.0	100.8
=	0.0	-36.2	50.0	100.8
=	0.0	-35.6	50.0	100.8
=	0.0	-35.0	50.0	100.8
=	0.0	-34.4	50.0	100.8
=	0.0	-33.8	50.0	100.7
=	0.0	-33.3	50.0	100.7
=	0.0	-32.7	50.0	100.7
=	0.0	-32.1	50.0	100.8
=	0.0	-31.6	50.0	100.7
=	0.0	-31.0	50.0	100.7
=	0.0	-30.3	50.0	100.7
=	0.0	-29.7	50.0	100.7
=	0.0	-29.0	50.0	100.6
=	0.0	-28.4	50.0	100.6
=	0.0	-27.7	50.0	100.6
=	0.0	-26.9	50.0	100.5
=	0.0	-26.3	50.0	100.5
=	0.0	-25.8	50.0	100.5
=	0.0	-25.2	50.0	100.5
=	0.0	-24.7	50.0	100.5
=	0.0	-24.0	50.0	100.4
=	0.0	-23.4	50.0	100.4
=	0.0	-22.8	50.0	100.4
=	0.0	-22.3	50.0	100.4
=	0.0	-21.7	50.0	100.4
=	0.0	-21.2	50.0	100.4
=	0.0	-20.7	50.0	100.4
=	0.0	-20.2	50.0	100.4
=	0.0	-19.8	50.0	100.4
=	0.0	-19.2	50.0	100.3
=	0.0	-18.6	50.0	100.3
=	0.0	-18.0	50.0	100.3
=	0.0	-17.3	50.0	100.3
=	0.0	-16.7	50.0	100.3
=	0.0	-16.2	50.0	100.2
=	0.0	-15.6	50.0	100.2
=	0.0	-15.1	50.0	100.2
=	0.0	-14.4	50.0	100.1
=	0.0	-13.9	50.0	100.1
=	0.0	-13.2	50.0	100.1
=	0.0	-12.6	50.0	100.0
=	0.0	-12.0	50.0	100.0
=	0.0	-11.3	50.0	100.0
=	0.0	-10.8	50.0	100.0
=	0.0	-10.2	50.0	100.0
=	0.0	-9.7	50.0	99.9
=	0.0	-9.0	50.0	99.9
=	0.0	-8.5	50.0	99.9
=	0.0	-8.0	50.0	99.9
=	0.0	-7.4	50.0	99.9
=	0.0	-6.8	50.0	99.9
=	0.0	-6.2	50.0	99.9
=	0.0	-5.7	50.0	99.9
=	0.0	-5.1	50.0	99.9
=	0.0	-4.5	50.0	99.9
=	0.0	-3.8	50.0	99.9
=	0.0	-3.3	50.0	99.9
=	0.0	-2.8	50.0	99.9
=	0.0	-2.2	50.0	99.9
=	0.0	-1.8	50.0	99.9
=	0.0	-1.3	50.0	99.9
=	0.0	-0.8	50.0	100.0
=	0.0	-0.2	50.0	100.0
=	0.0	0.0	50.0	100.0
=	0.0	0.4	50.0	100.0
=	0.0	1.0	50.0	100.0
=	0.0	1.4	50.0	99.9
=	0.0	1.9	50.0	99.9
=	0.0	2.4	50.0	99.9
=	0.0	2.9	50.0	99.9
=	0.0	3.4	50.0	99.9
=	0.0	4.0	50.0	99.9
=	0.0	4.7	50.0	99.9
=	0.0	5.2	50.0	99.9
=	0.0	5.8	50.0	99.9
=	0.0	6.3	50.0	99.9
=	0.0	6.9	50.0	99.9
=	0.0	7.5	50.0	99.9
=	0.0	8.1	50.0	99.9
=	0.0	8.6	50.0	99.9
=	0.0	9.2	50.0	99.9
=	0.0	9.8	50.0	99.9
=	0.0	10.3	50.0	100.0
=	0.0	10.9	50.0	100.0
=	0.0	11.4	50.0	100.0
=	0.0	12.1	50.0	100.0
=	0.0	12.8	50.0	100.1
=	0.0	13.4	50.0	100.1
=	0.0	14.0	50.0	100.1
=	0.0	14.6	50.0	100.1
=	0.0	15.2	50.0	100.2
=	0.0	15.8	50.0	100.2
=	0.0	16.3	50.0	100.2
=	0.0	16.8	50.0	100.3
=	0.0	17.4	50.0	100.3
=	0.0	18.1	50.0	100.3
=	0.0	18.8	50.0	100.3
=	0.0	19.4	50.0	100.3
=	0.0	19.9	50.0	100.4
=	0.0	20.4	50.0	100.4
=	0.0	20.8	50.0	100.4
=	0.0	21.4	50.0	100.4
=	0.0	21.9	50.0	100.4
=	0.0	22.4	50.0	100.4
=	0.0	23.0	50.0	100.4
=	0.0	23.5	50.0	100.4
=	0.0	24.2	50.0	100.4
=	0.0	24.9	50.0	100.5
=	0.0	25.4	50.0	100.5
=	0.0	25.9	50.0	100.5
