:MSR 	4	 # No. of measurement in file
:SYS BDS 0   # Beam Data Scanner System
#
# RFA300 ASCII Measurement Dump ( BDS format )
#
# Measurement number 	1
#
%VNR 1.0
%MOD 	RAT
%TYP 	SCN
%SCN 	DPT
%FLD 	ION
%DAT 	09-29-2011
%TIM 	12:00:00
%FSZ 	040	040
%BMT 	PHO	   10.0
%SSD 	0800
%BUP 	0
%BRD 	0800
%FSH 	1
%ASC 	0
%WEG 	45
%GPO 	0
%CPO 	0
%MEA 	5
%PRD 	0,0
%PTS 	805
%STS 	    0.0	  0.0	   0.0 # Start Scan values in mm ( X , Y , Z )
%EDS 	    0.0	   0.0	   347.8 # End Scan values in mm ( X , Y , Z )
#
#	  X      Y      Z     Dose
#
=	0.0	0.0	0.0	27.3
=	0.0	0.0	0.6	30.2
=	0.0	0.0	1.4	34.5
=	0.0	0.0	2.2	40.8
=	0.0	0.0	3.0	48.6
=	0.0	0.0	3.8	56.1
=	0.0	0.0	4.6	62.1
=	0.0	0.0	5.4	67.5
=	0.0	0.0	6.3	72.2
=	0.0	0.0	6.9	75.3
=	0.0	0.0	7.3	77.3
=	0.0	0.0	7.9	80.0
=	0.0	0.0	8.5	82.4
=	0.0	0.0	9.0	83.9
=	0.0	0.0	9.3	85.1
=	0.0	0.0	9.8	86.4
=	0.0	0.0	10.2	87.6
=	0.0	0.0	10.6	88.7
=	0.0	0.0	11.0	89.7
=	0.0	0.0	11.4	90.8
=	0.0	0.0	11.9	91.6
=	0.0	0.0	12.2	92.3
=	0.0	0.0	12.6	93.0
=	0.0	0.0	13.1	93.8
=	0.0	0.0	13.4	94.4
=	0.0	0.0	13.9	95.0
=	0.0	0.0	14.3	95.6
=	0.0	0.0	14.7	96.0
=	0.0	0.0	15.1	96.6
=	0.0	0.0	15.5	97.2
=	0.0	0.0	15.8	97.5
=	0.0	0.0	16.3	97.9
=	0.0	0.0	16.7	98.2
=	0.0	0.0	17.1	98.4
=	0.0	0.0	17.5	98.7
=	0.0	0.0	17.9	98.9
=	0.0	0.0	18.3	99.2
=	0.0	0.0	18.7	99.4
=	0.0	0.0	19.1	99.5
=	0.0	0.0	19.6	99.6
=	0.0	0.0	20.3	99.8
=	0.0	0.0	20.8	99.9
=	0.0	0.0	21.6	100.0
=	0.0	0.0	22.4	100.0
=	0.0	0.0	23.1	100.0
=	0.0	0.0	23.6	100.0
=	0.0	0.0	24.5	99.9
=	0.0	0.0	24.9	99.9
=	0.0	0.0	25.4	99.8
=	0.0	0.0	25.7	99.8
=	0.0	0.0	26.1	99.8
=	0.0	0.0	26.9	99.6
=	0.0	0.0	27.7	99.3
=	0.0	0.0	28.5	99.1
=	0.0	0.0	29.0	99.0
=	0.0	0.0	29.7	98.7
=	0.0	0.0	30.2	98.5
=	0.0	0.0	30.9	98.2
=	0.0	0.0	31.7	98.0
=	0.0	0.0	32.5	97.7
=	0.0	0.0	33.2	97.4
=	0.0	0.0	33.6	97.1
=	0.0	0.0	34.2	96.9
=	0.0	0.0	34.6	96.6
=	0.0	0.0	35.2	96.5
=	0.0	0.0	35.6	96.3
=	0.0	0.0	36.0	96.1
=	0.0	0.0	36.4	95.9
=	0.0	0.0	36.9	95.7
=	0.0	0.0	37.3	95.5
=	0.0	0.0	37.7	95.3
=	0.0	0.0	38.1	95.2
=	0.0	0.0	38.5	95.0
=	0.0	0.0	38.9	94.8
=	0.0	0.0	39.3	94.6
=	0.0	0.0	39.7	94.4
=	0.0	0.0	40.1	94.1
=	0.0	0.0	40.5	94.0
=	0.0	0.0	40.9	93.9
=	0.0	0.0	41.3	93.7
=	0.0	0.0	41.7	93.4
=	0.0	0.0	42.1	93.2
=	0.0	0.0	42.5	93.1
=	0.0	0.0	42.9	93.0
=	0.0	0.0	43.4	92.6
=	0.0	0.0	44.2	92.2
=	0.0	0.0	44.8	91.9
=	0.0	0.0	45.2	91.7
=	0.0	0.0	45.5	91.6
=	0.0	0.0	45.8	91.5
=	0.0	0.0	46.0	91.3
=	0.0	0.0	46.4	91.1
=	0.0	0.0	46.8	91.0
=	0.0	0.0	47.3	90.7
=	0.0	0.0	48.1	90.3
=	0.0	0.0	48.8	90.0
=	0.0	0.0	49.3	89.6
=	0.0	0.0	49.8	89.4
=	0.0	0.0	50.2	89.3
=	0.0	0.0	50.6	89.2
=	0.0	0.0	51.0	89.0
=	0.0	0.0	51.4	88.9
=	0.0	0.0	51.8	88.7
=	0.0	0.0	52.2	88.6
=	0.0	0.0	53.0	88.1
=	0.0	0.0	53.7	87.6
=	0.0	0.0	54.2	87.4
=	0.0	0.0	54.7	87.1
=	0.0	0.0	55.1	87.0
=	0.0	0.0	55.5	86.8
=	0.0	0.0	55.9	86.7
=	0.0	0.0	56.4	86.5
=	0.0	0.0	56.8	86.3
=	0.0	0.0	57.2	86.1
=	0.0	0.0	57.6	85.9
=	0.0	0.0	58.0	85.7
=	0.0	0.0	58.4	85.5
=	0.0	0.0	58.8	85.4
=	0.0	0.0	59.4	85.2
=	0.0	0.0	59.8	85.0
=	0.0	0.0	60.2	84.7
=	0.0	0.0	60.6	84.6
=	0.0	0.0	61.0	84.3
=	0.0	0.0	61.5	84.1
=	0.0	0.0	61.9	83.9
=	0.0	0.0	62.3	83.7
=	0.0	0.0	62.7	83.6
=	0.0	0.0	63.1	83.5
=	0.0	0.0	63.5	83.3
=	0.0	0.0	63.7	83.2
=	0.0	0.0	64.0	83.1
=	0.0	0.0	64.4	82.8
=	0.0	0.0	64.7	82.7
=	0.0	0.0	65.0	82.6
=	0.0	0.0	65.2	82.5
=	0.0	0.0	65.5	82.3
=	0.0	0.0	65.9	82.2
=	0.0	0.0	66.2	82.1
=	0.0	0.0	66.5	81.9
=	0.0	0.0	66.7	81.8
=	0.0	0.0	67.0	81.7
=	0.0	0.0	67.3	81.6
=	0.0	0.0	67.6	81.5
=	0.0	0.0	68.0	81.4
=	0.0	0.0	68.2	81.2
=	0.0	0.0	68.5	81.1
=	0.0	0.0	69.0	80.9
=	0.0	0.0	69.4	80.7
=	0.0	0.0	69.8	80.5
=	0.0	0.0	70.2	80.2
=	0.0	0.0	70.6	80.1
=	0.0	0.0	71.0	80.0
=	0.0	0.0	71.2	79.9
=	0.0	0.0	71.5	79.8
=	0.0	0.0	71.8	79.7
=	0.0	0.0	72.2	79.5
=	0.0	0.0	72.6	79.2
=	0.0	0.0	72.9	79.1
=	0.0	0.0	73.1	79.1
=	0.0	0.0	73.4	78.9
=	0.0	0.0	73.7	78.8
=	0.0	0.0	74.1	78.7
=	0.0	0.0	74.5	78.6
=	0.0	0.0	74.9	78.4
=	0.0	0.0	75.2	78.2
=	0.0	0.0	75.5	78.0
=	0.0	0.0	75.9	77.8
=	0.0	0.0	76.3	77.6
=	0.0	0.0	76.7	77.5
=	0.0	0.0	77.2	77.4
=	0.0	0.0	77.6	77.3
=	0.0	0.0	77.9	77.2
=	0.0	0.0	78.4	76.9
=	0.0	0.0	78.8	76.7
=	0.0	0.0	79.2	76.6
=	0.0	0.0	79.6	76.4
=	0.0	0.0	80.0	76.2
=	0.0	0.0	80.4	76.0
=	0.0	0.0	80.9	75.8
=	0.0	0.0	81.3	75.7
=	0.0	0.0	81.8	75.5
=	0.0	0.0	82.6	75.2
=	0.0	0.0	83.5	74.8
=	0.0	0.0	84.3	74.5
=	0.0	0.0	85.1	74.2
=	0.0	0.0	85.9	73.7
=	0.0	0.0	86.7	73.4
=	0.0	0.0	87.6	73.1
=	0.0	0.0	88.4	72.8
=	0.0	0.0	89.2	72.5
=	0.0	0.0	90.0	72.2
=	0.0	0.0	90.8	71.9
=	0.0	0.0	91.6	71.6
=	0.0	0.0	92.5	71.2
=	0.0	0.0	93.3	70.9
=	0.0	0.0	94.0	70.6
=	0.0	0.0	94.9	70.4
=	0.0	0.0	95.7	69.9
=	0.0	0.0	96.4	69.6
=	0.0	0.0	96.8	69.4
=	0.0	0.0	97.1	69.3
=	0.0	0.0	97.7	69.2
=	0.0	0.0	98.4	68.9
=	0.0	0.0	98.8	68.8
=	0.0	0.0	99.3	68.6
=	0.0	0.0	99.8	68.4
=	0.0	0.0	100.2	68.2
=	0.0	0.0	100.6	68.1
=	0.0	0.0	101.0	67.9
=	0.0	0.0	101.4	67.7
=	0.0	0.0	101.8	67.6
=	0.0	0.0	102.2	67.5
=	0.0	0.0	102.6	67.3
=	0.0	0.0	103.0	67.2
=	0.0	0.0	103.4	67.0
=	0.0	0.0	103.8	66.9
=	0.0	0.0	104.2	66.8
=	0.0	0.0	104.6	66.6
=	0.0	0.0	105.1	66.5
=	0.0	0.0	105.5	66.3
=	0.0	0.0	105.9	66.1
=	0.0	0.0	106.3	65.9
=	0.0	0.0	106.7	65.9
=	0.0	0.0	107.1	65.8
=	0.0	0.0	107.3	65.6
=	0.0	0.0	107.7	65.5
=	0.0	0.0	108.0	65.4
=	0.0	0.0	108.3	65.3
=	0.0	0.0	108.6	65.2
=	0.0	0.0	108.9	65.1
=	0.0	0.0	109.1	65.0
=	0.0	0.0	109.4	64.9
=	0.0	0.0	109.7	64.7
=	0.0	0.0	110.0	64.6
=	0.0	0.0	110.3	64.6
=	0.0	0.0	110.6	64.5
=	0.0	0.0	111.0	64.4
=	0.0	0.0	111.5	64.3
=	0.0	0.0	111.9	64.1
=	0.0	0.0	112.3	64.0
=	0.0	0.0	112.5	63.9
=	0.0	0.0	112.9	63.8
=	0.0	0.0	113.3	63.7
=	0.0	0.0	113.7	63.5
=	0.0	0.0	114.1	63.4
=	0.0	0.0	114.5	63.3
=	0.0	0.0	114.9	63.2
=	0.0	0.0	115.3	63.0
=	0.0	0.0	115.7	62.8
=	0.0	0.0	116.1	62.6
=	0.0	0.0	116.5	62.5
=	0.0	0.0	117.0	62.2
=	0.0	0.0	117.4	62.1
=	0.0	0.0	117.8	62.0
=	0.0	0.0	118.2	61.9
=	0.0	0.0	118.6	61.8
=	0.0	0.0	119.0	61.6
=	0.0	0.0	119.4	61.5
=	0.0	0.0	119.8	61.3
=	0.0	0.0	120.2	61.2
=	0.0	0.0	120.6	61.1
=	0.0	0.0	121.0	61.0
=	0.0	0.0	121.4	60.8
=	0.0	0.0	121.8	60.8
=	0.0	0.0	122.2	60.6
=	0.0	0.0	122.6	60.4
=	0.0	0.0	123.0	60.3
=	0.0	0.0	123.4	60.2
=	0.0	0.0	123.8	60.1
=	0.0	0.0	124.2	60.0
=	0.0	0.0	124.6	59.9
=	0.0	0.0	125.0	59.7
=	0.0	0.0	125.4	59.6
=	0.0	0.0	125.8	59.4
=	0.0	0.0	126.2	59.3
=	0.0	0.0	126.6	59.1
=	0.0	0.0	126.9	59.0
=	0.0	0.0	127.2	59.0
=	0.0	0.0	127.4	58.9
=	0.0	0.0	127.7	58.9
=	0.0	0.0	128.0	58.8
=	0.0	0.0	128.3	58.7
=	0.0	0.0	128.5	58.6
=	0.0	0.0	128.8	58.5
=	0.0	0.0	129.3	58.4
=	0.0	0.0	129.7	58.2
=	0.0	0.0	130.1	58.0
=	0.0	0.0	130.5	57.9
=	0.0	0.0	130.9	57.8
=	0.0	0.0	131.3	57.7
=	0.0	0.0	131.7	57.6
=	0.0	0.0	132.1	57.5
=	0.0	0.0	132.5	57.3
=	0.0	0.0	132.8	57.3
=	0.0	0.0	133.1	57.2
=	0.0	0.0	133.6	57.0
=	0.0	0.0	133.9	56.9
=	0.0	0.0	134.4	56.7
=	0.0	0.0	134.8	56.7
=	0.0	0.0	135.1	56.6
=	0.0	0.0	135.4	56.5
=	0.0	0.0	135.7	56.4
=	0.0	0.0	135.9	56.4
=	0.0	0.0	136.2	56.3
=	0.0	0.0	136.6	56.1
=	0.0	0.0	137.0	55.9
=	0.0	0.0	137.4	55.8
=	0.0	0.0	137.8	55.7
=	0.0	0.0	138.1	55.6
=	0.0	0.0	138.4	55.6
=	0.0	0.0	138.6	55.5
=	0.0	0.0	139.1	55.3
=	0.0	0.0	139.5	55.2
=	0.0	0.0	139.9	55.1
=	0.0	0.0	140.3	55.0
=	0.0	0.0	140.7	54.8
=	0.0	0.0	141.2	54.7
=	0.0	0.0	141.6	54.6
=	0.0	0.0	142.0	54.5
=	0.0	0.0	142.4	54.4
=	0.0	0.0	142.8	54.3
=	0.0	0.0	143.2	54.2
=	0.0	0.0	143.6	54.0
=	0.0	0.0	144.0	53.8
=	0.0	0.0	144.5	53.7
=	0.0	0.0	144.9	53.6
=	0.0	0.0	145.3	53.5
=	0.0	0.0	145.7	53.3
=	0.0	0.0	146.1	53.2
=	0.0	0.0	146.5	53.2
=	0.0	0.0	146.9	53.1
=	0.0	0.0	147.3	52.9
=	0.0	0.0	147.7	52.8
=	0.0	0.0	148.1	52.7
=	0.0	0.0	148.5	52.6
=	0.0	0.0	149.0	52.5
=	0.0	0.0	149.4	52.3
=	0.0	0.0	149.8	52.3
=	0.0	0.0	150.2	52.2
=	0.0	0.0	150.5	52.1
=	0.0	0.0	151.0	51.9
=	0.0	0.0	151.3	51.7
=	0.0	0.0	151.8	51.7
=	0.0	0.0	152.2	51.6
=	0.0	0.0	152.6	51.5
=	0.0	0.0	153.0	51.3
=	0.0	0.0	153.4	51.2
=	0.0	0.0	153.8	51.1
=	0.0	0.0	154.2	51.0
=	0.0	0.0	154.6	50.9
=	0.0	0.0	155.0	50.8
=	0.0	0.0	155.4	50.7
=	0.0	0.0	155.8	50.6
=	0.0	0.0	156.2	50.5
=	0.0	0.0	156.6	50.3
=	0.0	0.0	157.0	50.2
=	0.0	0.0	157.3	50.2
=	0.0	0.0	157.6	50.1
=	0.0	0.0	157.8	50.0
=	0.0	0.0	158.1	49.9
=	0.0	0.0	158.5	49.8
=	0.0	0.0	158.8	49.7
=	0.0	0.0	159.1	49.6
=	0.0	0.0	159.5	49.6
=	0.0	0.0	159.7	49.5
=	0.0	0.0	160.0	49.5
=	0.0	0.0	160.3	49.4
=	0.0	0.0	160.6	49.4
=	0.0	0.0	160.9	49.3
=	0.0	0.0	161.1	49.2
=	0.0	0.0	161.4	49.1
=	0.0	0.0	161.9	49.0
=	0.0	0.0	162.2	48.9
=	0.0	0.0	162.5	48.9
=	0.0	0.0	162.7	48.8
=	0.0	0.0	163.1	48.7
=	0.0	0.0	163.5	48.6
=	0.0	0.0	163.7	48.5
=	0.0	0.0	164.2	48.4
=	0.0	0.0	164.5	48.3
=	0.0	0.0	165.0	48.2
=	0.0	0.0	165.3	48.1
=	0.0	0.0	165.8	47.9
=	0.0	0.0	166.2	47.8
=	0.0	0.0	166.6	47.7
=	0.0	0.0	167.0	47.6
=	0.0	0.0	167.4	47.5
=	0.0	0.0	167.8	47.4
=	0.0	0.0	168.2	47.4
=	0.0	0.0	168.6	47.3
=	0.0	0.0	169.0	47.2
=	0.0	0.0	169.4	47.1
=	0.0	0.0	169.8	47.0
=	0.0	0.0	170.2	46.8
=	0.0	0.0	170.6	46.7
=	0.0	0.0	171.0	46.6
=	0.0	0.0	171.7	46.5
=	0.0	0.0	172.5	46.3
=	0.0	0.0	173.0	46.1
=	0.0	0.0	173.4	46.1
=	0.0	0.0	173.8	46.0
=	0.0	0.0	174.2	45.9
=	0.0	0.0	174.6	45.8
=	0.0	0.0	175.0	45.7
=	0.0	0.0	175.4	45.6
=	0.0	0.0	175.8	45.5
=	0.0	0.0	176.2	45.4
=	0.0	0.0	176.6	45.3
=	0.0	0.0	177.0	45.2
=	0.0	0.0	177.4	45.1
=	0.0	0.0	177.8	45.0
=	0.0	0.0	178.2	45.0
=	0.0	0.0	178.6	44.8
=	0.0	0.0	179.0	44.7
=	0.0	0.0	179.4	44.7
=	0.0	0.0	179.8	44.6
=	0.0	0.0	180.3	44.4
=	0.0	0.0	180.6	44.3
=	0.0	0.0	181.0	44.3
=	0.0	0.0	181.5	44.2
=	0.0	0.0	181.9	44.1
=	0.0	0.0	182.3	44.0
=	0.0	0.0	182.7	43.9
=	0.0	0.0	183.1	43.8
=	0.0	0.0	183.5	43.6
=	0.0	0.0	183.9	43.6
=	0.0	0.0	184.3	43.5
=	0.0	0.0	184.7	43.4
=	0.0	0.0	185.1	43.3
=	0.0	0.0	185.5	43.2
=	0.0	0.0	185.9	43.1
=	0.0	0.0	186.3	43.0
=	0.0	0.0	186.7	42.9
=	0.0	0.0	187.2	42.9
=	0.0	0.0	187.6	42.8
=	0.0	0.0	188.0	42.7
=	0.0	0.0	188.4	42.6
=	0.0	0.0	188.8	42.5
=	0.0	0.0	189.2	42.4
=	0.0	0.0	189.6	42.4
=	0.0	0.0	190.0	42.3
=	0.0	0.0	190.4	42.1
=	0.0	0.0	190.8	42.0
=	0.0	0.0	191.3	41.9
=	0.0	0.0	191.7	41.8
=	0.0	0.0	192.1	41.8
=	0.0	0.0	192.5	41.7
=	0.0	0.0	192.9	41.6
=	0.0	0.0	193.3	41.5
=	0.0	0.0	193.7	41.4
=	0.0	0.0	194.1	41.3
=	0.0	0.0	194.5	41.2
=	0.0	0.0	194.9	41.1
=	0.0	0.0	195.3	41.0
=	0.0	0.0	195.7	41.0
=	0.0	0.0	196.1	40.9
=	0.0	0.0	196.5	40.8
=	0.0	0.0	196.9	40.7
=	0.0	0.0	197.3	40.7
=	0.0	0.0	197.8	40.6
=	0.0	0.0	198.2	40.5
=	0.0	0.0	198.6	40.4
=	0.0	0.0	199.0	40.3
=	0.0	0.0	199.5	40.2
=	0.0	0.0	200.0	40.1
=	0.0	0.0	200.4	40.0
=	0.0	0.0	200.8	39.9
=	0.0	0.0	201.6	39.7
=	0.0	0.0	202.0	39.6
=	0.0	0.0	202.8	39.5
=	0.0	0.0	203.6	39.3
=	0.0	0.0	204.4	39.1
=	0.0	0.0	205.2	39.0
=	0.0	0.0	205.8	38.9
=	0.0	0.0	206.3	38.8
=	0.0	0.0	206.7	38.7
=	0.0	0.0	207.1	38.6
=	0.0	0.0	207.5	38.5
=	0.0	0.0	207.9	38.5
=	0.0	0.0	208.3	38.4
=	0.0	0.0	208.7	38.3
=	0.0	0.0	209.1	38.2
=	0.0	0.0	209.5	38.1
=	0.0	0.0	209.9	38.0
=	0.0	0.0	210.3	38.0
=	0.0	0.0	210.7	37.9
=	0.0	0.0	211.1	37.8
=	0.0	0.0	211.5	37.7
=	0.0	0.0	212.2	37.6
=	0.0	0.0	212.7	37.5
=	0.0	0.0	213.2	37.4
=	0.0	0.0	213.6	37.4
=	0.0	0.0	214.0	37.3
=	0.0	0.0	214.4	37.2
=	0.0	0.0	214.8	37.1
=	0.0	0.0	215.2	37.1
=	0.0	0.0	215.6	37.0
=	0.0	0.0	216.0	36.9
=	0.0	0.0	216.4	36.8
=	0.0	0.0	216.8	36.7
=	0.0	0.0	217.0	36.6
=	0.0	0.0	217.3	36.6
=	0.0	0.0	217.7	36.5
=	0.0	0.0	218.2	36.4
=	0.0	0.0	218.6	36.3
=	0.0	0.0	219.0	36.3
=	0.0	0.0	219.5	36.2
=	0.0	0.0	220.3	36.1
=	0.0	0.0	221.1	35.9
=	0.0	0.0	221.8	35.8
=	0.0	0.0	222.2	35.7
=	0.0	0.0	222.6	35.6
=	0.0	0.0	223.0	35.6
=	0.0	0.0	223.4	35.5
=	0.0	0.0	223.8	35.4
=	0.0	0.0	224.2	35.4
=	0.0	0.0	224.6	35.3
=	0.0	0.0	225.0	35.2
=	0.0	0.0	225.4	35.2
=	0.0	0.0	225.8	35.0
=	0.0	0.0	226.2	35.0
=	0.0	0.0	226.6	34.9
=	0.0	0.0	227.0	34.8
=	0.0	0.0	227.5	34.7
=	0.0	0.0	227.9	34.7
=	0.0	0.0	228.3	34.6
=	0.0	0.0	228.7	34.5
=	0.0	0.0	229.1	34.5
=	0.0	0.0	229.5	34.4
=	0.0	0.0	229.9	34.3
=	0.0	0.0	230.3	34.2
=	0.0	0.0	230.7	34.2
=	0.0	0.0	231.2	34.1
=	0.0	0.0	231.6	34.0
=	0.0	0.0	232.0	34.0
=	0.0	0.0	232.4	33.9
=	0.0	0.0	232.8	33.8
=	0.0	0.0	233.2	33.7
=	0.0	0.0	233.6	33.6
=	0.0	0.0	234.0	33.5
=	0.0	0.0	234.4	33.4
=	0.0	0.0	234.8	33.4
=	0.0	0.0	235.2	33.4
=	0.0	0.0	235.6	33.3
=	0.0	0.0	236.0	33.3
=	0.0	0.0	236.4	33.2
=	0.0	0.0	236.8	33.1
=	0.0	0.0	237.2	33.1
=	0.0	0.0	237.6	33.0
=	0.0	0.0	238.0	32.9
=	0.0	0.0	238.4	32.9
=	0.0	0.0	238.8	32.8
=	0.0	0.0	239.2	32.8
=	0.0	0.0	239.6	32.7
=	0.0	0.0	240.1	32.6
=	0.0	0.0	240.4	32.5
=	0.0	0.0	240.9	32.4
=	0.0	0.0	241.3	32.3
=	0.0	0.0	241.7	32.3
=	0.0	0.0	242.1	32.2
=	0.0	0.0	242.5	32.1
=	0.0	0.0	242.9	32.1
=	0.0	0.0	243.3	32.0
=	0.0	0.0	243.7	32.0
=	0.0	0.0	244.1	31.9
=	0.0	0.0	244.5	31.8
=	0.0	0.0	244.9	31.7
=	0.0	0.0	245.3	31.7
=	0.0	0.0	245.7	31.6
=	0.0	0.0	246.1	31.6
=	0.0	0.0	246.5	31.5
=	0.0	0.0	247.0	31.5
=	0.0	0.0	247.3	31.4
=	0.0	0.0	247.8	31.3
=	0.0	0.0	248.2	31.2
=	0.0	0.0	248.6	31.2
=	0.0	0.0	249.0	31.1
=	0.0	0.0	249.4	31.0
=	0.0	0.0	249.7	31.0
=	0.0	0.0	250.0	30.9
=	0.0	0.0	250.6	30.8
=	0.0	0.0	251.1	30.8
=	0.0	0.0	251.3	30.8
=	0.0	0.0	251.7	30.7
=	0.0	0.0	252.1	30.6
=	0.0	0.0	252.5	30.6
=	0.0	0.0	252.9	30.5
=	0.0	0.0	253.3	30.4
=	0.0	0.0	253.9	30.4
=	0.0	0.0	254.4	30.3
=	0.0	0.0	254.8	30.2
=	0.0	0.0	255.2	30.1
=	0.0	0.0	255.6	30.1
=	0.0	0.0	256.0	30.0
=	0.0	0.0	256.4	29.9
=	0.0	0.0	256.8	29.9
=	0.0	0.0	257.2	29.8
=	0.0	0.0	257.6	29.8
=	0.0	0.0	258.0	29.7
=	0.0	0.0	258.4	29.6
=	0.0	0.0	258.8	29.6
=	0.0	0.0	259.3	29.5
=	0.0	0.0	259.6	29.5
=	0.0	0.0	260.0	29.4
=	0.0	0.0	260.4	29.4
=	0.0	0.0	260.8	29.3
=	0.0	0.0	261.6	29.2
=	0.0	0.0	262.4	29.1
=	0.0	0.0	263.2	29.0
=	0.0	0.0	264.0	28.8
=	0.0	0.0	264.8	28.7
=	0.0	0.0	265.6	28.6
=	0.0	0.0	266.4	28.5
=	0.0	0.0	267.3	28.4
=	0.0	0.0	267.7	28.3
=	0.0	0.0	268.1	28.3
=	0.0	0.0	268.6	28.2
=	0.0	0.0	269.0	28.2
=	0.0	0.0	269.4	28.1
=	0.0	0.0	269.8	28.0
=	0.0	0.0	270.2	27.9
=	0.0	0.0	270.6	27.9
=	0.0	0.0	271.0	27.8
=	0.0	0.0	271.4	27.7
=	0.0	0.0	271.8	27.7
=	0.0	0.0	272.2	27.7
=	0.0	0.0	272.6	27.6
=	0.0	0.0	273.0	27.6
=	0.0	0.0	273.4	27.5
=	0.0	0.0	273.9	27.4
=	0.0	0.0	274.2	27.3
=	0.0	0.0	274.7	27.3
=	0.0	0.0	275.1	27.3
=	0.0	0.0	275.5	27.2
=	0.0	0.0	275.9	27.2
=	0.0	0.0	276.3	27.1
=	0.0	0.0	276.7	27.1
=	0.0	0.0	277.1	27.0
=	0.0	0.0	277.5	27.0
=	0.0	0.0	277.9	26.9
=	0.0	0.0	278.3	26.9
=	0.0	0.0	278.7	26.8
=	0.0	0.0	279.1	26.8
=	0.0	0.0	279.6	26.7
=	0.0	0.0	280.0	26.6
=	0.0	0.0	280.4	26.5
=	0.0	0.0	280.8	26.5
=	0.0	0.0	281.2	26.4
=	0.0	0.0	281.5	26.4
=	0.0	0.0	281.9	26.4
=	0.0	0.0	282.3	26.3
=	0.0	0.0	282.7	26.3
=	0.0	0.0	283.2	26.2
=	0.0	0.0	283.6	26.1
=	0.0	0.0	283.9	26.1
=	0.0	0.0	284.3	26.0
=	0.0	0.0	284.7	25.9
=	0.0	0.0	285.2	25.9
=	0.0	0.0	285.6	25.8
=	0.0	0.0	286.0	25.8
=	0.0	0.0	286.4	25.8
=	0.0	0.0	286.8	25.7
=	0.0	0.0	287.2	25.6
=	0.0	0.0	287.6	25.5
=	0.0	0.0	288.0	25.5
=	0.0	0.0	288.4	25.5
=	0.0	0.0	288.8	25.4
=	0.0	0.0	289.2	25.4
=	0.0	0.0	289.6	25.3
=	0.0	0.0	290.0	25.3
=	0.0	0.0	290.4	25.2
=	0.0	0.0	290.8	25.2
=	0.0	0.0	291.2	25.2
=	0.0	0.0	291.6	25.1
=	0.0	0.0	292.0	25.0
=	0.0	0.0	292.4	25.0
=	0.0	0.0	292.8	24.9
=	0.0	0.0	293.2	24.9
=	0.0	0.0	293.7	24.8
=	0.0	0.0	294.1	24.8
=	0.0	0.0	294.5	24.7
=	0.0	0.0	294.9	24.7
=	0.0	0.0	295.3	24.6
=	0.0	0.0	295.7	24.6
=	0.0	0.0	296.1	24.5
=	0.0	0.0	296.5	24.5
=	0.0	0.0	296.9	24.5
=	0.0	0.0	297.3	24.4
=	0.0	0.0	297.7	24.4
=	0.0	0.0	298.1	24.3
=	0.0	0.0	298.5	24.3
=	0.0	0.0	298.8	24.2
=	0.0	0.0	299.1	24.2
=	0.0	0.0	299.4	24.2
=	0.0	0.0	299.7	24.1
=	0.0	0.0	300.0	24.0
=	0.0	0.0	300.3	24.0
=	0.0	0.0	300.6	24.0
=	0.0	0.0	300.9	23.9
=	0.0	0.0	301.3	23.9
=	0.0	0.0	301.7	23.9
=	0.0	0.0	302.1	23.8
=	0.0	0.0	302.5	23.7
=	0.0	0.0	303.0	23.7
=	0.0	0.0	303.3	23.6
=	0.0	0.0	303.8	23.6
=	0.0	0.0	304.2	23.6
=	0.0	0.0	304.6	23.5
=	0.0	0.0	305.0	23.5
=	0.0	0.0	305.4	23.4
=	0.0	0.0	305.8	23.4
=	0.0	0.0	306.2	23.3
=	0.0	0.0	306.6	23.3
=	0.0	0.0	307.0	23.2
=	0.0	0.0	307.5	23.2
=	0.0	0.0	307.8	23.1
=	0.0	0.0	308.2	23.1
=	0.0	0.0	308.7	23.0
=	0.0	0.0	309.1	23.0
=	0.0	0.0	309.5	23.0
=	0.0	0.0	309.9	22.9
=	0.0	0.0	310.3	22.9
=	0.0	0.0	310.8	22.8
=	0.0	0.0	311.2	22.8
=	0.0	0.0	311.6	22.7
=	0.0	0.0	312.0	22.7
=	0.0	0.0	312.4	22.7
=	0.0	0.0	312.8	22.6
=	0.0	0.0	313.3	22.5
=	0.0	0.0	313.8	22.5
=	0.0	0.0	314.2	22.4
=	0.0	0.0	314.6	22.4
=	0.0	0.0	315.0	22.4
=	0.0	0.0	315.8	22.2
=	0.0	0.0	316.2	22.2
=	0.0	0.0	316.9	22.1
=	0.0	0.0	317.3	22.1
=	0.0	0.0	317.7	22.0
=	0.0	0.0	318.1	22.0
=	0.0	0.0	318.6	21.9
=	0.0	0.0	319.4	21.8
=	0.0	0.0	319.9	21.8
=	0.0	0.0	320.3	21.7
=	0.0	0.0	320.7	21.7
=	0.0	0.0	321.1	21.7
=	0.0	0.0	321.5	21.6
=	0.0	0.0	321.9	21.6
=	0.0	0.0	322.3	21.5
=	0.0	0.0	322.7	21.5
=	0.0	0.0	323.1	21.4
=	0.0	0.0	323.4	21.4
=	0.0	0.0	323.9	21.3
=	0.0	0.0	324.3	21.3
=	0.0	0.0	324.7	21.3
=	0.0	0.0	325.1	21.2
=	0.0	0.0	325.5	21.2
=	0.0	0.0	325.9	21.2
=	0.0	0.0	326.3	21.1
=	0.0	0.0	326.7	21.1
=	0.0	0.0	327.1	21.0
=	0.0	0.0	327.5	21.0
=	0.0	0.0	327.9	20.9
=	0.0	0.0	328.3	20.9
=	0.0	0.0	328.9	20.8
=	0.0	0.0	329.7	20.8
=	0.0	0.0	330.1	20.7
=	0.0	0.0	330.5	20.7
=	0.0	0.0	330.9	20.6
=	0.0	0.0	331.4	20.6
=	0.0	0.0	331.8	20.5
=	0.0	0.0	332.2	20.5
=	0.0	0.0	332.6	20.5
=	0.0	0.0	333.0	20.4
=	0.0	0.0	333.4	20.4
=	0.0	0.0	333.8	20.3
=	0.0	0.0	334.2	20.3
=	0.0	0.0	334.6	20.2
=	0.0	0.0	335.0	20.2
=	0.0	0.0	335.4	20.2
=	0.0	0.0	335.8	20.1
=	0.0	0.0	336.2	20.1
=	0.0	0.0	336.6	20.1
=	0.0	0.0	337.0	20.0
=	0.0	0.0	337.4	20.0
=	0.0	0.0	337.8	20.0
=	0.0	0.0	338.3	19.9
=	0.0	0.0	338.7	19.8
=	0.0	0.0	339.1	19.8
=	0.0	0.0	339.5	19.8
=	0.0	0.0	339.9	19.7
=	0.0	0.0	340.3	19.7
=	0.0	0.0	340.7	19.7
=	0.0	0.0	341.2	19.6
=	0.0	0.0	341.5	19.6
=	0.0	0.0	341.9	19.6
=	0.0	0.0	342.3	19.5
=	0.0	0.0	343.0	19.5
=	0.0	0.0	343.9	19.4
=	0.0	0.0	344.7	19.3
=	0.0	0.0	345.2	19.3
=	0.0	0.0	345.6	19.2
=	0.0	0.0	346.0	19.2
=	0.0	0.0	346.5	19.2
=	0.0	0.0	347.0	19.1
=	0.0	0.0	347.8	19.0
:EOM # End of Measurement
#
# RFA300 ASCII Measurement Dump ( BDS format )
#
# Measurement number 	2
#
%VNR 1.0
%MOD 	RAT
%TYP 	SCN
%SCN 	DPT
%FLD 	ION
%DAT 	09-29-2011
%TIM 	12:00:00
%FSZ 	100	100
%BMT 	PHO	   10.0
%SSD 	0800
%BUP 	0
%BRD 	0800
%FSH 	1
%ASC 	0
%WEG 	45
%GPO 	0
%CPO 	0
%MEA 	5
%PRD 	0,0
%PTS 	826
%STS 	    0.0	  0.0	   0.0 # Start Scan values in mm ( X , Y , Z )
%EDS 	    0.0	   0.0	   347.8 # End Scan values in mm ( X , Y , Z )
#
#	  X      Y      Z     Dose
#
=	0.0	0.0	0.0	36.2
=	0.0	0.0	0.1	36.8
=	0.0	0.0	0.6	38.4
=	0.0	0.0	0.9	40.0
=	0.0	0.0	1.3	42.2
=	0.0	0.0	1.7	44.9
=	0.0	0.0	2.1	48.1
=	0.0	0.0	2.5	51.8
=	0.0	0.0	3.0	55.7
=	0.0	0.0	3.4	59.1
=	0.0	0.0	3.8	62.1
=	0.0	0.0	4.2	65.0
=	0.0	0.0	4.6	67.9
=	0.0	0.0	5.0	70.5
=	0.0	0.0	5.4	72.8
=	0.0	0.0	5.8	74.8
=	0.0	0.0	6.2	76.8
=	0.0	0.0	6.6	78.6
=	0.0	0.0	7.0	80.6
=	0.0	0.0	7.4	82.2
=	0.0	0.0	7.8	83.6
=	0.0	0.0	8.2	85.0
=	0.0	0.0	8.6	86.2
=	0.0	0.0	9.0	87.4
=	0.0	0.0	9.4	88.4
=	0.0	0.0	9.6	89.1
=	0.0	0.0	10.1	90.0
=	0.0	0.0	10.5	90.8
=	0.0	0.0	10.8	91.6
=	0.0	0.0	11.2	92.5
=	0.0	0.0	11.7	93.3
=	0.0	0.0	12.1	94.0
=	0.0	0.0	12.5	94.6
=	0.0	0.0	12.8	95.2
=	0.0	0.0	13.2	95.7
=	0.0	0.0	13.7	96.3
=	0.0	0.0	14.0	96.7
=	0.0	0.0	14.4	96.9
=	0.0	0.0	14.7	97.3
=	0.0	0.0	15.1	97.7
=	0.0	0.0	15.5	97.9
=	0.0	0.0	15.9	98.3
=	0.0	0.0	16.3	98.5
=	0.0	0.0	16.6	98.7
=	0.0	0.0	16.9	98.9
=	0.0	0.0	17.3	99.1
=	0.0	0.0	17.7	99.3
=	0.0	0.0	18.1	99.4
=	0.0	0.0	18.5	99.5
=	0.0	0.0	18.9	99.7
=	0.0	0.0	19.2	99.8
=	0.0	0.0	19.5	99.9
=	0.0	0.0	19.9	99.9
=	0.0	0.0	20.4	100.0
=	0.0	0.0	20.8	100.0
=	0.0	0.0	21.1	100.0
=	0.0	0.0	21.4	100.0
=	0.0	0.0	21.8	100.0
=	0.0	0.0	22.2	100.0
=	0.0	0.0	22.4	100.0
=	0.0	0.0	22.7	100.0
=	0.0	0.0	23.1	100.0
=	0.0	0.0	23.4	99.9
=	0.0	0.0	23.8	99.8
=	0.0	0.0	24.2	99.8
=	0.0	0.0	24.6	99.8
=	0.0	0.0	25.0	99.7
=	0.0	0.0	25.4	99.7
=	0.0	0.0	25.8	99.6
=	0.0	0.0	26.2	99.5
=	0.0	0.0	26.6	99.4
=	0.0	0.0	27.0	99.3
=	0.0	0.0	27.4	99.2
=	0.0	0.0	27.8	99.0
=	0.0	0.0	28.2	98.9
=	0.0	0.0	28.6	98.8
=	0.0	0.0	29.0	98.7
=	0.0	0.0	29.4	98.5
=	0.0	0.0	29.9	98.4
=	0.0	0.0	30.3	98.3
=	0.0	0.0	30.6	98.2
=	0.0	0.0	31.0	98.0
=	0.0	0.0	31.4	97.8
=	0.0	0.0	31.9	97.7
=	0.0	0.0	32.3	97.5
=	0.0	0.0	32.7	97.4
=	0.0	0.0	33.1	97.2
=	0.0	0.0	33.5	97.0
=	0.0	0.0	33.9	96.9
=	0.0	0.0	34.3	96.8
=	0.0	0.0	34.7	96.6
=	0.0	0.0	35.1	96.5
=	0.0	0.0	35.5	96.3
=	0.0	0.0	35.9	96.1
=	0.0	0.0	36.3	95.9
=	0.0	0.0	36.7	95.7
=	0.0	0.0	37.1	95.6
=	0.0	0.0	37.5	95.4
=	0.0	0.0	37.9	95.2
=	0.0	0.0	38.3	95.0
=	0.0	0.0	38.7	94.9
=	0.0	0.0	39.1	94.7
=	0.0	0.0	39.5	94.5
=	0.0	0.0	39.9	94.4
=	0.0	0.0	40.3	94.2
=	0.0	0.0	40.8	94.0
=	0.0	0.0	41.2	93.9
=	0.0	0.0	41.6	93.6
=	0.0	0.0	42.0	93.5
=	0.0	0.0	42.4	93.3
=	0.0	0.0	42.8	93.1
=	0.0	0.0	43.2	92.9
=	0.0	0.0	43.4	92.9
=	0.0	0.0	43.8	92.7
=	0.0	0.0	44.2	92.4
=	0.0	0.0	44.6	92.3
=	0.0	0.0	45.0	92.1
=	0.0	0.0	45.3	92.0
=	0.0	0.0	45.7	91.9
=	0.0	0.0	46.4	91.5
=	0.0	0.0	46.9	91.3
=	0.0	0.0	47.3	91.1
=	0.0	0.0	47.8	91.0
=	0.0	0.0	48.2	90.8
=	0.0	0.0	48.6	90.5
=	0.0	0.0	49.0	90.4
=	0.0	0.0	49.4	90.3
=	0.0	0.0	49.8	90.1
=	0.0	0.0	50.3	89.8
=	0.0	0.0	50.7	89.7
=	0.0	0.0	51.1	89.5
=	0.0	0.0	51.4	89.3
=	0.0	0.0	51.7	89.3
=	0.0	0.0	52.1	89.0
=	0.0	0.0	52.5	88.8
=	0.0	0.0	52.8	88.8
=	0.0	0.0	53.1	88.6
=	0.0	0.0	53.5	88.4
=	0.0	0.0	53.9	88.3
=	0.0	0.0	54.1	88.3
=	0.0	0.0	54.6	88.1
=	0.0	0.0	55.0	88.0
=	0.0	0.0	55.4	87.7
=	0.0	0.0	55.8	87.5
=	0.0	0.0	56.2	87.4
=	0.0	0.0	56.6	87.2
=	0.0	0.0	57.0	87.0
=	0.0	0.0	57.4	86.8
=	0.0	0.0	57.8	86.7
=	0.0	0.0	58.3	86.5
=	0.0	0.0	58.7	86.4
=	0.0	0.0	59.0	86.2
=	0.0	0.0	59.4	86.0
=	0.0	0.0	59.9	85.8
=	0.0	0.0	60.3	85.6
=	0.0	0.0	60.7	85.4
=	0.0	0.0	61.1	85.3
=	0.0	0.0	61.5	85.2
=	0.0	0.0	62.1	84.9
=	0.0	0.0	62.9	84.6
=	0.0	0.0	63.7	84.3
=	0.0	0.0	64.5	83.9
=	0.0	0.0	65.3	83.6
=	0.0	0.0	66.1	83.3
=	0.0	0.0	66.6	83.0
=	0.0	0.0	67.0	82.9
=	0.0	0.0	67.4	82.7
=	0.0	0.0	67.8	82.5
=	0.0	0.0	68.2	82.4
=	0.0	0.0	68.6	82.3
=	0.0	0.0	69.1	82.1
=	0.0	0.0	69.5	81.9
=	0.0	0.0	69.9	81.8
=	0.0	0.0	70.3	81.7
=	0.0	0.0	70.7	81.5
=	0.0	0.0	71.1	81.3
=	0.0	0.0	71.5	81.1
=	0.0	0.0	71.9	81.0
=	0.0	0.0	72.3	80.8
=	0.0	0.0	72.7	80.6
=	0.0	0.0	73.1	80.4
=	0.0	0.0	73.5	80.3
=	0.0	0.0	74.0	80.1
=	0.0	0.0	74.4	80.0
=	0.0	0.0	74.8	79.9
=	0.0	0.0	75.2	79.7
=	0.0	0.0	75.6	79.6
=	0.0	0.0	76.0	79.4
=	0.0	0.0	76.4	79.2
=	0.0	0.0	76.8	79.1
=	0.0	0.0	77.2	79.0
=	0.0	0.0	77.6	78.8
=	0.0	0.0	77.8	78.7
=	0.0	0.0	78.3	78.6
=	0.0	0.0	78.6	78.4
=	0.0	0.0	79.1	78.2
=	0.0	0.0	79.4	78.0
=	0.0	0.0	79.8	77.9
=	0.0	0.0	80.2	77.8
=	0.0	0.0	80.6	77.5
=	0.0	0.0	81.0	77.4
=	0.0	0.0	81.4	77.3
=	0.0	0.0	81.8	77.1
=	0.0	0.0	82.2	77.0
=	0.0	0.0	82.7	76.8
=	0.0	0.0	83.0	76.7
=	0.0	0.0	83.4	76.5
=	0.0	0.0	83.9	76.4
=	0.0	0.0	84.3	76.2
=	0.0	0.0	84.7	76.1
=	0.0	0.0	85.1	75.9
=	0.0	0.0	85.5	75.8
=	0.0	0.0	85.9	75.6
=	0.0	0.0	86.3	75.4
=	0.0	0.0	86.7	75.3
=	0.0	0.0	87.1	75.1
=	0.0	0.0	87.5	75.0
=	0.0	0.0	87.9	74.8
=	0.0	0.0	88.4	74.6
=	0.0	0.0	88.8	74.5
=	0.0	0.0	89.3	74.3
=	0.0	0.0	90.1	74.1
=	0.0	0.0	90.6	74.0
=	0.0	0.0	91.2	73.6
=	0.0	0.0	91.7	73.4
=	0.0	0.0	92.5	73.1
=	0.0	0.0	93.3	72.8
=	0.0	0.0	94.0	72.6
=	0.0	0.0	94.4	72.4
=	0.0	0.0	95.0	72.2
=	0.0	0.0	95.4	72.0
=	0.0	0.0	95.8	71.9
=	0.0	0.0	96.2	71.8
=	0.0	0.0	96.7	71.6
=	0.0	0.0	97.1	71.5
=	0.0	0.0	97.5	71.4
=	0.0	0.0	97.9	71.2
=	0.0	0.0	98.3	71.0
=	0.0	0.0	98.7	70.8
=	0.0	0.0	99.1	70.6
=	0.0	0.0	99.5	70.5
=	0.0	0.0	99.9	70.4
=	0.0	0.0	100.3	70.3
=	0.0	0.0	100.7	70.2
=	0.0	0.0	101.1	70.1
=	0.0	0.0	101.6	70.0
=	0.0	0.0	101.9	69.8
=	0.0	0.0	102.4	69.6
=	0.0	0.0	102.8	69.4
=	0.0	0.0	103.2	69.3
=	0.0	0.0	103.6	69.2
=	0.0	0.0	104.0	69.0
=	0.0	0.0	104.2	69.0
=	0.0	0.0	104.5	68.8
=	0.0	0.0	104.9	68.7
=	0.0	0.0	105.2	68.6
=	0.0	0.0	105.6	68.5
=	0.0	0.0	106.1	68.3
=	0.0	0.0	106.6	68.1
=	0.0	0.0	107.3	67.9
=	0.0	0.0	107.8	67.8
=	0.0	0.0	108.5	67.5
=	0.0	0.0	108.9	67.3
=	0.0	0.0	109.5	67.1
=	0.0	0.0	110.3	66.8
=	0.0	0.0	111.1	66.6
=	0.0	0.0	111.9	66.4
=	0.0	0.0	112.7	66.1
=	0.0	0.0	113.5	65.8
=	0.0	0.0	114.4	65.5
=	0.0	0.0	115.2	65.3
=	0.0	0.0	116.0	65.0
=	0.0	0.0	116.8	64.8
=	0.0	0.0	117.6	64.5
=	0.0	0.0	118.4	64.3
=	0.0	0.0	119.2	63.9
=	0.0	0.0	119.6	63.8
=	0.0	0.0	120.1	63.6
=	0.0	0.0	120.8	63.4
=	0.0	0.0	121.5	63.2
=	0.0	0.0	122.1	63.0
=	0.0	0.0	122.9	62.7
=	0.0	0.0	123.5	62.6
=	0.0	0.0	123.9	62.5
=	0.0	0.0	124.3	62.3
=	0.0	0.0	124.7	62.1
=	0.0	0.0	125.1	62.0
=	0.0	0.0	125.5	61.9
=	0.0	0.0	126.0	61.8
=	0.0	0.0	126.3	61.7
=	0.0	0.0	126.6	61.6
=	0.0	0.0	127.0	61.5
=	0.0	0.0	127.4	61.4
=	0.0	0.0	127.8	61.3
=	0.0	0.0	128.2	61.1
=	0.0	0.0	128.6	61.0
=	0.0	0.0	129.1	60.9
=	0.0	0.0	129.4	60.8
=	0.0	0.0	129.9	60.7
=	0.0	0.0	130.3	60.5
=	0.0	0.0	130.7	60.4
=	0.0	0.0	131.1	60.3
=	0.0	0.0	131.5	60.2
=	0.0	0.0	131.9	60.0
=	0.0	0.0	132.3	60.0
=	0.0	0.0	132.7	59.9
=	0.0	0.0	133.1	59.7
=	0.0	0.0	133.5	59.5
=	0.0	0.0	134.0	59.4
=	0.0	0.0	134.4	59.2
=	0.0	0.0	134.8	59.1
=	0.0	0.0	135.2	59.0
=	0.0	0.0	135.6	58.9
=	0.0	0.0	136.0	58.8
=	0.0	0.0	136.4	58.7
=	0.0	0.0	136.8	58.6
=	0.0	0.0	137.1	58.5
=	0.0	0.0	137.4	58.4
=	0.0	0.0	137.8	58.2
=	0.0	0.0	138.2	58.1
=	0.0	0.0	138.6	58.0
=	0.0	0.0	139.0	57.9
=	0.0	0.0	139.3	57.8
=	0.0	0.0	139.6	57.8
=	0.0	0.0	139.9	57.7
=	0.0	0.0	140.1	57.6
=	0.0	0.0	140.4	57.5
=	0.0	0.0	140.7	57.4
=	0.0	0.0	140.9	57.4
=	0.0	0.0	141.3	57.3
=	0.0	0.0	141.7	57.2
=	0.0	0.0	142.0	57.1
=	0.0	0.0	142.3	57.0
=	0.0	0.0	142.6	56.9
=	0.0	0.0	142.8	56.8
=	0.0	0.0	143.1	56.8
=	0.0	0.0	143.4	56.7
=	0.0	0.0	143.7	56.6
=	0.0	0.0	144.1	56.4
=	0.0	0.0	144.5	56.3
=	0.0	0.0	144.9	56.2
=	0.0	0.0	145.3	56.1
=	0.0	0.0	145.7	55.9
=	0.0	0.0	146.1	55.9
=	0.0	0.0	146.5	55.8
=	0.0	0.0	146.9	55.7
=	0.0	0.0	147.3	55.5
=	0.0	0.0	147.7	55.4
=	0.0	0.0	148.2	55.3
=	0.0	0.0	148.6	55.1
=	0.0	0.0	149.0	55.1
=	0.0	0.0	149.4	55.0
=	0.0	0.0	149.8	54.9
=	0.0	0.0	150.2	54.8
=	0.0	0.0	150.6	54.6
=	0.0	0.0	151.0	54.5
=	0.0	0.0	151.4	54.4
=	0.0	0.0	151.8	54.3
=	0.0	0.0	152.2	54.1
=	0.0	0.0	152.6	54.0
=	0.0	0.0	153.0	53.9
=	0.0	0.0	153.4	53.8
=	0.0	0.0	153.9	53.7
=	0.0	0.0	154.3	53.6
=	0.0	0.0	154.6	53.5
=	0.0	0.0	154.9	53.4
=	0.0	0.0	155.2	53.3
=	0.0	0.0	155.5	53.3
=	0.0	0.0	155.7	53.2
=	0.0	0.0	156.0	53.2
=	0.0	0.0	156.3	53.1
=	0.0	0.0	156.5	53.0
=	0.0	0.0	156.8	52.9
=	0.0	0.0	157.1	52.9
=	0.0	0.0	157.4	52.8
=	0.0	0.0	157.6	52.7
=	0.0	0.0	157.9	52.6
=	0.0	0.0	158.2	52.5
=	0.0	0.0	158.4	52.4
=	0.0	0.0	158.7	52.4
=	0.0	0.0	159.0	52.3
=	0.0	0.0	159.2	52.3
=	0.0	0.0	159.6	52.2
=	0.0	0.0	160.1	52.1
=	0.0	0.0	160.3	52.1
=	0.0	0.0	160.7	52.0
=	0.0	0.0	161.1	51.8
=	0.0	0.0	161.5	51.7
=	0.0	0.0	161.9	51.6
=	0.0	0.0	162.3	51.6
=	0.0	0.0	162.8	51.4
=	0.0	0.0	163.2	51.2
=	0.0	0.0	163.5	51.2
=	0.0	0.0	164.0	51.1
=	0.0	0.0	164.3	51.0
=	0.0	0.0	164.8	50.8
=	0.0	0.0	165.2	50.8
=	0.0	0.0	165.6	50.7
=	0.0	0.0	166.0	50.6
=	0.0	0.0	166.4	50.5
=	0.0	0.0	166.8	50.3
=	0.0	0.0	167.2	50.3
=	0.0	0.0	167.6	50.2
=	0.0	0.0	168.0	50.1
=	0.0	0.0	168.3	50.0
=	0.0	0.0	168.6	49.9
=	0.0	0.0	168.8	49.8
=	0.0	0.0	169.2	49.7
=	0.0	0.0	169.6	49.6
=	0.0	0.0	169.8	49.5
=	0.0	0.0	170.1	49.5
=	0.0	0.0	170.5	49.4
=	0.0	0.0	170.9	49.3
=	0.0	0.0	171.3	49.2
=	0.0	0.0	171.7	49.1
=	0.0	0.0	172.0	49.1
=	0.0	0.0	172.2	49.0
=	0.0	0.0	172.5	49.0
=	0.0	0.0	172.8	48.9
=	0.0	0.0	173.2	48.8
=	0.0	0.0	173.6	48.7
=	0.0	0.0	174.0	48.6
=	0.0	0.0	174.4	48.5
=	0.0	0.0	174.8	48.4
=	0.0	0.0	175.2	48.3
=	0.0	0.0	175.6	48.2
=	0.0	0.0	176.1	48.1
=	0.0	0.0	176.5	48.0
=	0.0	0.0	176.9	47.9
=	0.0	0.0	177.3	47.8
=	0.0	0.0	178.0	47.6
=	0.0	0.0	178.8	47.5
=	0.0	0.0	179.2	47.4
=	0.0	0.0	179.6	47.3
=	0.0	0.0	180.0	47.2
=	0.0	0.0	180.4	47.0
=	0.0	0.0	180.9	47.0
=	0.0	0.0	181.3	46.9
=	0.0	0.0	181.7	46.7
=	0.0	0.0	182.1	46.6
=	0.0	0.0	182.5	46.6
=	0.0	0.0	182.9	46.5
=	0.0	0.0	183.5	46.3
=	0.0	0.0	183.9	46.2
=	0.0	0.0	184.3	46.1
=	0.0	0.0	184.7	46.0
=	0.0	0.0	185.1	45.9
=	0.0	0.0	185.5	45.8
=	0.0	0.0	185.9	45.8
=	0.0	0.0	186.3	45.7
=	0.0	0.0	186.7	45.6
=	0.0	0.0	187.1	45.5
=	0.0	0.0	187.7	45.3
=	0.0	0.0	188.1	45.2
=	0.0	0.0	188.5	45.2
=	0.0	0.0	188.9	45.1
=	0.0	0.0	189.3	45.0
=	0.0	0.0	189.7	44.9
=	0.0	0.0	190.1	44.9
=	0.0	0.0	190.5	44.7
=	0.0	0.0	190.9	44.6
=	0.0	0.0	191.3	44.5
=	0.0	0.0	191.7	44.4
=	0.0	0.0	192.1	44.3
=	0.0	0.0	192.5	44.3
=	0.0	0.0	192.9	44.2
=	0.0	0.0	193.3	44.1
=	0.0	0.0	193.7	44.0
=	0.0	0.0	194.2	43.9
=	0.0	0.0	194.5	43.8
=	0.0	0.0	194.9	43.8
=	0.0	0.0	195.3	43.7
=	0.0	0.0	195.6	43.6
=	0.0	0.0	196.0	43.5
=	0.0	0.0	196.4	43.4
=	0.0	0.0	196.8	43.3
=	0.0	0.0	197.2	43.2
=	0.0	0.0	197.6	43.2
=	0.0	0.0	198.0	43.1
=	0.0	0.0	198.4	43.0
=	0.0	0.0	198.8	42.9
=	0.0	0.0	199.1	42.8
=	0.0	0.0	199.4	42.7
=	0.0	0.0	199.6	42.7
=	0.0	0.0	200.0	42.6
=	0.0	0.0	200.4	42.5
=	0.0	0.0	200.8	42.4
=	0.0	0.0	201.3	42.4
=	0.0	0.0	201.7	42.3
=	0.0	0.0	202.1	42.2
=	0.0	0.0	202.5	42.1
=	0.0	0.0	202.9	42.0
=	0.0	0.0	203.3	41.9
=	0.0	0.0	203.7	41.8
=	0.0	0.0	204.1	41.7
=	0.0	0.0	204.5	41.7
=	0.0	0.0	204.9	41.6
=	0.0	0.0	205.3	41.6
=	0.0	0.0	205.7	41.5
=	0.0	0.0	206.1	41.3
=	0.0	0.0	206.6	41.2
=	0.0	0.0	207.0	41.2
=	0.0	0.0	207.4	41.0
=	0.0	0.0	207.8	40.9
=	0.0	0.0	208.4	40.9
=	0.0	0.0	208.8	40.8
=	0.0	0.0	209.6	40.6
=	0.0	0.0	210.4	40.5
=	0.0	0.0	211.2	40.3
=	0.0	0.0	211.7	40.2
=	0.0	0.0	212.4	40.1
=	0.0	0.0	212.9	40.0
=	0.0	0.0	213.7	39.9
=	0.0	0.0	214.5	39.7
=	0.0	0.0	215.3	39.5
=	0.0	0.0	216.1	39.4
=	0.0	0.0	216.8	39.2
=	0.0	0.0	217.2	39.1
=	0.0	0.0	217.6	39.1
=	0.0	0.0	218.0	39.0
=	0.0	0.0	218.4	38.9
=	0.0	0.0	218.8	38.9
=	0.0	0.0	219.3	38.8
=	0.0	0.0	219.7	38.7
=	0.0	0.0	220.1	38.6
=	0.0	0.0	220.5	38.5
=	0.0	0.0	220.9	38.4
=	0.0	0.0	221.3	38.4
=	0.0	0.0	221.7	38.3
=	0.0	0.0	222.1	38.2
=	0.0	0.0	222.5	38.1
=	0.0	0.0	222.9	38.0
=	0.0	0.0	223.3	38.0
=	0.0	0.0	223.7	37.9
=	0.0	0.0	224.2	37.8
=	0.0	0.0	224.6	37.7
=	0.0	0.0	225.0	37.7
=	0.0	0.0	225.4	37.6
=	0.0	0.0	225.8	37.5
=	0.0	0.0	226.2	37.4
=	0.0	0.0	226.6	37.3
=	0.0	0.0	227.0	37.3
=	0.0	0.0	227.4	37.2
=	0.0	0.0	227.8	37.1
=	0.0	0.0	228.2	37.0
=	0.0	0.0	228.6	37.0
=	0.0	0.0	229.0	36.9
=	0.0	0.0	229.4	36.9
=	0.0	0.0	229.8	36.8
=	0.0	0.0	230.3	36.7
=	0.0	0.0	230.6	36.7
=	0.0	0.0	231.0	36.6
=	0.0	0.0	231.4	36.5
=	0.0	0.0	231.8	36.4
=	0.0	0.0	232.2	36.3
=	0.0	0.0	232.6	36.2
=	0.0	0.0	233.0	36.2
=	0.0	0.0	233.4	36.1
=	0.0	0.0	233.8	36.1
=	0.0	0.0	234.2	36.0
=	0.0	0.0	234.6	35.9
=	0.0	0.0	235.0	35.9
=	0.0	0.0	235.3	35.8
=	0.0	0.0	235.5	35.7
=	0.0	0.0	235.8	35.7
=	0.0	0.0	236.2	35.6
=	0.0	0.0	236.6	35.6
=	0.0	0.0	237.0	35.5
=	0.0	0.0	237.4	35.4
=	0.0	0.0	237.8	35.4
=	0.0	0.0	238.3	35.3
=	0.0	0.0	238.7	35.2
=	0.0	0.0	239.1	35.2
=	0.0	0.0	239.5	35.1
=	0.0	0.0	239.9	35.0
=	0.0	0.0	240.3	34.9
=	0.0	0.0	240.7	34.9
=	0.0	0.0	241.1	34.8
=	0.0	0.0	241.5	34.7
=	0.0	0.0	241.9	34.7
=	0.0	0.0	242.3	34.6
=	0.0	0.0	242.7	34.5
=	0.0	0.0	243.1	34.4
=	0.0	0.0	243.5	34.4
=	0.0	0.0	244.0	34.3
=	0.0	0.0	244.4	34.2
=	0.0	0.0	244.8	34.2
=	0.0	0.0	245.2	34.1
=	0.0	0.0	245.6	34.0
=	0.0	0.0	246.0	34.0
=	0.0	0.0	246.4	33.9
=	0.0	0.0	246.8	33.8
=	0.0	0.0	247.2	33.8
=	0.0	0.0	247.6	33.7
=	0.0	0.0	248.0	33.6
=	0.0	0.0	248.5	33.6
=	0.0	0.0	248.9	33.5
