:MSR 	1	 # No. of measurement in file
:SYS BDS 0   # Beam Data Scanner System
#
# RFA300 ASCII Measurement Dump ( BDS format )
#
# Measurement number 	1
#
%VNR 1.0
%MOD 	RAT
%TYP 	SCN
%SCN 	DPT
%FLD 	ION
%DAT 	02-04-2012
%TIM 	12:00:00
%FSZ 	100	100
%BMT 	ELE	   15.0
%SSD 	1000
%BUP 	0
%BRD 	1000
%FSH 	1
%ASC 	0
%WEG 	0
%GPO 	0
%CPO 	0
%MEA 	1
%PRD 	0,0
%PTS 	521
%STS 	    0.0	  0.0	   0.0 # Start Scan values in mm ( X , Y , Z )
%EDS 	    0.0	   0.0	   208.2 # End Scan values in mm ( X , Y , Z )
#
#	  X      Y      Z     Dose
#
=	0.0	0.0	0.0	90.4
=	0.0	0.0	0.2	90.5
=	0.0	0.0	0.6	90.7
=	0.0	0.0	1.0	90.9
=	0.0	0.0	1.4	91.1
=	0.0	0.0	1.8	91.5
=	0.0	0.0	2.2	92.0
=	0.0	0.0	2.6	92.3
=	0.0	0.0	3.0	92.7
=	0.0	0.0	3.4	93.1
=	0.0	0.0	3.8	93.4
=	0.0	0.0	4.2	93.7
=	0.0	0.0	4.6	94.0
=	0.0	0.0	5.0	94.2
=	0.0	0.0	5.4	94.4
=	0.0	0.0	5.8	94.7
=	0.0	0.0	6.2	94.9
=	0.0	0.0	6.6	95.0
=	0.0	0.0	7.0	95.2
=	0.0	0.0	7.4	95.3
=	0.0	0.0	7.8	95.6
=	0.0	0.0	8.2	95.7
=	0.0	0.0	8.6	95.8
=	0.0	0.0	9.0	96.0
=	0.0	0.0	9.4	96.1
=	0.0	0.0	9.8	96.2
=	0.0	0.0	10.2	96.3
=	0.0	0.0	10.6	96.5
=	0.0	0.0	11.0	96.6
=	0.0	0.0	11.4	96.7
=	0.0	0.0	11.9	96.8
=	0.0	0.0	12.3	96.9
=	0.0	0.0	12.7	97.0
=	0.0	0.0	13.1	97.1
=	0.0	0.0	13.5	97.3
=	0.0	0.0	13.9	97.4
=	0.0	0.0	14.3	97.5
=	0.0	0.0	14.7	97.5
=	0.0	0.0	15.1	97.6
=	0.0	0.0	15.5	97.7
=	0.0	0.0	15.9	97.8
=	0.0	0.0	16.3	97.9
=	0.0	0.0	16.7	98.0
=	0.0	0.0	17.1	98.1
=	0.0	0.0	17.5	98.2
=	0.0	0.0	17.9	98.2
=	0.0	0.0	18.3	98.3
=	0.0	0.0	18.7	98.4
=	0.0	0.0	19.1	98.5
=	0.0	0.0	19.5	98.5
=	0.0	0.0	19.9	98.6
=	0.0	0.0	20.3	98.7
=	0.0	0.0	20.7	98.7
=	0.0	0.0	21.1	98.8
=	0.0	0.0	21.5	98.9
=	0.0	0.0	21.9	99.0
=	0.0	0.0	22.3	99.0
=	0.0	0.0	22.7	99.1
=	0.0	0.0	23.1	99.2
=	0.0	0.0	23.5	99.2
=	0.0	0.0	23.9	99.3
=	0.0	0.0	24.3	99.3
=	0.0	0.0	24.7	99.4
=	0.0	0.0	25.1	99.4
=	0.0	0.0	25.5	99.5
=	0.0	0.0	25.9	99.5
=	0.0	0.0	26.3	99.6
=	0.0	0.0	26.7	99.6
=	0.0	0.0	27.1	99.7
=	0.0	0.0	27.5	99.7
=	0.0	0.0	27.9	99.8
=	0.0	0.0	28.3	99.8
=	0.0	0.0	28.7	99.8
=	0.0	0.0	29.1	99.9
=	0.0	0.0	29.5	99.9
=	0.0	0.0	29.9	99.9
=	0.0	0.0	30.3	99.9
=	0.0	0.0	30.7	99.9
=	0.0	0.0	31.1	99.9
=	0.0	0.0	31.5	100.0
=	0.0	0.0	31.9	100.0
=	0.0	0.0	32.3	100.0
=	0.0	0.0	32.7	100.0
=	0.0	0.0	33.1	100.0
=	0.0	0.0	33.5	100.0
=	0.0	0.0	33.9	99.9
=	0.0	0.0	34.3	99.8
=	0.0	0.0	34.7	99.8
=	0.0	0.0	35.2	99.8
=	0.0	0.0	35.6	99.7
=	0.0	0.0	36.0	99.7
=	0.0	0.0	36.4	99.6
=	0.0	0.0	36.8	99.5
=	0.0	0.0	37.2	99.4
=	0.0	0.0	37.6	99.2
=	0.0	0.0	38.0	99.1
=	0.0	0.0	38.4	99.0
=	0.0	0.0	38.8	98.8
=	0.0	0.0	39.2	98.7
=	0.0	0.0	39.6	98.5
=	0.0	0.0	40.0	98.3
=	0.0	0.0	40.4	98.1
=	0.0	0.0	40.8	97.8
=	0.0	0.0	41.2	97.5
=	0.0	0.0	41.6	97.3
=	0.0	0.0	42.0	97.1
=	0.0	0.0	42.4	96.9
=	0.0	0.0	42.8	96.6
=	0.0	0.0	43.2	96.2
=	0.0	0.0	43.6	95.8
=	0.0	0.0	44.0	95.4
=	0.0	0.0	44.4	95.0
=	0.0	0.0	44.8	94.7
=	0.0	0.0	45.2	94.3
=	0.0	0.0	45.6	93.8
=	0.0	0.0	46.0	93.3
=	0.0	0.0	46.4	92.7
=	0.0	0.0	46.8	92.1
=	0.0	0.0	47.2	91.4
=	0.0	0.0	47.6	90.8
=	0.0	0.0	48.0	90.2
=	0.0	0.0	48.4	89.7
=	0.0	0.0	48.8	89.1
=	0.0	0.0	49.2	88.4
=	0.0	0.0	49.6	87.6
=	0.0	0.0	50.0	86.8
=	0.0	0.0	50.4	86.0
=	0.0	0.0	50.8	85.2
=	0.0	0.0	51.2	84.4
=	0.0	0.0	51.6	83.6
=	0.0	0.0	52.0	82.7
=	0.0	0.0	52.4	81.7
=	0.0	0.0	52.8	80.8
=	0.0	0.0	53.2	79.7
=	0.0	0.0	53.6	78.7
=	0.0	0.0	54.0	77.6
=	0.0	0.0	54.4	76.6
=	0.0	0.0	54.8	75.6
=	0.0	0.0	55.2	74.6
=	0.0	0.0	55.6	73.4
=	0.0	0.0	56.0	72.1
=	0.0	0.0	56.4	70.8
=	0.0	0.0	56.8	69.5
=	0.0	0.0	57.2	68.3
=	0.0	0.0	57.6	67.1
=	0.0	0.0	58.0	65.9
=	0.0	0.0	58.5	64.7
=	0.0	0.0	58.9	63.2
=	0.0	0.0	59.3	61.8
=	0.0	0.0	59.7	60.3
=	0.0	0.0	60.1	58.9
=	0.0	0.0	60.5	57.5
=	0.0	0.0	60.9	56.1
=	0.0	0.0	61.3	54.7
=	0.0	0.0	61.7	53.4
=	0.0	0.0	62.1	51.9
=	0.0	0.0	62.5	50.3
=	0.0	0.0	62.9	48.6
=	0.0	0.0	63.3	47.1
=	0.0	0.0	63.7	45.7
=	0.0	0.0	64.1	44.3
=	0.0	0.0	64.5	42.9
=	0.0	0.0	64.9	41.4
=	0.0	0.0	65.3	39.9
=	0.0	0.0	65.7	38.3
=	0.0	0.0	66.1	36.8
=	0.0	0.0	66.5	35.4
=	0.0	0.0	66.9	34.0
=	0.0	0.0	67.3	32.5
=	0.0	0.0	67.7	31.2
=	0.0	0.0	68.1	29.9
=	0.0	0.0	68.5	28.6
=	0.0	0.0	68.9	27.1
=	0.0	0.0	69.3	25.7
=	0.0	0.0	69.7	24.4
=	0.0	0.0	70.1	23.2
=	0.0	0.0	70.5	22.0
=	0.0	0.0	70.9	20.9
=	0.0	0.0	71.3	19.8
=	0.0	0.0	71.7	18.8
=	0.0	0.0	72.1	17.6
=	0.0	0.0	72.5	16.4
=	0.0	0.0	72.9	15.4
=	0.0	0.0	73.3	14.5
=	0.0	0.0	73.7	13.7
=	0.0	0.0	74.1	12.9
=	0.0	0.0	74.5	12.1
=	0.0	0.0	74.9	11.2
=	0.0	0.0	75.3	10.5
=	0.0	0.0	75.7	9.8
=	0.0	0.0	76.1	9.1
=	0.0	0.0	76.5	8.5
=	0.0	0.0	76.9	8.0
=	0.0	0.0	77.3	7.5
=	0.0	0.0	77.7	7.0
=	0.0	0.0	78.1	6.6
=	0.0	0.0	78.5	6.2
=	0.0	0.0	78.9	5.8
=	0.0	0.0	79.3	5.5
=	0.0	0.0	79.7	5.2
=	0.0	0.0	80.1	5.0
=	0.0	0.0	80.5	4.8
=	0.0	0.0	80.9	4.5
=	0.0	0.0	81.3	4.3
=	0.0	0.0	81.8	4.2
=	0.0	0.0	82.2	4.0
=	0.0	0.0	82.6	3.9
=	0.0	0.0	83.0	3.8
=	0.0	0.0	83.4	3.7
=	0.0	0.0	83.8	3.6
=	0.0	0.0	84.2	3.6
=	0.0	0.0	84.6	3.5
=	0.0	0.0	85.0	3.5
=	0.0	0.0	85.4	3.4
=	0.0	0.0	85.8	3.4
=	0.0	0.0	86.2	3.4
=	0.0	0.0	86.6	3.3
=	0.0	0.0	87.0	3.3
=	0.0	0.0	87.4	3.3
=	0.0	0.0	87.8	3.3
=	0.0	0.0	88.2	3.3
=	0.0	0.0	88.6	3.3
=	0.0	0.0	89.0	3.2
=	0.0	0.0	89.4	3.2
=	0.0	0.0	89.8	3.2
=	0.0	0.0	90.2	3.2
=	0.0	0.0	90.6	3.2
=	0.0	0.0	91.0	3.2
=	0.0	0.0	91.4	3.2
=	0.0	0.0	91.8	3.2
=	0.0	0.0	92.2	3.2
=	0.0	0.0	92.6	3.2
=	0.0	0.0	93.0	3.2
=	0.0	0.0	93.4	3.2
=	0.0	0.0	93.8	3.2
=	0.0	0.0	94.2	3.2
=	0.0	0.0	94.6	3.2
=	0.0	0.0	95.0	3.2
=	0.0	0.0	95.4	3.2
=	0.0	0.0	95.8	3.2
=	0.0	0.0	96.2	3.2
=	0.0	0.0	96.6	3.2
=	0.0	0.0	97.0	3.2
=	0.0	0.0	97.4	3.2
=	0.0	0.0	97.8	3.1
=	0.0	0.0	98.2	3.1
=	0.0	0.0	98.6	3.1
=	0.0	0.0	99.0	3.1
=	0.0	0.0	99.4	3.1
=	0.0	0.0	99.8	3.1
=	0.0	0.0	100.2	3.1
=	0.0	0.0	100.6	3.1
=	0.0	0.0	101.0	3.1
=	0.0	0.0	101.4	3.1
=	0.0	0.0	101.8	3.1
=	0.0	0.0	102.2	3.1
=	0.0	0.0	102.6	3.1
=	0.0	0.0	103.0	3.1
=	0.0	0.0	103.4	3.1
=	0.0	0.0	103.8	3.1
=	0.0	0.0	104.2	3.1
=	0.0	0.0	104.6	3.1
=	0.0	0.0	105.0	3.1
=	0.0	0.0	105.4	3.1
=	0.0	0.0	105.8	3.1
=	0.0	0.0	106.2	3.1
=	0.0	0.0	106.6	3.1
=	0.0	0.0	107.0	3.1
=	0.0	0.0	107.4	3.1
=	0.0	0.0	107.8	3.1
=	0.0	0.0	108.2	3.1
=	0.0	0.0	108.6	3.0
=	0.0	0.0	109.0	3.0
=	0.0	0.0	109.4	3.0
=	0.0	0.0	109.8	3.0
=	0.0	0.0	110.2	3.0
=	0.0	0.0	110.6	3.0
=	0.0	0.0	111.0	3.0
=	0.0	0.0	111.4	3.0
=	0.0	0.0	111.8	3.0
=	0.0	0.0	112.2	3.0
=	0.0	0.0	112.6	3.0
=	0.0	0.0	113.0	3.0
=	0.0	0.0	113.4	3.0
=	0.0	0.0	113.8	3.0
=	0.0	0.0	114.2	3.0
=	0.0	0.0	114.6	3.0
=	0.0	0.0	115.0	3.0
=	0.0	0.0	115.4	3.0
=	0.0	0.0	115.8	3.0
=	0.0	0.0	116.2	3.0
=	0.0	0.0	116.6	3.0
=	0.0	0.0	117.0	3.0
=	0.0	0.0	117.4	2.9
=	0.0	0.0	117.8	2.9
=	0.0	0.0	118.2	2.9
=	0.0	0.0	118.6	2.9
=	0.0	0.0	119.0	2.9
=	0.0	0.0	119.4	2.9
=	0.0	0.0	119.8	2.9
=	0.0	0.0	120.2	2.9
=	0.0	0.0	120.6	2.9
=	0.0	0.0	121.0	2.9
=	0.0	0.0	121.4	2.9
=	0.0	0.0	121.8	2.9
=	0.0	0.0	122.2	2.9
=	0.0	0.0	122.6	2.9
=	0.0	0.0	123.0	2.9
=	0.0	0.0	123.4	2.9
=	0.0	0.0	123.8	2.8
=	0.0	0.0	124.2	2.8
=	0.0	0.0	124.6	2.8
=	0.0	0.0	125.0	2.8
=	0.0	0.0	125.4	2.8
=	0.0	0.0	125.8	2.8
=	0.0	0.0	126.2	2.8
=	0.0	0.0	126.6	2.8
=	0.0	0.0	127.0	2.8
=	0.0	0.0	127.4	2.8
=	0.0	0.0	127.8	2.8
=	0.0	0.0	128.2	2.8
=	0.0	0.0	128.6	2.8
=	0.0	0.0	129.0	2.8
=	0.0	0.0	129.4	2.8
=	0.0	0.0	129.8	2.7
=	0.0	0.0	130.2	2.7
=	0.0	0.0	130.6	2.7
=	0.0	0.0	131.0	2.7
=	0.0	0.0	131.4	2.7
=	0.0	0.0	131.8	2.7
=	0.0	0.0	132.2	2.7
=	0.0	0.0	132.6	2.7
=	0.0	0.0	133.0	2.7
=	0.0	0.0	133.4	2.7
=	0.0	0.0	133.8	2.7
=	0.0	0.0	134.2	2.7
=	0.0	0.0	134.6	2.7
=	0.0	0.0	135.0	2.7
=	0.0	0.0	135.4	2.6
=	0.0	0.0	135.8	2.6
=	0.0	0.0	136.2	2.6
=	0.0	0.0	136.6	2.6
=	0.0	0.0	137.0	2.6
=	0.0	0.0	137.4	2.6
=	0.0	0.0	137.8	2.6
=	0.0	0.0	138.2	2.6
=	0.0	0.0	138.6	2.6
=	0.0	0.0	139.0	2.6
=	0.0	0.0	139.4	2.6
=	0.0	0.0	139.8	2.6
=	0.0	0.0	140.2	2.6
=	0.0	0.0	140.6	2.6
=	0.0	0.0	141.0	2.6
=	0.0	0.0	141.4	2.5
=	0.0	0.0	141.8	2.5
=	0.0	0.0	142.2	2.5
=	0.0	0.0	142.6	2.5
=	0.0	0.0	143.0	2.5
=	0.0	0.0	143.4	2.5
=	0.0	0.0	143.8	2.5
=	0.0	0.0	144.2	2.5
=	0.0	0.0	144.6	2.5
=	0.0	0.0	145.0	2.5
=	0.0	0.0	145.4	2.5
=	0.0	0.0	145.8	2.5
=	0.0	0.0	146.2	2.5
=	0.0	0.0	146.6	2.5
=	0.0	0.0	147.0	2.5
=	0.0	0.0	147.4	2.5
=	0.0	0.0	147.8	2.5
=	0.0	0.0	148.2	2.4
=	0.0	0.0	148.6	2.4
=	0.0	0.0	149.0	2.4
=	0.0	0.0	149.4	2.4
=	0.0	0.0	149.8	2.4
=	0.0	0.0	150.2	2.4
=	0.0	0.0	150.6	2.4
=	0.0	0.0	151.0	2.4
=	0.0	0.0	151.4	2.4
=	0.0	0.0	151.8	2.4
=	0.0	0.0	152.2	2.4
=	0.0	0.0	152.6	2.4
=	0.0	0.0	153.0	2.4
=	0.0	0.0	153.4	2.4
=	0.0	0.0	153.8	2.4
=	0.0	0.0	154.2	2.4
=	0.0	0.0	154.6	2.4
=	0.0	0.0	155.0	2.4
=	0.0	0.0	155.4	2.4
=	0.0	0.0	155.8	2.3
=	0.0	0.0	156.2	2.3
=	0.0	0.0	156.6	2.3
=	0.0	0.0	157.0	2.3
=	0.0	0.0	157.4	2.3
=	0.0	0.0	157.8	2.3
=	0.0	0.0	158.2	2.3
=	0.0	0.0	158.6	2.3
=	0.0	0.0	159.0	2.3
=	0.0	0.0	159.4	2.3
=	0.0	0.0	159.8	2.3
=	0.0	0.0	160.2	2.3
=	0.0	0.0	160.6	2.3
=	0.0	0.0	161.0	2.3
=	0.0	0.0	161.4	2.3
=	0.0	0.0	161.8	2.3
=	0.0	0.0	162.2	2.3
=	0.0	0.0	162.6	2.2
=	0.0	0.0	163.0	2.2
=	0.0	0.0	163.4	2.2
=	0.0	0.0	163.8	2.2
=	0.0	0.0	164.2	2.2
=	0.0	0.0	164.6	2.2
=	0.0	0.0	165.0	2.2
=	0.0	0.0	165.4	2.2
=	0.0	0.0	165.8	2.2
=	0.0	0.0	166.2	2.2
=	0.0	0.0	166.6	2.2
=	0.0	0.0	167.0	2.2
=	0.0	0.0	167.4	2.2
=	0.0	0.0	167.8	2.2
=	0.0	0.0	168.2	2.2
=	0.0	0.0	168.6	2.2
=	0.0	0.0	169.0	2.2
=	0.0	0.0	169.4	2.2
=	0.0	0.0	169.8	2.2
=	0.0	0.0	170.2	2.2
=	0.0	0.0	170.6	2.1
=	0.0	0.0	171.0	2.1
=	0.0	0.0	171.4	2.1
=	0.0	0.0	171.8	2.1
=	0.0	0.0	172.2	2.1
=	0.0	0.0	172.6	2.1
=	0.0	0.0	173.0	2.1
=	0.0	0.0	173.4	2.1
=	0.0	0.0	173.8	2.1
=	0.0	0.0	174.2	2.1
=	0.0	0.0	174.6	2.1
=	0.0	0.0	175.0	2.1
=	0.0	0.0	175.4	2.1
=	0.0	0.0	175.8	2.1
=	0.0	0.0	176.2	2.1
=	0.0	0.0	176.6	2.1
=	0.0	0.0	177.0	2.1
=	0.0	0.0	177.4	2.1
=	0.0	0.0	177.8	2.1
=	0.0	0.0	178.2	2.1
=	0.0	0.0	178.6	2.1
=	0.0	0.0	179.0	2.1
=	0.0	0.0	179.4	2.0
=	0.0	0.0	179.8	2.0
=	0.0	0.0	180.2	2.0
=	0.0	0.0	180.6	2.0
=	0.0	0.0	181.0	2.0
=	0.0	0.0	181.4	2.0
=	0.0	0.0	181.8	2.0
=	0.0	0.0	182.2	2.0
=	0.0	0.0	182.6	2.0
=	0.0	0.0	183.0	2.0
=	0.0	0.0	183.4	2.0
=	0.0	0.0	183.8	2.0
=	0.0	0.0	184.2	2.0
=	0.0	0.0	184.6	2.0
=	0.0	0.0	185.0	2.0
=	0.0	0.0	185.4	2.0
=	0.0	0.0	185.8	2.0
=	0.0	0.0	186.2	2.0
=	0.0	0.0	186.6	2.0
=	0.0	0.0	187.0	2.0
=	0.0	0.0	187.4	2.0
=	0.0	0.0	187.8	2.0
=	0.0	0.0	188.2	2.0
=	0.0	0.0	188.6	2.0
=	0.0	0.0	189.0	1.9
=	0.0	0.0	189.4	1.9
=	0.0	0.0	189.8	1.9
=	0.0	0.0	190.2	1.9
=	0.0	0.0	190.6	1.9
=	0.0	0.0	191.0	1.9
=	0.0	0.0	191.4	1.9
=	0.0	0.0	191.8	1.9
=	0.0	0.0	192.2	1.9
=	0.0	0.0	192.6	1.9
=	0.0	0.0	193.0	1.9
=	0.0	0.0	193.4	1.9
=	0.0	0.0	193.8	1.9
=	0.0	0.0	194.2	1.9
=	0.0	0.0	194.6	1.9
=	0.0	0.0	195.0	1.9
=	0.0	0.0	195.4	1.9
=	0.0	0.0	195.8	1.9
=	0.0	0.0	196.2	1.9
=	0.0	0.0	196.6	1.9
=	0.0	0.0	197.0	1.9
=	0.0	0.0	197.4	1.9
=	0.0	0.0	197.8	1.9
=	0.0	0.0	198.2	1.9
=	0.0	0.0	198.6	1.9
=	0.0	0.0	199.0	1.9
=	0.0	0.0	199.4	1.9
=	0.0	0.0	199.8	1.9
=	0.0	0.0	200.2	1.8
=	0.0	0.0	200.6	1.8
=	0.0	0.0	201.0	1.8
=	0.0	0.0	201.4	1.8
=	0.0	0.0	201.8	1.8
=	0.0	0.0	202.2	1.8
=	0.0	0.0	202.6	1.8
=	0.0	0.0	203.0	1.8
=	0.0	0.0	203.4	1.8
=	0.0	0.0	203.8	1.8
=	0.0	0.0	204.2	1.8
=	0.0	0.0	204.6	1.8
=	0.0	0.0	205.0	1.8
=	0.0	0.0	205.4	1.8
=	0.0	0.0	205.8	1.8
=	0.0	0.0	206.2	1.8
=	0.0	0.0	206.6	1.8
=	0.0	0.0	207.0	1.8
=	0.0	0.0	207.4	1.8
=	0.0	0.0	207.8	1.8
=	0.0	0.0	208.2	1.8
:EOM # End of Measurement

:EOF # End of File