:MSR 	1	 # No. of measurement in file
:SYS BDS 0   # Beam Data Scanner System
#
# RFA300 ASCII Measurement Dump ( BDS format )
#
# Measurement number 	1
#
%VNR 1.0
%MOD 	RAT
%TYP 	SCN
%SCN 	PRO
%FLD 	ION
%DAT 	02-09-2012
%TIM 	12:00:00
%FSZ 	400	400
%BMT 	ELE	   15.0
%SSD 	
%BUP 	0
%BRD 	
%FSH 	1
%ASC 	0
%WEG 	0
%GPO 	0
%CPO 	0
%MEA 	2
%PRD 	0,0
%PTS 	742
%STS 	    -225.9	  0.0	   0.0 # Start Scan values in mm ( X , Y , Z )
%EDS 	    239.7	   0.0	   0.0 # End Scan values in mm ( X , Y , Z )
#
#	  X      Y      Z     Dose
#
=	-225.9	0.0	0.0	6.2
=	-224.7	0.0	0.0	6.8
=	-223.5	0.0	0.0	7.5
=	-222.3	0.0	0.0	8.4
=	-221.2	0.0	0.0	9.2
=	-220.6	0.0	0.0	9.7
=	-220.0	0.0	0.0	10.3
=	-219.4	0.0	0.0	10.9
=	-218.8	0.0	0.0	11.5
=	-218.1	0.0	0.0	12.2
=	-217.5	0.0	0.0	12.8
=	-216.8	0.0	0.0	13.6
=	-216.2	0.0	0.0	14.3
=	-215.6	0.0	0.0	15.1
=	-215.2	0.0	0.0	15.7
=	-214.7	0.0	0.0	16.5
=	-214.0	0.0	0.0	17.4
=	-213.5	0.0	0.0	18.2
=	-212.8	0.0	0.0	19.2
=	-212.3	0.0	0.0	20.2
=	-211.6	0.0	0.0	21.3
=	-211.1	0.0	0.0	22.3
=	-210.2	0.0	0.0	23.8
=	-209.0	0.0	0.0	26.0
=	-208.2	0.0	0.0	27.6
=	-207.0	0.0	0.0	30.0
=	-206.2	0.0	0.0	31.4
=	-205.6	0.0	0.0	32.7
=	-205.1	0.0	0.0	33.8
=	-204.5	0.0	0.0	35.1
=	-203.9	0.0	0.0	36.3
=	-203.3	0.0	0.0	37.6
=	-202.7	0.0	0.0	38.8
=	-202.0	0.0	0.0	40.2
=	-201.5	0.0	0.0	41.3
=	-200.9	0.0	0.0	42.6
=	-200.3	0.0	0.0	43.7
=	-199.7	0.0	0.0	44.9
=	-199.2	0.0	0.0	45.9
=	-198.7	0.0	0.0	46.9
=	-198.2	0.0	0.0	47.9
=	-197.5	0.0	0.0	49.1
=	-196.9	0.0	0.0	50.2
=	-196.3	0.0	0.0	51.4
=	-195.7	0.0	0.0	52.4
=	-195.1	0.0	0.0	53.4
=	-194.5	0.0	0.0	54.4
=	-193.9	0.0	0.0	55.4
=	-193.3	0.0	0.0	56.3
=	-192.7	0.0	0.0	57.2
=	-192.2	0.0	0.0	58.0
=	-191.6	0.0	0.0	58.9
=	-191.0	0.0	0.0	59.7
=	-190.4	0.0	0.0	60.5
=	-190.0	0.0	0.0	61.2
=	-189.4	0.0	0.0	62.0
=	-188.8	0.0	0.0	62.7
=	-188.3	0.0	0.0	63.3
=	-187.8	0.0	0.0	63.9
=	-187.4	0.0	0.0	64.4
=	-186.8	0.0	0.0	65.1
=	-186.2	0.0	0.0	65.8
=	-185.6	0.0	0.0	66.4
=	-185.0	0.0	0.0	67.1
=	-184.4	0.0	0.0	67.7
=	-183.8	0.0	0.0	68.3
=	-183.1	0.0	0.0	69.1
=	-182.0	0.0	0.0	70.2
=	-180.8	0.0	0.0	71.3
=	-179.7	0.0	0.0	72.3
=	-179.1	0.0	0.0	72.9
=	-178.5	0.0	0.0	73.5
=	-177.9	0.0	0.0	74.1
=	-177.3	0.0	0.0	74.5
=	-176.7	0.0	0.0	75.1
=	-176.1	0.0	0.0	75.6
=	-175.5	0.0	0.0	76.1
=	-174.9	0.0	0.0	76.6
=	-174.3	0.0	0.0	77.1
=	-173.7	0.0	0.0	77.5
=	-173.1	0.0	0.0	78.0
=	-172.5	0.0	0.0	78.6
=	-171.8	0.0	0.0	79.1
=	-171.3	0.0	0.0	79.5
=	-170.6	0.0	0.0	80.0
=	-170.1	0.0	0.0	80.4
=	-169.4	0.0	0.0	80.9
=	-168.9	0.0	0.0	81.3
=	-168.3	0.0	0.0	81.8
=	-167.7	0.0	0.0	82.2
=	-167.1	0.0	0.0	82.6
=	-166.4	0.0	0.0	83.0
=	-165.9	0.0	0.0	83.4
=	-165.0	0.0	0.0	84.1
=	-163.8	0.0	0.0	84.8
=	-162.9	0.0	0.0	85.4
=	-162.4	0.0	0.0	85.7
=	-161.8	0.0	0.0	86.1
=	-161.2	0.0	0.0	86.5
=	-160.6	0.0	0.0	86.9
=	-160.0	0.0	0.0	87.2
=	-159.4	0.0	0.0	87.7
=	-158.8	0.0	0.0	88.0
=	-158.1	0.0	0.0	88.5
=	-157.4	0.0	0.0	89.0
=	-156.4	0.0	0.0	89.5
=	-155.6	0.0	0.0	89.9
=	-154.9	0.0	0.0	90.3
=	-154.3	0.0	0.0	90.6
=	-153.7	0.0	0.0	90.9
=	-153.1	0.0	0.0	91.3
=	-152.7	0.0	0.0	91.5
=	-152.1	0.0	0.0	91.8
=	-151.6	0.0	0.0	92.1
=	-151.0	0.0	0.0	92.3
=	-150.4	0.0	0.0	92.6
=	-150.0	0.0	0.0	92.8
=	-149.6	0.0	0.0	93.0
=	-149.2	0.0	0.0	93.1
=	-148.8	0.0	0.0	93.4
=	-148.3	0.0	0.0	93.7
=	-147.7	0.0	0.0	93.9
=	-147.0	0.0	0.0	94.1
=	-146.4	0.0	0.0	94.4
=	-145.8	0.0	0.0	94.7
=	-145.2	0.0	0.0	95.0
=	-144.6	0.0	0.0	95.2
=	-144.0	0.0	0.0	95.5
=	-143.4	0.0	0.0	95.8
=	-142.8	0.0	0.0	96.0
=	-142.2	0.0	0.0	96.3
=	-141.5	0.0	0.0	96.5
=	-140.9	0.0	0.0	96.8
=	-140.3	0.0	0.0	96.9
=	-139.7	0.0	0.0	97.1
=	-139.1	0.0	0.0	97.3
=	-138.5	0.0	0.0	97.5
=	-137.9	0.0	0.0	97.7
=	-137.3	0.0	0.0	98.0
=	-136.7	0.0	0.0	98.2
=	-136.0	0.0	0.0	98.4
=	-135.4	0.0	0.0	98.6
=	-134.8	0.0	0.0	98.7
=	-134.2	0.0	0.0	98.9
=	-133.6	0.0	0.0	99.0
=	-133.0	0.0	0.0	99.2
=	-132.4	0.0	0.0	99.4
=	-131.9	0.0	0.0	99.6
=	-131.3	0.0	0.0	99.8
=	-130.7	0.0	0.0	100.0
=	-130.1	0.0	0.0	100.1
=	-129.5	0.0	0.0	100.3
=	-128.9	0.0	0.0	100.4
=	-128.0	0.0	0.0	100.6
=	-127.2	0.0	0.0	100.8
=	-126.0	0.0	0.0	101.1
=	-124.8	0.0	0.0	101.4
=	-123.6	0.0	0.0	101.5
=	-122.4	0.0	0.0	101.8
=	-121.3	0.0	0.0	102.0
=	-120.7	0.0	0.0	102.0
=	-120.1	0.0	0.0	102.1
=	-119.5	0.0	0.0	102.2
=	-118.9	0.0	0.0	102.4
=	-118.3	0.0	0.0	102.5
=	-117.7	0.0	0.0	102.5
=	-117.1	0.0	0.0	102.6
=	-116.4	0.0	0.0	102.7
=	-115.9	0.0	0.0	102.7
=	-115.2	0.0	0.0	102.8
=	-114.7	0.0	0.0	102.8
=	-114.0	0.0	0.0	102.9
=	-113.5	0.0	0.0	102.9
=	-112.8	0.0	0.0	103.0
=	-111.9	0.0	0.0	103.1
=	-111.3	0.0	0.0	103.1
=	-110.7	0.0	0.0	103.1
=	-110.2	0.0	0.0	103.2
=	-109.7	0.0	0.0	103.2
=	-109.2	0.0	0.0	103.3
=	-108.6	0.0	0.0	103.3
=	-108.0	0.0	0.0	103.3
=	-107.4	0.0	0.0	103.4
=	-106.7	0.0	0.0	103.4
=	-106.1	0.0	0.0	103.4
=	-105.5	0.0	0.0	103.4
=	-105.0	0.0	0.0	103.4
=	-104.3	0.0	0.0	103.4
=	-103.7	0.0	0.0	103.5
=	-103.1	0.0	0.0	103.5
=	-102.6	0.0	0.0	103.5
=	-102.1	0.0	0.0	103.5
=	-101.5	0.0	0.0	103.5
=	-100.8	0.0	0.0	103.5
=	-100.2	0.0	0.0	103.5
=	-99.6	0.0	0.0	103.6
=	-99.0	0.0	0.0	103.6
=	-98.4	0.0	0.0	103.5
=	-97.8	0.0	0.0	103.5
=	-97.2	0.0	0.0	103.5
=	-96.6	0.0	0.0	103.5
=	-95.9	0.0	0.0	103.5
=	-95.3	0.0	0.0	103.5
=	-94.7	0.0	0.0	103.5
=	-94.2	0.0	0.0	103.4
=	-93.5	0.0	0.0	103.4
=	-92.9	0.0	0.0	103.4
=	-92.3	0.0	0.0	103.4
=	-91.7	0.0	0.0	103.4
=	-91.2	0.0	0.0	103.4
=	-90.6	0.0	0.0	103.3
=	-90.0	0.0	0.0	103.3
=	-89.4	0.0	0.0	103.3
=	-88.8	0.0	0.0	103.3
=	-88.2	0.0	0.0	103.2
=	-87.5	0.0	0.0	103.2
=	-86.9	0.0	0.0	103.1
=	-86.3	0.0	0.0	103.0
=	-85.7	0.0	0.0	103.0
=	-85.1	0.0	0.0	103.0
=	-84.4	0.0	0.0	103.0
=	-83.8	0.0	0.0	103.0
=	-83.2	0.0	0.0	102.9
=	-82.7	0.0	0.0	102.9
=	-82.0	0.0	0.0	102.9
=	-81.4	0.0	0.0	102.9
=	-80.8	0.0	0.0	102.8
=	-80.2	0.0	0.0	102.7
=	-79.4	0.0	0.0	102.7
=	-78.2	0.0	0.0	102.6
=	-77.5	0.0	0.0	102.6
=	-76.8	0.0	0.0	102.6
=	-76.2	0.0	0.0	102.5
=	-75.6	0.0	0.0	102.5
=	-75.0	0.0	0.0	102.4
=	-74.3	0.0	0.0	102.4
=	-73.8	0.0	0.0	102.3
=	-73.1	0.0	0.0	102.3
=	-72.5	0.0	0.0	102.2
=	-72.1	0.0	0.0	102.2
=	-71.6	0.0	0.0	102.2
=	-71.2	0.0	0.0	102.2
=	-70.7	0.0	0.0	102.1
=	-70.1	0.0	0.0	102.1
=	-69.5	0.0	0.0	102.1
=	-68.9	0.0	0.0	102.0
=	-68.2	0.0	0.0	102.0
=	-67.7	0.0	0.0	101.9
=	-67.0	0.0	0.0	101.9
=	-66.4	0.0	0.0	101.8
=	-65.8	0.0	0.0	101.8
=	-65.2	0.0	0.0	101.8
=	-64.6	0.0	0.0	101.7
=	-64.0	0.0	0.0	101.7
=	-63.4	0.0	0.0	101.7
=	-62.8	0.0	0.0	101.6
=	-62.2	0.0	0.0	101.6
=	-61.6	0.0	0.0	101.6
=	-61.0	0.0	0.0	101.5
=	-60.5	0.0	0.0	101.5
=	-59.9	0.0	0.0	101.4
=	-59.3	0.0	0.0	101.4
=	-58.7	0.0	0.0	101.4
=	-58.1	0.0	0.0	101.4
=	-57.5	0.0	0.0	101.3
=	-56.9	0.0	0.0	101.3
=	-56.2	0.0	0.0	101.3
=	-55.6	0.0	0.0	101.2
=	-54.5	0.0	0.0	101.1
=	-53.6	0.0	0.0	101.1
=	-52.6	0.0	0.0	101.0
=	-52.1	0.0	0.0	101.0
=	-51.5	0.0	0.0	101.0
=	-50.7	0.0	0.0	100.9
=	-49.4	0.0	0.0	100.9
=	-48.7	0.0	0.0	100.8
=	-48.0	0.0	0.0	100.8
=	-47.5	0.0	0.0	100.8
=	-46.8	0.0	0.0	100.8
=	-46.2	0.0	0.0	100.8
=	-45.6	0.0	0.0	100.7
=	-45.1	0.0	0.0	100.7
=	-44.6	0.0	0.0	100.7
=	-44.0	0.0	0.0	100.7
=	-43.4	0.0	0.0	100.7
=	-42.8	0.0	0.0	100.7
=	-42.2	0.0	0.0	100.6
=	-41.6	0.0	0.0	100.6
=	-41.0	0.0	0.0	100.6
=	-40.4	0.0	0.0	100.5
=	-39.8	0.0	0.0	100.5
=	-39.3	0.0	0.0	100.5
=	-38.9	0.0	0.0	100.5
=	-38.5	0.0	0.0	100.5
=	-37.9	0.0	0.0	100.4
=	-37.5	0.0	0.0	100.4
=	-36.9	0.0	0.0	100.4
=	-36.3	0.0	0.0	100.4
=	-35.5	0.0	0.0	100.4
=	-34.8	0.0	0.0	100.3
=	-34.2	0.0	0.0	100.3
=	-33.6	0.0	0.0	100.3
=	-33.0	0.0	0.0	100.3
=	-32.4	0.0	0.0	100.3
=	-31.9	0.0	0.0	100.3
=	-31.3	0.0	0.0	100.3
=	-30.9	0.0	0.0	100.2
=	-30.5	0.0	0.0	100.2
=	-30.0	0.0	0.0	100.2
=	-29.5	0.0	0.0	100.2
=	-28.8	0.0	0.0	100.2
=	-28.3	0.0	0.0	100.2
=	-27.8	0.0	0.0	100.2
=	-27.2	0.0	0.0	100.1
=	-26.6	0.0	0.0	100.1
=	-25.9	0.0	0.0	100.1
=	-24.7	0.0	0.0	100.1
=	-23.5	0.0	0.0	100.1
=	-22.3	0.0	0.0	100.1
=	-21.2	0.0	0.0	100.1
=	-20.6	0.0	0.0	100.1
=	-20.0	0.0	0.0	100.1
=	-19.4	0.0	0.0	100.1
=	-18.8	0.0	0.0	100.1
=	-18.4	0.0	0.0	100.1
=	-17.8	0.0	0.0	100.1
=	-17.3	0.0	0.0	100.1
=	-16.8	0.0	0.0	100.0
=	-16.2	0.0	0.0	100.1
=	-15.6	0.0	0.0	100.1
=	-15.0	0.0	0.0	100.1
=	-14.4	0.0	0.0	100.0
=	-13.8	0.0	0.0	100.0
=	-13.2	0.0	0.0	100.0
=	-12.6	0.0	0.0	100.0
=	-12.0	0.0	0.0	100.0
=	-11.4	0.0	0.0	100.0
=	-10.8	0.0	0.0	100.0
=	-10.2	0.0	0.0	100.0
=	-9.6	0.0	0.0	100.0
=	-9.0	0.0	0.0	100.0
=	-8.4	0.0	0.0	100.0
=	-7.8	0.0	0.0	100.0
=	-7.3	0.0	0.0	100.0
=	-6.7	0.0	0.0	100.0
=	-6.1	0.0	0.0	100.0
=	-5.6	0.0	0.0	100.0
=	-5.1	0.0	0.0	100.0
=	-4.5	0.0	0.0	100.0
=	-4.1	0.0	0.0	100.0
=	-3.6	0.0	0.0	100.0
=	-3.1	0.0	0.0	100.0
=	-2.7	0.0	0.0	100.0
=	-2.1	0.0	0.0	100.0
=	-1.5	0.0	0.0	100.0
=	-0.9	0.0	0.0	100.0
=	-0.3	0.0	0.0	100.0
=	0.0	0.0	0.0	100.0
=	0.4	0.0	0.0	100.0
=	1.0	0.0	0.0	100.0
=	1.7	0.0	0.0	100.0
=	2.7	0.0	0.0	100.0
=	3.4	0.0	0.0	100.0
=	4.3	0.0	0.0	100.0
=	5.2	0.0	0.0	100.0
=	6.4	0.0	0.0	100.0
=	7.6	0.0	0.0	100.0
=	8.8	0.0	0.0	100.0
=	10.0	0.0	0.0	100.0
=	10.8	0.0	0.0	100.0
=	11.7	0.0	0.0	100.0
=	12.3	0.0	0.0	100.0
=	12.9	0.0	0.0	100.0
=	13.5	0.0	0.0	100.1
=	14.2	0.0	0.0	100.1
=	14.8	0.0	0.0	100.1
=	15.4	0.0	0.0	100.1
=	16.0	0.0	0.0	100.1
=	16.6	0.0	0.0	100.1
=	17.2	0.0	0.0	100.1
=	17.9	0.0	0.0	100.1
=	18.4	0.0	0.0	100.1
=	19.0	0.0	0.0	100.1
=	19.6	0.0	0.0	100.1
=	20.3	0.0	0.0	100.1
=	20.8	0.0	0.0	100.1
=	21.4	0.0	0.0	100.2
=	21.8	0.0	0.0	100.2
=	22.3	0.0	0.0	100.2
=	22.7	0.0	0.0	100.2
=	23.2	0.0	0.0	100.2
=	23.8	0.0	0.0	100.2
=	24.4	0.0	0.0	100.2
=	24.8	0.0	0.0	100.2
=	25.4	0.0	0.0	100.2
=	26.2	0.0	0.0	100.3
=	26.9	0.0	0.0	100.3
=	27.5	0.0	0.0	100.3
=	28.1	0.0	0.0	100.3
=	28.7	0.0	0.0	100.3
=	29.3	0.0	0.0	100.3
=	29.9	0.0	0.0	100.3
=	30.5	0.0	0.0	100.3
=	31.1	0.0	0.0	100.3
=	31.7	0.0	0.0	100.4
=	32.4	0.0	0.0	100.4
=	33.0	0.0	0.0	100.4
=	33.5	0.0	0.0	100.4
=	34.0	0.0	0.0	100.4
=	34.5	0.0	0.0	100.4
=	35.0	0.0	0.0	100.5
=	35.6	0.0	0.0	100.5
=	36.2	0.0	0.0	100.5
=	36.9	0.0	0.0	100.5
=	37.5	0.0	0.0	100.5
=	38.1	0.0	0.0	100.5
=	38.7	0.0	0.0	100.5
=	39.6	0.0	0.0	100.6
=	40.8	0.0	0.0	100.6
=	42.0	0.0	0.0	100.7
=	43.3	0.0	0.0	100.7
=	44.2	0.0	0.0	100.7
=	44.7	0.0	0.0	100.8
=	45.3	0.0	0.0	100.8
=	45.9	0.0	0.0	100.8
=	46.5	0.0	0.0	100.9
=	47.1	0.0	0.0	100.9
=	47.9	0.0	0.0	100.9
=	48.8	0.0	0.0	101.0
=	49.8	0.0	0.0	101.0
=	51.0	0.0	0.0	101.1
=	52.2	0.0	0.0	101.2
=	53.4	0.0	0.0	101.2
=	54.6	0.0	0.0	101.3
=	55.3	0.0	0.0	101.4
=	56.0	0.0	0.0	101.4
=	56.6	0.0	0.0	101.4
=	57.2	0.0	0.0	101.4
=	57.8	0.0	0.0	101.4
=	58.4	0.0	0.0	101.5
=	59.0	0.0	0.0	101.5
=	59.6	0.0	0.0	101.5
=	60.2	0.0	0.0	101.6
=	60.8	0.0	0.0	101.6
=	61.4	0.0	0.0	101.7
=	62.1	0.0	0.0	101.8
=	62.5	0.0	0.0	101.8
=	63.0	0.0	0.0	101.8
=	63.7	0.0	0.0	101.8
=	64.3	0.0	0.0	101.9
=	64.9	0.0	0.0	101.9
=	65.5	0.0	0.0	101.9
=	66.1	0.0	0.0	102.0
=	66.7	0.0	0.0	102.0
=	67.3	0.0	0.0	102.1
=	67.9	0.0	0.0	102.1
=	68.3	0.0	0.0	102.1
=	68.8	0.0	0.0	102.1
=	69.4	0.0	0.0	102.1
=	70.0	0.0	0.0	102.1
=	70.6	0.0	0.0	102.2
=	71.2	0.0	0.0	102.3
=	71.8	0.0	0.0	102.3
=	72.5	0.0	0.0	102.4
=	73.1	0.0	0.0	102.4
=	73.7	0.0	0.0	102.5
=	74.3	0.0	0.0	102.5
=	74.9	0.0	0.0	102.6
=	75.5	0.0	0.0	102.6
=	76.1	0.0	0.0	102.7
=	76.7	0.0	0.0	102.7
=	77.4	0.0	0.0	102.7
=	77.9	0.0	0.0	102.8
=	78.5	0.0	0.0	102.8
=	79.4	0.0	0.0	102.8
=	80.1	0.0	0.0	102.9
=	81.1	0.0	0.0	102.9
=	82.1	0.0	0.0	102.9
=	83.3	0.0	0.0	103.0
=	84.5	0.0	0.0	103.1
=	85.6	0.0	0.0	103.2
=	86.3	0.0	0.0	103.2
=	86.9	0.0	0.0	103.2
=	87.5	0.0	0.0	103.2
=	88.1	0.0	0.0	103.3
=	88.7	0.0	0.0	103.3
=	89.3	0.0	0.0	103.3
=	89.9	0.0	0.0	103.3
=	90.5	0.0	0.0	103.3
=	91.1	0.0	0.0	103.4
=	91.7	0.0	0.0	103.4
=	92.3	0.0	0.0	103.4
=	92.9	0.0	0.0	103.4
=	93.5	0.0	0.0	103.4
=	94.0	0.0	0.0	103.4
=	94.4	0.0	0.0	103.5
=	95.0	0.0	0.0	103.4
=	95.4	0.0	0.0	103.4
=	96.0	0.0	0.0	103.5
=	96.5	0.0	0.0	103.5
=	96.9	0.0	0.0	103.5
=	97.3	0.0	0.0	103.5
=	97.7	0.0	0.0	103.5
=	98.2	0.0	0.0	103.5
=	98.7	0.0	0.0	103.5
=	99.2	0.0	0.0	103.5
=	99.8	0.0	0.0	103.5
=	100.4	0.0	0.0	103.5
=	101.0	0.0	0.0	103.5
=	101.5	0.0	0.0	103.5
=	101.9	0.0	0.0	103.5
=	102.5	0.0	0.0	103.5
=	103.1	0.0	0.0	103.4
=	103.7	0.0	0.0	103.4
=	104.1	0.0	0.0	103.4
=	104.7	0.0	0.0	103.4
=	105.1	0.0	0.0	103.4
=	105.6	0.0	0.0	103.3
=	106.0	0.0	0.0	103.3
=	106.4	0.0	0.0	103.3
=	106.9	0.0	0.0	103.3
=	107.4	0.0	0.0	103.2
=	108.0	0.0	0.0	103.2
=	108.6	0.0	0.0	103.2
=	109.0	0.0	0.0	103.2
=	109.4	0.0	0.0	103.2
=	109.9	0.0	0.0	103.1
=	110.6	0.0	0.0	103.1
=	111.1	0.0	0.0	103.0
=	111.7	0.0	0.0	103.0
=	112.1	0.0	0.0	102.9
=	112.5	0.0	0.0	102.9
=	113.0	0.0	0.0	102.8
=	113.5	0.0	0.0	102.8
=	114.0	0.0	0.0	102.7
=	114.5	0.0	0.0	102.7
=	114.9	0.0	0.0	102.6
=	115.5	0.0	0.0	102.6
=	116.7	0.0	0.0	102.5
=	117.9	0.0	0.0	102.3
=	118.5	0.0	0.0	102.2
=	119.1	0.0	0.0	102.1
=	119.7	0.0	0.0	102.0
=	120.3	0.0	0.0	101.9
=	120.9	0.0	0.0	101.8
=	121.5	0.0	0.0	101.7
=	122.2	0.0	0.0	101.6
=	122.8	0.0	0.0	101.5
=	123.4	0.0	0.0	101.4
=	124.0	0.0	0.0	101.3
=	124.6	0.0	0.0	101.2
=	125.2	0.0	0.0	101.0
=	125.8	0.0	0.0	100.9
=	126.4	0.0	0.0	100.8
=	127.0	0.0	0.0	100.7
=	127.6	0.0	0.0	100.5
=	128.2	0.0	0.0	100.4
=	128.8	0.0	0.0	100.2
=	129.5	0.0	0.0	100.0
=	130.0	0.0	0.0	99.9
=	130.7	0.0	0.0	99.7
=	131.3	0.0	0.0	99.5
=	131.9	0.0	0.0	99.4
=	132.6	0.0	0.0	99.2
=	133.1	0.0	0.0	99.1
=	133.7	0.0	0.0	98.9
=	134.3	0.0	0.0	98.6
=	134.9	0.0	0.0	98.5
=	136.0	0.0	0.0	98.1
=	136.7	0.0	0.0	97.9
=	137.4	0.0	0.0	97.7
=	137.9	0.0	0.0	97.6
=	138.5	0.0	0.0	97.4
=	139.1	0.0	0.0	97.2
=	139.8	0.0	0.0	96.9
=	140.4	0.0	0.0	96.7
=	141.0	0.0	0.0	96.5
=	141.6	0.0	0.0	96.2
=	142.2	0.0	0.0	96.0
=	142.8	0.0	0.0	95.7
=	143.5	0.0	0.0	95.4
=	144.0	0.0	0.0	95.2
=	144.7	0.0	0.0	94.9
=	145.2	0.0	0.0	94.7
=	145.9	0.0	0.0	94.5
=	146.5	0.0	0.0	94.2
=	147.3	0.0	0.0	93.8
=	147.9	0.0	0.0	93.5
=	148.5	0.0	0.0	93.3
=	149.1	0.0	0.0	93.0
=	149.7	0.0	0.0	92.8
=	150.4	0.0	0.0	92.4
=	150.9	0.0	0.0	92.2
=	151.6	0.0	0.0	91.8
=	152.5	0.0	0.0	91.3
=	153.5	0.0	0.0	90.8
=	154.4	0.0	0.0	90.3
=	155.3	0.0	0.0	89.8
=	155.9	0.0	0.0	89.5
=	156.5	0.0	0.0	89.1
=	157.6	0.0	0.0	88.5
=	158.4	0.0	0.0	88.1
=	159.0	0.0	0.0	87.8
=	159.6	0.0	0.0	87.4
=	160.2	0.0	0.0	87.0
=	160.8	0.0	0.0	86.7
=	161.4	0.0	0.0	86.3
=	162.0	0.0	0.0	85.9
=	162.5	0.0	0.0	85.7
=	163.0	0.0	0.0	85.3
=	163.6	0.0	0.0	84.9
=	164.0	0.0	0.0	84.6
=	164.6	0.0	0.0	84.3
=	165.2	0.0	0.0	83.9
=	165.8	0.0	0.0	83.4
=	166.4	0.0	0.0	83.1
=	167.0	0.0	0.0	82.6
=	167.5	0.0	0.0	82.4
=	168.1	0.0	0.0	81.9
=	168.6	0.0	0.0	81.5
=	169.3	0.0	0.0	81.1
=	169.9	0.0	0.0	80.6
=	170.3	0.0	0.0	80.4
=	170.7	0.0	0.0	80.1
=	171.2	0.0	0.0	79.6
=	171.8	0.0	0.0	79.2
=	172.4	0.0	0.0	78.7
=	173.1	0.0	0.0	78.3
=	173.5	0.0	0.0	77.9
=	173.9	0.0	0.0	77.5
=	174.5	0.0	0.0	77.1
=	175.1	0.0	0.0	76.6
=	175.7	0.0	0.0	76.0
=	176.2	0.0	0.0	75.6
=	176.9	0.0	0.0	75.0
=	177.5	0.0	0.0	74.5
=	178.1	0.0	0.0	74.0
=	178.7	0.0	0.0	73.5
=	179.3	0.0	0.0	72.9
=	179.9	0.0	0.0	72.4
=	180.5	0.0	0.0	71.9
=	181.1	0.0	0.0	71.2
=	181.7	0.0	0.0	70.6
=	182.3	0.0	0.0	70.1
=	183.0	0.0	0.0	69.5
=	183.5	0.0	0.0	68.9
=	184.2	0.0	0.0	68.2
=	184.7	0.0	0.0	67.6
=	185.4	0.0	0.0	66.9
=	185.9	0.0	0.0	66.3
=	186.5	0.0	0.0	65.6
=	187.2	0.0	0.0	64.8
=	187.8	0.0	0.0	64.1
=	188.4	0.0	0.0	63.3
=	189.0	0.0	0.0	62.6
=	189.6	0.0	0.0	61.8
=	190.2	0.0	0.0	61.0
=	190.8	0.0	0.0	60.2
=	191.4	0.0	0.0	59.3
=	192.0	0.0	0.0	58.4
=	192.6	0.0	0.0	57.5
=	193.2	0.0	0.0	56.6
=	193.8	0.0	0.0	55.6
=	194.4	0.0	0.0	54.6
=	195.0	0.0	0.0	53.6
=	195.6	0.0	0.0	52.6
=	196.2	0.0	0.0	51.5
=	196.7	0.0	0.0	50.6
=	197.2	0.0	0.0	49.7
=	197.8	0.0	0.0	48.5
=	198.3	0.0	0.0	47.6
=	198.7	0.0	0.0	46.8
=	199.2	0.0	0.0	45.9
=	199.9	0.0	0.0	44.6
=	200.5	0.0	0.0	43.4
=	201.0	0.0	0.0	42.2
=	201.6	0.0	0.0	41.1
=	202.0	0.0	0.0	40.2
=	202.6	0.0	0.0	38.9
=	203.3	0.0	0.0	37.6
=	203.8	0.0	0.0	36.4
=	204.3	0.0	0.0	35.5
=	204.9	0.0	0.0	34.3
=	205.4	0.0	0.0	33.1
=	206.0	0.0	0.0	32.0
=	206.4	0.0	0.0	31.1
=	207.1	0.0	0.0	29.7
=	207.7	0.0	0.0	28.5
=	208.1	0.0	0.0	27.6
=	208.7	0.0	0.0	26.5
=	209.3	0.0	0.0	25.5
=	209.9	0.0	0.0	24.3
=	210.5	0.0	0.0	23.2
=	211.1	0.0	0.0	22.1
=	211.7	0.0	0.0	21.1
=	212.3	0.0	0.0	20.1
=	212.9	0.0	0.0	19.1
=	213.6	0.0	0.0	18.2
=	214.1	0.0	0.0	17.3
=	214.8	0.0	0.0	16.4
=	215.4	0.0	0.0	15.6
=	216.0	0.0	0.0	14.7
=	216.6	0.0	0.0	14.0
=	217.2	0.0	0.0	13.3
=	217.8	0.0	0.0	12.6
=	218.4	0.0	0.0	12.0
=	219.0	0.0	0.0	11.3
=	219.6	0.0	0.0	10.7
=	220.0	0.0	0.0	10.4
=	220.6	0.0	0.0	9.8
=	221.2	0.0	0.0	9.3
=	221.8	0.0	0.0	8.8
=	222.4	0.0	0.0	8.4
=	223.0	0.0	0.0	8.0
=	223.6	0.0	0.0	7.6
=	224.2	0.0	0.0	7.3
=	224.6	0.0	0.0	7.0
=	225.2	0.0	0.0	6.7
=	225.8	0.0	0.0	6.4
=	226.5	0.0	0.0	6.1
=	227.0	0.0	0.0	5.8
=	227.7	0.0	0.0	5.6
=	228.3	0.0	0.0	5.4
=	228.9	0.0	0.0	5.2
=	229.5	0.0	0.0	5.0
=	230.1	0.0	0.0	4.8
=	230.5	0.0	0.0	4.6
=	231.1	0.0	0.0	4.5
=	231.7	0.0	0.0	4.4
=	232.3	0.0	0.0	4.2
=	232.9	0.0	0.0	4.1
=	233.5	0.0	0.0	4.0
=	234.1	0.0	0.0	3.9
=	234.7	0.0	0.0	3.8
=	235.3	0.0	0.0	3.7
=	235.9	0.0	0.0	3.6
=	236.5	0.0	0.0	3.5
=	237.1	0.0	0.0	3.4
=	237.8	0.0	0.0	3.3
=	238.3	0.0	0.0	3.3
=	238.9	0.0	0.0	3.2
=	239.7	0.0	0.0	3.1
:EOM # End of Measurement

:EOF # End of File