:MSR 	5	 # No. of measurement in file
:SYS BDS 0   # Beam Data Scanner System
#
# RFA300 ASCII Measurement Dump ( BDS format )
#
# Measurement number 	1
#
%VNR 1.0
%MOD 	RAT
%TYP 	SCN
%SCN 	DPT
%FLD 	ION
%DAT 	09-22-2011
%TIM 	12:00:00
%FSZ 	040	040
%BMT 	PHO	   15.0
%SSD 	1000
%BUP 	0
%BRD 	1000
%FSH 	1
%ASC 	0
%WEG 	15
%GPO 	0
%CPO 	0
%MEA 	5
%PRD 	0,0
%PTS 	726
%STS 	    0.0	  0.0	   0.0 # Start Scan values in mm ( X , Y , Z )
%EDS 	    0.0	   0.0	   347.9 # End Scan values in mm ( X , Y , Z )
#
#	  X      Y      Z     Dose
#
=	0.0	0.0	0.0	22.7
=	0.0	0.0	0.5	23.9
=	0.0	0.0	0.9	25.3
=	0.0	0.0	1.4	26.8
=	0.0	0.0	1.8	28.7
=	0.0	0.0	2.3	31.7
=	0.0	0.0	2.8	35.3
=	0.0	0.0	3.3	38.8
=	0.0	0.0	3.7	42.3
=	0.0	0.0	4.2	45.9
=	0.0	0.0	4.6	49.4
=	0.0	0.0	5.0	52.2
=	0.0	0.0	5.4	54.9
=	0.0	0.0	5.9	57.9
=	0.0	0.0	6.4	60.8
=	0.0	0.0	6.8	63.6
=	0.0	0.0	7.2	65.7
=	0.0	0.0	7.6	67.7
=	0.0	0.0	8.0	69.1
=	0.0	0.0	8.4	70.5
=	0.0	0.0	8.8	72.6
=	0.0	0.0	9.3	74.4
=	0.0	0.0	9.9	76.6
=	0.0	0.0	10.3	78.0
=	0.0	0.0	10.7	79.4
=	0.0	0.0	11.2	80.7
=	0.0	0.0	11.6	82.0
=	0.0	0.0	12.1	83.0
=	0.0	0.0	12.5	84.2
=	0.0	0.0	13.0	85.6
=	0.0	0.0	13.6	86.9
=	0.0	0.0	14.1	88.1
=	0.0	0.0	14.6	88.8
=	0.0	0.0	15.1	89.9
=	0.0	0.0	15.6	90.8
=	0.0	0.0	16.1	91.4
=	0.0	0.0	16.4	91.9
=	0.0	0.0	16.8	92.6
=	0.0	0.0	17.2	93.1
=	0.0	0.0	17.7	93.6
=	0.0	0.0	18.1	94.1
=	0.0	0.0	18.6	94.7
=	0.0	0.0	19.1	95.3
=	0.0	0.0	19.6	95.8
=	0.0	0.0	20.0	96.2
=	0.0	0.0	20.4	96.6
=	0.0	0.0	20.9	97.1
=	0.0	0.0	21.3	97.4
=	0.0	0.0	21.8	97.5
=	0.0	0.0	22.2	97.8
=	0.0	0.0	22.6	98.1
=	0.0	0.0	23.0	98.2
=	0.0	0.0	23.4	98.4
=	0.0	0.0	23.8	98.5
=	0.0	0.0	24.2	98.8
=	0.0	0.0	24.7	99.0
=	0.0	0.0	25.3	99.2
=	0.0	0.0	25.7	99.4
=	0.0	0.0	26.1	99.5
=	0.0	0.0	26.5	99.6
=	0.0	0.0	26.9	99.7
=	0.0	0.0	27.3	99.7
=	0.0	0.0	27.7	99.8
=	0.0	0.0	28.1	99.8
=	0.0	0.0	28.6	99.9
=	0.0	0.0	29.0	99.9
=	0.0	0.0	29.4	100.0
=	0.0	0.0	29.9	100.0
=	0.0	0.0	30.3	100.0
=	0.0	0.0	30.6	100.0
=	0.0	0.0	31.2	100.0
=	0.0	0.0	31.8	100.0
=	0.0	0.0	32.3	100.0
=	0.0	0.0	32.8	99.9
=	0.0	0.0	33.2	99.9
=	0.0	0.0	33.6	99.8
=	0.0	0.0	34.0	99.7
=	0.0	0.0	34.6	99.6
=	0.0	0.0	35.1	99.6
=	0.0	0.0	35.5	99.5
=	0.0	0.0	36.1	99.4
=	0.0	0.0	36.6	99.3
=	0.0	0.0	37.1	99.2
=	0.0	0.0	37.6	99.1
=	0.0	0.0	38.1	99.0
=	0.0	0.0	38.7	98.9
=	0.0	0.0	39.2	98.8
=	0.0	0.0	39.7	98.6
=	0.0	0.0	40.3	98.4
=	0.0	0.0	40.8	98.2
=	0.0	0.0	41.2	98.1
=	0.0	0.0	41.7	98.0
=	0.0	0.0	42.2	97.8
=	0.0	0.0	42.7	97.6
=	0.0	0.0	43.2	97.5
=	0.0	0.0	43.7	97.3
=	0.0	0.0	44.2	97.1
=	0.0	0.0	44.5	96.9
=	0.0	0.0	44.9	96.7
=	0.0	0.0	45.4	96.6
=	0.0	0.0	46.1	96.3
=	0.0	0.0	46.6	96.2
=	0.0	0.0	47.0	96.1
=	0.0	0.0	47.4	95.9
=	0.0	0.0	47.9	95.6
=	0.0	0.0	48.4	95.4
=	0.0	0.0	49.0	95.3
=	0.0	0.0	49.6	95.0
=	0.0	0.0	50.1	94.9
=	0.0	0.0	50.6	94.6
=	0.0	0.0	51.2	94.5
=	0.0	0.0	51.7	94.3
=	0.0	0.0	52.1	94.1
=	0.0	0.0	52.5	93.9
=	0.0	0.0	52.9	93.8
=	0.0	0.0	53.3	93.5
=	0.0	0.0	53.9	93.3
=	0.0	0.0	54.3	93.1
=	0.0	0.0	54.8	92.9
=	0.0	0.0	55.2	92.8
=	0.0	0.0	55.6	92.6
=	0.0	0.0	56.0	92.5
=	0.0	0.0	56.4	92.3
=	0.0	0.0	56.9	92.2
=	0.0	0.0	57.3	92.1
=	0.0	0.0	57.8	91.9
=	0.0	0.0	58.3	91.7
=	0.0	0.0	58.7	91.5
=	0.0	0.0	59.1	91.4
=	0.0	0.0	59.6	91.1
=	0.0	0.0	60.0	90.9
=	0.0	0.0	60.4	90.8
=	0.0	0.0	60.9	90.6
=	0.0	0.0	61.4	90.3
=	0.0	0.0	61.9	90.1
=	0.0	0.0	62.3	89.9
=	0.0	0.0	62.8	89.7
=	0.0	0.0	63.3	89.4
=	0.0	0.0	63.8	89.3
=	0.0	0.0	64.4	89.2
=	0.0	0.0	64.7	89.1
=	0.0	0.0	65.2	88.9
=	0.0	0.0	65.6	88.7
=	0.0	0.0	66.1	88.5
=	0.0	0.0	66.6	88.2
=	0.0	0.0	67.1	87.9
=	0.0	0.0	67.7	87.7
=	0.0	0.0	68.3	87.4
=	0.0	0.0	68.7	87.2
=	0.0	0.0	69.1	87.1
=	0.0	0.0	69.4	87.0
=	0.0	0.0	69.8	86.9
=	0.0	0.0	70.3	86.8
=	0.0	0.0	70.8	86.6
=	0.0	0.0	71.3	86.4
=	0.0	0.0	71.7	86.2
=	0.0	0.0	72.2	86.0
=	0.0	0.0	72.7	85.7
=	0.0	0.0	73.1	85.5
=	0.0	0.0	73.6	85.3
=	0.0	0.0	74.2	85.1
=	0.0	0.0	74.6	85.0
=	0.0	0.0	75.1	84.9
=	0.0	0.0	75.6	84.6
=	0.0	0.0	76.0	84.5
=	0.0	0.0	76.3	84.4
=	0.0	0.0	76.8	84.2
=	0.0	0.0	77.3	83.9
=	0.0	0.0	77.8	83.8
=	0.0	0.0	78.2	83.7
=	0.0	0.0	78.6	83.6
=	0.0	0.0	79.0	83.4
=	0.0	0.0	79.5	83.3
=	0.0	0.0	80.0	83.1
=	0.0	0.0	80.5	82.8
=	0.0	0.0	81.0	82.6
=	0.0	0.0	81.4	82.5
=	0.0	0.0	82.0	82.2
=	0.0	0.0	82.4	82.1
=	0.0	0.0	82.8	81.9
=	0.0	0.0	83.2	81.7
=	0.0	0.0	83.7	81.5
=	0.0	0.0	84.1	81.4
=	0.0	0.0	84.5	81.3
=	0.0	0.0	84.9	81.2
=	0.0	0.0	85.5	81.0
=	0.0	0.0	86.1	80.8
=	0.0	0.0	86.6	80.6
=	0.0	0.0	87.1	80.3
=	0.0	0.0	87.6	80.1
=	0.0	0.0	88.2	79.9
=	0.0	0.0	88.6	79.8
=	0.0	0.0	89.0	79.6
=	0.0	0.0	89.6	79.3
=	0.0	0.0	90.0	79.2
=	0.0	0.0	90.4	79.1
=	0.0	0.0	91.0	78.9
=	0.0	0.0	91.6	78.7
=	0.0	0.0	92.1	78.6
=	0.0	0.0	92.5	78.5
=	0.0	0.0	92.8	78.4
=	0.0	0.0	93.2	78.3
=	0.0	0.0	93.6	78.2
=	0.0	0.0	94.0	78.0
=	0.0	0.0	94.4	77.8
=	0.0	0.0	94.8	77.7
=	0.0	0.0	95.3	77.5
=	0.0	0.0	95.7	77.4
=	0.0	0.0	96.2	77.2
=	0.0	0.0	96.8	76.9
=	0.0	0.0	97.4	76.5
=	0.0	0.0	98.1	76.3
=	0.0	0.0	98.7	76.1
=	0.0	0.0	99.3	75.8
=	0.0	0.0	99.9	75.6
=	0.0	0.0	100.4	75.5
=	0.0	0.0	100.9	75.3
=	0.0	0.0	101.5	75.1
=	0.0	0.0	102.1	74.9
=	0.0	0.0	102.5	74.8
=	0.0	0.0	103.0	74.6
=	0.0	0.0	103.4	74.4
=	0.0	0.0	103.8	74.3
=	0.0	0.0	104.4	74.1
=	0.0	0.0	104.8	74.0
=	0.0	0.0	105.3	73.9
=	0.0	0.0	105.7	73.7
=	0.0	0.0	106.2	73.5
=	0.0	0.0	106.7	73.3
=	0.0	0.0	107.2	73.1
=	0.0	0.0	107.7	73.0
=	0.0	0.0	108.2	72.9
=	0.0	0.0	108.8	72.7
=	0.0	0.0	109.3	72.6
=	0.0	0.0	109.9	72.3
=	0.0	0.0	110.3	72.1
=	0.0	0.0	110.7	72.0
=	0.0	0.0	111.3	71.8
=	0.0	0.0	111.7	71.7
=	0.0	0.0	112.2	71.6
=	0.0	0.0	112.8	71.3
=	0.0	0.0	113.4	71.1
=	0.0	0.0	113.8	71.0
=	0.0	0.0	114.2	70.8
=	0.0	0.0	114.6	70.7
=	0.0	0.0	115.0	70.6
=	0.0	0.0	115.6	70.4
=	0.0	0.0	116.1	70.3
=	0.0	0.0	116.7	70.2
=	0.0	0.0	117.2	70.0
=	0.0	0.0	117.7	69.8
=	0.0	0.0	118.1	69.6
=	0.0	0.0	118.5	69.5
=	0.0	0.0	119.0	69.3
=	0.0	0.0	119.5	69.2
=	0.0	0.0	119.9	69.0
=	0.0	0.0	120.6	68.9
=	0.0	0.0	121.1	68.7
=	0.0	0.0	121.5	68.6
=	0.0	0.0	122.1	68.4
=	0.0	0.0	122.5	68.2
=	0.0	0.0	122.9	68.1
=	0.0	0.0	123.5	67.8
=	0.0	0.0	123.9	67.6
=	0.0	0.0	124.3	67.6
=	0.0	0.0	124.8	67.3
=	0.0	0.0	125.3	67.2
=	0.0	0.0	125.7	67.1
=	0.0	0.0	126.3	66.9
=	0.0	0.0	126.7	66.8
=	0.0	0.0	127.1	66.7
=	0.0	0.0	127.4	66.6
=	0.0	0.0	127.9	66.4
=	0.0	0.0	128.4	66.2
=	0.0	0.0	129.0	66.0
=	0.0	0.0	129.5	65.9
=	0.0	0.0	130.0	65.8
=	0.0	0.0	130.5	65.7
=	0.0	0.0	130.9	65.5
=	0.0	0.0	131.3	65.4
=	0.0	0.0	131.7	65.3
=	0.0	0.0	132.1	65.2
=	0.0	0.0	132.6	65.1
=	0.0	0.0	133.3	65.0
=	0.0	0.0	133.9	64.7
=	0.0	0.0	134.4	64.6
=	0.0	0.0	134.9	64.5
=	0.0	0.0	135.5	64.3
=	0.0	0.0	136.0	64.2
=	0.0	0.0	136.6	63.9
=	0.0	0.0	137.1	63.7
=	0.0	0.0	137.6	63.6
=	0.0	0.0	138.0	63.5
=	0.0	0.0	138.4	63.4
=	0.0	0.0	139.0	63.3
=	0.0	0.0	139.4	63.1
=	0.0	0.0	139.8	62.9
=	0.0	0.0	140.2	62.9
=	0.0	0.0	140.6	62.8
=	0.0	0.0	141.0	62.7
=	0.0	0.0	141.4	62.6
=	0.0	0.0	141.9	62.5
=	0.0	0.0	142.5	62.3
=	0.0	0.0	143.0	62.1
=	0.0	0.0	143.5	62.0
=	0.0	0.0	144.1	61.8
=	0.0	0.0	144.7	61.6
=	0.0	0.0	145.2	61.5
=	0.0	0.0	145.8	61.3
=	0.0	0.0	146.3	61.1
=	0.0	0.0	146.8	61.0
=	0.0	0.0	147.3	60.9
=	0.0	0.0	147.8	60.7
=	0.0	0.0	148.3	60.5
=	0.0	0.0	148.9	60.3
=	0.0	0.0	149.3	60.2
=	0.0	0.0	149.6	60.1
=	0.0	0.0	150.2	60.0
=	0.0	0.0	150.9	59.8
=	0.0	0.0	151.4	59.6
=	0.0	0.0	152.1	59.5
=	0.0	0.0	152.5	59.3
=	0.0	0.0	153.1	59.2
=	0.0	0.0	153.7	59.1
=	0.0	0.0	154.2	58.9
=	0.0	0.0	154.7	58.7
=	0.0	0.0	155.3	58.6
=	0.0	0.0	155.9	58.5
=	0.0	0.0	156.4	58.3
=	0.0	0.0	156.9	58.2
=	0.0	0.0	157.4	58.0
=	0.0	0.0	157.8	57.9
=	0.0	0.0	158.4	57.8
=	0.0	0.0	158.9	57.7
=	0.0	0.0	159.4	57.5
=	0.0	0.0	159.8	57.3
=	0.0	0.0	160.4	57.2
=	0.0	0.0	160.9	57.1
=	0.0	0.0	161.4	56.9
=	0.0	0.0	161.9	56.9
=	0.0	0.0	162.5	56.8
=	0.0	0.0	163.1	56.6
=	0.0	0.0	163.7	56.4
=	0.0	0.0	164.1	56.3
=	0.0	0.0	164.5	56.2
=	0.0	0.0	165.0	56.1
=	0.0	0.0	165.3	56.0
=	0.0	0.0	165.8	55.9
=	0.0	0.0	166.2	55.8
=	0.0	0.0	166.6	55.7
=	0.0	0.0	167.0	55.5
=	0.0	0.0	167.6	55.4
=	0.0	0.0	168.0	55.3
=	0.0	0.0	168.6	55.2
=	0.0	0.0	169.0	55.1
=	0.0	0.0	169.4	55.0
=	0.0	0.0	169.8	54.9
=	0.0	0.0	170.3	54.7
=	0.0	0.0	170.7	54.6
=	0.0	0.0	171.3	54.5
=	0.0	0.0	171.7	54.3
=	0.0	0.0	172.2	54.2
=	0.0	0.0	172.7	54.1
=	0.0	0.0	173.1	54.0
=	0.0	0.0	173.6	53.9
=	0.0	0.0	174.0	53.8
=	0.0	0.0	174.5	53.6
=	0.0	0.0	175.0	53.5
=	0.0	0.0	175.6	53.4
=	0.0	0.0	176.2	53.2
=	0.0	0.0	176.6	53.1
=	0.0	0.0	176.9	53.1
=	0.0	0.0	177.4	53.0
=	0.0	0.0	177.8	52.8
=	0.0	0.0	178.5	52.7
=	0.0	0.0	179.1	52.6
=	0.0	0.0	179.5	52.5
=	0.0	0.0	179.9	52.4
=	0.0	0.0	180.3	52.3
=	0.0	0.0	180.9	52.2
=	0.0	0.0	181.4	52.0
=	0.0	0.0	181.9	52.0
=	0.0	0.0	182.3	51.9
=	0.0	0.0	182.7	51.7
=	0.0	0.0	183.2	51.7
=	0.0	0.0	183.8	51.5
=	0.0	0.0	184.2	51.4
=	0.0	0.0	184.8	51.2
=	0.0	0.0	185.4	51.1
=	0.0	0.0	186.0	50.9
=	0.0	0.0	186.5	50.8
=	0.0	0.0	186.9	50.7
=	0.0	0.0	187.4	50.5
=	0.0	0.0	187.9	50.5
=	0.0	0.0	188.5	50.4
=	0.0	0.0	189.0	50.2
=	0.0	0.0	189.5	50.1
=	0.0	0.0	190.1	50.0
=	0.0	0.0	190.5	49.8
=	0.0	0.0	191.1	49.7
=	0.0	0.0	191.6	49.6
=	0.0	0.0	192.0	49.5
=	0.0	0.0	192.6	49.3
=	0.0	0.0	193.0	49.3
=	0.0	0.0	193.5	49.2
=	0.0	0.0	194.0	49.1
=	0.0	0.0	194.5	49.0
=	0.0	0.0	194.9	48.9
=	0.0	0.0	195.3	48.8
=	0.0	0.0	195.8	48.7
=	0.0	0.0	196.2	48.6
=	0.0	0.0	196.6	48.5
=	0.0	0.0	197.0	48.4
=	0.0	0.0	197.5	48.3
=	0.0	0.0	198.1	48.2
=	0.0	0.0	198.5	48.1
=	0.0	0.0	199.0	48.0
=	0.0	0.0	199.6	47.9
=	0.0	0.0	200.1	47.7
=	0.0	0.0	200.6	47.6
=	0.0	0.0	201.1	47.6
=	0.0	0.0	201.5	47.5
=	0.0	0.0	202.0	47.4
=	0.0	0.0	202.5	47.3
=	0.0	0.0	203.0	47.1
=	0.0	0.0	203.5	47.0
=	0.0	0.0	204.0	46.9
=	0.0	0.0	204.4	46.8
=	0.0	0.0	204.9	46.7
=	0.0	0.0	205.5	46.6
=	0.0	0.0	206.0	46.5
=	0.0	0.0	206.4	46.4
=	0.0	0.0	206.7	46.3
=	0.0	0.0	207.1	46.2
=	0.0	0.0	207.5	46.1
=	0.0	0.0	207.9	46.0
=	0.0	0.0	208.3	45.9
=	0.0	0.0	208.7	45.8
=	0.0	0.0	209.1	45.8
=	0.0	0.0	209.6	45.7
=	0.0	0.0	209.9	45.6
=	0.0	0.0	210.3	45.6
=	0.0	0.0	210.9	45.5
=	0.0	0.0	211.5	45.4
=	0.0	0.0	212.0	45.3
=	0.0	0.0	212.4	45.2
=	0.0	0.0	212.8	45.1
=	0.0	0.0	213.2	45.1
=	0.0	0.0	213.6	45.0
=	0.0	0.0	214.0	44.9
=	0.0	0.0	214.3	44.8
=	0.0	0.0	214.8	44.7
=	0.0	0.0	215.4	44.6
=	0.0	0.0	215.9	44.4
=	0.0	0.0	216.3	44.4
=	0.0	0.0	216.8	44.3
=	0.0	0.0	217.2	44.2
=	0.0	0.0	217.5	44.1
=	0.0	0.0	218.0	44.0
=	0.0	0.0	218.6	43.9
=	0.0	0.0	219.1	43.8
=	0.0	0.0	219.7	43.7
=	0.0	0.0	220.2	43.6
=	0.0	0.0	220.7	43.5
=	0.0	0.0	221.1	43.4
=	0.0	0.0	221.5	43.3
=	0.0	0.0	221.9	43.2
=	0.0	0.0	222.3	43.1
=	0.0	0.0	222.7	43.1
=	0.0	0.0	223.3	43.0
=	0.0	0.0	223.8	42.9
=	0.0	0.0	224.2	42.8
=	0.0	0.0	224.7	42.7
=	0.0	0.0	225.2	42.6
=	0.0	0.0	225.6	42.6
=	0.0	0.0	226.2	42.5
=	0.0	0.0	226.7	42.3
=	0.0	0.0	227.3	42.2
=	0.0	0.0	227.9	42.1
=	0.0	0.0	228.5	42.0
=	0.0	0.0	228.9	42.0
=	0.0	0.0	229.3	41.9
=	0.0	0.0	229.7	41.8
=	0.0	0.0	230.0	41.8
=	0.0	0.0	230.4	41.7
=	0.0	0.0	230.8	41.6
=	0.0	0.0	231.2	41.5
=	0.0	0.0	231.8	41.4
=	0.0	0.0	232.4	41.2
=	0.0	0.0	232.9	41.2
=	0.0	0.0	233.4	41.1
=	0.0	0.0	234.1	40.9
=	0.0	0.0	234.6	40.8
=	0.0	0.0	235.0	40.8
=	0.0	0.0	235.4	40.7
=	0.0	0.0	235.8	40.6
=	0.0	0.0	236.2	40.6
=	0.0	0.0	236.7	40.5
=	0.0	0.0	237.1	40.4
=	0.0	0.0	237.5	40.3
=	0.0	0.0	237.9	40.2
=	0.0	0.0	238.3	40.2
=	0.0	0.0	238.8	40.1
=	0.0	0.0	239.4	40.0
=	0.0	0.0	239.9	39.9
=	0.0	0.0	240.4	39.9
=	0.0	0.0	240.8	39.8
=	0.0	0.0	241.2	39.8
=	0.0	0.0	241.6	39.6
=	0.0	0.0	242.0	39.6
=	0.0	0.0	242.6	39.4
=	0.0	0.0	243.2	39.2
=	0.0	0.0	243.9	39.1
=	0.0	0.0	244.4	39.0
=	0.0	0.0	244.8	39.0
=	0.0	0.0	245.3	38.9
=	0.0	0.0	245.9	38.7
=	0.0	0.0	246.3	38.6
=	0.0	0.0	246.8	38.6
=	0.0	0.0	247.1	38.6
=	0.0	0.0	247.5	38.5
=	0.0	0.0	247.9	38.4
=	0.0	0.0	248.4	38.3
=	0.0	0.0	249.0	38.3
=	0.0	0.0	249.7	38.1
=	0.0	0.0	250.3	38.0
=	0.0	0.0	250.8	37.9
=	0.0	0.0	251.3	37.9
=	0.0	0.0	251.9	37.8
=	0.0	0.0	252.5	37.7
=	0.0	0.0	253.0	37.6
=	0.0	0.0	253.5	37.5
=	0.0	0.0	253.9	37.5
=	0.0	0.0	254.4	37.3
=	0.0	0.0	254.7	37.3
=	0.0	0.0	255.1	37.2
=	0.0	0.0	255.5	37.2
=	0.0	0.0	255.9	37.1
=	0.0	0.0	256.3	37.0
=	0.0	0.0	256.7	36.9
=	0.0	0.0	257.1	36.9
=	0.0	0.0	257.4	36.8
=	0.0	0.0	257.9	36.7
=	0.0	0.0	258.5	36.6
=	0.0	0.0	259.1	36.6
=	0.0	0.0	259.6	36.5
=	0.0	0.0	260.0	36.5
=	0.0	0.0	260.4	36.4
=	0.0	0.0	260.9	36.4
=	0.0	0.0	261.4	36.3
=	0.0	0.0	262.0	36.2
=	0.0	0.0	262.4	36.0
=	0.0	0.0	262.9	36.0
=	0.0	0.0	263.3	35.9
=	0.0	0.0	263.6	35.9
=	0.0	0.0	264.0	35.8
=	0.0	0.0	264.4	35.7
=	0.0	0.0	264.8	35.7
=	0.0	0.0	265.4	35.6
=	0.0	0.0	266.0	35.5
=	0.0	0.0	266.7	35.4
=	0.0	0.0	267.3	35.3
=	0.0	0.0	267.9	35.2
=	0.0	0.0	268.3	35.1
=	0.0	0.0	268.8	35.0
=	0.0	0.0	269.4	35.0
=	0.0	0.0	269.8	34.9
=	0.0	0.0	270.3	34.8
=	0.0	0.0	270.7	34.8
=	0.0	0.0	271.2	34.7
=	0.0	0.0	271.8	34.6
=	0.0	0.0	272.2	34.5
=	0.0	0.0	272.8	34.5
=	0.0	0.0	273.4	34.4
=	0.0	0.0	273.9	34.3
=	0.0	0.0	274.5	34.1
=	0.0	0.0	275.1	34.1
=	0.0	0.0	275.7	34.0
=	0.0	0.0	276.3	33.9
=	0.0	0.0	276.9	33.8
=	0.0	0.0	277.3	33.8
=	0.0	0.0	277.8	33.7
=	0.0	0.0	278.1	33.7
=	0.0	0.0	278.6	33.6
=	0.0	0.0	279.0	33.6
=	0.0	0.0	279.6	33.5
=	0.0	0.0	280.1	33.4
=	0.0	0.0	280.5	33.3
=	0.0	0.0	281.0	33.2
=	0.0	0.0	281.6	33.1
=	0.0	0.0	282.1	33.0
=	0.0	0.0	282.6	32.9
=	0.0	0.0	282.9	32.9
=	0.0	0.0	283.5	32.8
=	0.0	0.0	284.0	32.8
=	0.0	0.0	284.4	32.7
=	0.0	0.0	284.9	32.7
=	0.0	0.0	285.3	32.6
=	0.0	0.0	285.6	32.6
=	0.0	0.0	286.1	32.5
=	0.0	0.0	286.7	32.4
=	0.0	0.0	287.3	32.3
=	0.0	0.0	288.0	32.2
=	0.0	0.0	288.6	32.1
=	0.0	0.0	289.2	32.0
=	0.0	0.0	289.8	32.0
=	0.0	0.0	290.4	31.9
=	0.0	0.0	290.9	31.9
=	0.0	0.0	291.3	31.8
=	0.0	0.0	291.8	31.7
=	0.0	0.0	292.2	31.6
=	0.0	0.0	292.7	31.5
=	0.0	0.0	293.2	31.4
=	0.0	0.0	293.6	31.4
=	0.0	0.0	294.1	31.3
=	0.0	0.0	294.5	31.3
=	0.0	0.0	294.9	31.2
=	0.0	0.0	295.3	31.2
=	0.0	0.0	295.7	31.1
=	0.0	0.0	296.1	31.1
=	0.0	0.0	296.4	31.1
=	0.0	0.0	296.8	31.0
=	0.0	0.0	297.2	31.0
=	0.0	0.0	297.7	30.9
=	0.0	0.0	298.1	30.8
=	0.0	0.0	298.6	30.7
=	0.0	0.0	299.1	30.7
=	0.0	0.0	299.6	30.6
=	0.0	0.0	300.2	30.5
=	0.0	0.0	300.7	30.4
=	0.0	0.0	301.2	30.4
=	0.0	0.0	301.8	30.3
=	0.0	0.0	302.4	30.2
=	0.0	0.0	303.0	30.2
=	0.0	0.0	303.5	30.1
=	0.0	0.0	303.9	30.0
=	0.0	0.0	304.4	30.0
=	0.0	0.0	304.8	29.9
=	0.0	0.0	305.3	29.8
=	0.0	0.0	305.9	29.8
=	0.0	0.0	306.4	29.7
=	0.0	0.0	307.0	29.6
=	0.0	0.0	307.6	29.5
=	0.0	0.0	308.0	29.4
=	0.0	0.0	308.5	29.4
=	0.0	0.0	309.0	29.3
=	0.0	0.0	309.4	29.3
=	0.0	0.0	309.9	29.3
=	0.0	0.0	310.3	29.2
=	0.0	0.0	310.8	29.1
=	0.0	0.0	311.4	29.0
=	0.0	0.0	312.0	29.0
=	0.0	0.0	312.4	28.9
=	0.0	0.0	312.7	28.9
=	0.0	0.0	313.2	28.8
=	0.0	0.0	313.7	28.7
=	0.0	0.0	314.2	28.7
=	0.0	0.0	314.6	28.6
=	0.0	0.0	315.0	28.6
=	0.0	0.0	315.4	28.6
=	0.0	0.0	315.8	28.5
=	0.0	0.0	316.4	28.4
=	0.0	0.0	317.0	28.4
=	0.0	0.0	317.5	28.3
=	0.0	0.0	318.0	28.2
=	0.0	0.0	318.4	28.2
=	0.0	0.0	319.0	28.1
=	0.0	0.0	319.5	28.0
=	0.0	0.0	319.9	28.0
=	0.0	0.0	320.4	27.9
=	0.0	0.0	320.9	27.9
=	0.0	0.0	321.3	27.8
=	0.0	0.0	321.9	27.8
=	0.0	0.0	322.3	27.7
=	0.0	0.0	322.9	27.7
=	0.0	0.0	323.4	27.6
=	0.0	0.0	323.8	27.5
=	0.0	0.0	324.3	27.5
=	0.0	0.0	324.9	27.4
=	0.0	0.0	325.4	27.4
=	0.0	0.0	326.0	27.3
=	0.0	0.0	326.5	27.2
=	0.0	0.0	327.0	27.2
=	0.0	0.0	327.5	27.1
=	0.0	0.0	327.9	27.1
=	0.0	0.0	328.4	27.0
=	0.0	0.0	328.9	27.0
=	0.0	0.0	329.4	26.9
=	0.0	0.0	330.0	26.8
=	0.0	0.0	330.4	26.8
=	0.0	0.0	330.9	26.7
=	0.0	0.0	331.3	26.6
=	0.0	0.0	331.9	26.6
=	0.0	0.0	332.4	26.5
=	0.0	0.0	333.0	26.4
=	0.0	0.0	333.5	26.4
=	0.0	0.0	333.9	26.4
=	0.0	0.0	334.4	26.3
=	0.0	0.0	334.8	26.3
=	0.0	0.0	335.2	26.2
=	0.0	0.0	335.8	26.2
=	0.0	0.0	336.3	26.1
=	0.0	0.0	336.7	26.1
=	0.0	0.0	337.1	26.0
=	0.0	0.0	337.5	26.0
=	0.0	0.0	337.9	25.9
=	0.0	0.0	338.4	25.9
=	0.0	0.0	338.8	25.8
=	0.0	0.0	339.4	25.8
=	0.0	0.0	339.9	25.7
=	0.0	0.0	340.5	25.6
=	0.0	0.0	341.0	25.6
=	0.0	0.0	341.6	25.5
=	0.0	0.0	342.1	25.4
=	0.0	0.0	342.5	25.3
=	0.0	0.0	343.0	25.3
=	0.0	0.0	343.6	25.3
=	0.0	0.0	344.0	25.3
=	0.0	0.0	344.6	25.2
=	0.0	0.0	345.1	25.2
=	0.0	0.0	345.7	25.1
=	0.0	0.0	346.1	25.0
=	0.0	0.0	346.5	25.0
=	0.0	0.0	347.0	24.9
=	0.0	0.0	347.4	24.8
=	0.0	0.0	347.9	24.8
:EOM # End of Measurement
#
# RFA300 ASCII Measurement Dump ( BDS format )
#
# Measurement number 	2
#
%VNR 1.0
%MOD 	RAT
%TYP 	SCN
%SCN 	DPT
%FLD 	ION
%DAT 	10-27-2011
%TIM 	12:00:00
%FSZ 	100	100
%BMT 	PHO	   15.0
%SSD 	1000
%BUP 	0
%BRD 	1000
%FSH 	1
%ASC 	0
%WEG 	15
%GPO 	0
%CPO 	0
%MEA 	5
%PRD 	0,0
%PTS 	739
%STS 	    0.0	  0.0	   0.0 # Start Scan values in mm ( X , Y , Z )
%EDS 	    0.0	   0.0	   348.0 # End Scan values in mm ( X , Y , Z )
#
#	  X      Y      Z     Dose
#
=	0.0	0.0	0.0	30.1
=	0.0	0.0	0.2	30.7
=	0.0	0.0	0.8	32.1
=	0.0	0.0	1.3	33.9
=	0.0	0.0	1.8	36.0
=	0.0	0.0	2.4	39.4
=	0.0	0.0	2.7	42.0
=	0.0	0.0	3.2	45.5
=	0.0	0.0	3.8	50.1
=	0.0	0.0	4.4	54.4
=	0.0	0.0	4.9	57.4
=	0.0	0.0	5.4	60.9
=	0.0	0.0	5.9	63.6
=	0.0	0.0	6.4	66.4
=	0.0	0.0	6.8	68.5
=	0.0	0.0	7.2	70.5
=	0.0	0.0	7.7	72.6
=	0.0	0.0	8.1	74.2
=	0.0	0.0	8.5	75.5
=	0.0	0.0	8.9	77.1
=	0.0	0.0	9.3	78.4
=	0.0	0.0	9.8	80.1
=	0.0	0.0	10.2	81.2
=	0.0	0.0	10.5	82.4
=	0.0	0.0	11.0	83.5
=	0.0	0.0	11.5	85.1
=	0.0	0.0	11.9	85.8
=	0.0	0.0	12.3	86.8
=	0.0	0.0	12.8	87.9
=	0.0	0.0	13.3	88.8
=	0.0	0.0	13.7	89.5
=	0.0	0.0	14.2	90.4
=	0.0	0.0	14.6	91.1
=	0.0	0.0	15.0	91.9
=	0.0	0.0	15.4	92.4
=	0.0	0.0	15.8	93.0
=	0.0	0.0	16.2	93.5
=	0.0	0.0	16.6	94.0
=	0.0	0.0	17.1	94.7
=	0.0	0.0	17.7	95.2
=	0.0	0.0	18.2	95.7
=	0.0	0.0	18.9	96.3
=	0.0	0.0	19.4	96.7
=	0.0	0.0	19.9	97.0
=	0.0	0.0	20.4	97.3
=	0.0	0.0	20.8	97.7
=	0.0	0.0	21.3	98.0
=	0.0	0.0	21.8	98.2
=	0.0	0.0	22.3	98.5
=	0.0	0.0	22.8	98.8
=	0.0	0.0	23.2	98.9
=	0.0	0.0	23.6	99.1
=	0.0	0.0	24.0	99.2
=	0.0	0.0	24.5	99.3
=	0.0	0.0	24.8	99.4
=	0.0	0.0	25.2	99.5
=	0.0	0.0	25.8	99.6
=	0.0	0.0	26.2	99.7
=	0.0	0.0	26.7	99.8
=	0.0	0.0	27.1	99.8
=	0.0	0.0	27.5	99.9
=	0.0	0.0	28.0	100.0
=	0.0	0.0	28.6	100.0
=	0.0	0.0	29.0	100.0
=	0.0	0.0	29.4	100.0
=	0.0	0.0	29.9	100.0
=	0.0	0.0	30.3	100.0
=	0.0	0.0	30.7	100.0
=	0.0	0.0	31.0	100.0
=	0.0	0.0	31.4	99.9
=	0.0	0.0	31.9	99.8
=	0.0	0.0	32.3	99.8
=	0.0	0.0	32.9	99.7
=	0.0	0.0	33.3	99.7
=	0.0	0.0	33.7	99.6
=	0.0	0.0	34.1	99.6
=	0.0	0.0	34.6	99.5
=	0.0	0.0	35.1	99.4
=	0.0	0.0	35.7	99.4
=	0.0	0.0	36.1	99.3
=	0.0	0.0	36.6	99.2
=	0.0	0.0	37.0	99.1
=	0.0	0.0	37.5	99.0
=	0.0	0.0	37.9	98.9
=	0.0	0.0	38.4	98.7
=	0.0	0.0	38.8	98.6
=	0.0	0.0	39.2	98.5
=	0.0	0.0	39.7	98.3
=	0.0	0.0	40.2	98.2
=	0.0	0.0	40.8	98.0
=	0.0	0.0	41.2	97.9
=	0.0	0.0	41.7	97.9
=	0.0	0.0	42.2	97.8
=	0.0	0.0	42.7	97.6
=	0.0	0.0	43.3	97.3
=	0.0	0.0	43.6	97.1
=	0.0	0.0	44.0	97.0
=	0.0	0.0	44.3	97.0
=	0.0	0.0	44.7	96.9
=	0.0	0.0	45.1	96.7
=	0.0	0.0	45.6	96.6
=	0.0	0.0	46.0	96.5
=	0.0	0.0	46.5	96.4
=	0.0	0.0	46.9	96.2
=	0.0	0.0	47.5	96.0
=	0.0	0.0	48.0	95.7
=	0.0	0.0	48.6	95.5
=	0.0	0.0	49.2	95.4
=	0.0	0.0	49.6	95.2
=	0.0	0.0	50.2	95.0
=	0.0	0.0	50.8	94.7
=	0.0	0.0	51.2	94.6
=	0.0	0.0	51.6	94.4
=	0.0	0.0	52.0	94.3
=	0.0	0.0	52.4	94.1
=	0.0	0.0	52.9	94.0
=	0.0	0.0	53.3	93.8
=	0.0	0.0	53.7	93.7
=	0.0	0.0	54.1	93.6
=	0.0	0.0	54.6	93.3
=	0.0	0.0	55.2	93.1
=	0.0	0.0	55.8	92.9
=	0.0	0.0	56.4	92.7
=	0.0	0.0	56.9	92.6
=	0.0	0.0	57.3	92.4
=	0.0	0.0	57.7	92.2
=	0.0	0.0	58.1	92.0
=	0.0	0.0	58.7	91.9
=	0.0	0.0	59.2	91.8
=	0.0	0.0	59.6	91.6
=	0.0	0.0	60.0	91.5
=	0.0	0.0	60.5	91.3
=	0.0	0.0	61.0	91.0
=	0.0	0.0	61.6	90.7
=	0.0	0.0	62.1	90.5
=	0.0	0.0	62.5	90.4
=	0.0	0.0	63.0	90.2
=	0.0	0.0	63.4	90.0
=	0.0	0.0	63.9	89.8
=	0.0	0.0	64.3	89.7
=	0.0	0.0	64.7	89.6
=	0.0	0.0	65.1	89.5
=	0.0	0.0	65.6	89.3
=	0.0	0.0	66.0	89.2
=	0.0	0.0	66.5	89.0
=	0.0	0.0	66.9	88.9
=	0.0	0.0	67.4	88.7
=	0.0	0.0	68.0	88.6
=	0.0	0.0	68.4	88.5
=	0.0	0.0	68.8	88.3
=	0.0	0.0	69.2	88.2
=	0.0	0.0	69.5	88.0
=	0.0	0.0	69.9	87.9
=	0.0	0.0	70.5	87.7
=	0.0	0.0	70.9	87.6
=	0.0	0.0	71.4	87.4
=	0.0	0.0	71.8	87.2
=	0.0	0.0	72.2	87.2
=	0.0	0.0	72.7	87.0
=	0.0	0.0	73.1	86.9
=	0.0	0.0	73.6	86.7
=	0.0	0.0	74.0	86.5
=	0.0	0.0	74.3	86.4
=	0.0	0.0	74.8	86.2
=	0.0	0.0	75.3	86.0
=	0.0	0.0	75.8	85.9
=	0.0	0.0	76.1	85.7
=	0.0	0.0	76.6	85.5
=	0.0	0.0	77.3	85.4
=	0.0	0.0	77.9	85.2
=	0.0	0.0	78.5	84.9
=	0.0	0.0	78.9	84.8
=	0.0	0.0	79.4	84.6
=	0.0	0.0	79.9	84.5
=	0.0	0.0	80.3	84.3
=	0.0	0.0	80.7	84.1
=	0.0	0.0	81.2	83.9
=	0.0	0.0	81.7	83.8
=	0.0	0.0	82.1	83.6
=	0.0	0.0	82.6	83.5
=	0.0	0.0	83.0	83.3
=	0.0	0.0	83.6	83.1
=	0.0	0.0	83.9	83.0
=	0.0	0.0	84.3	82.9
=	0.0	0.0	84.8	82.7
=	0.0	0.0	85.3	82.6
=	0.0	0.0	85.8	82.4
=	0.0	0.0	86.4	82.1
=	0.0	0.0	86.7	81.9
=	0.0	0.0	87.1	81.8
=	0.0	0.0	87.7	81.6
=	0.0	0.0	88.2	81.5
=	0.0	0.0	88.6	81.4
=	0.0	0.0	89.0	81.2
=	0.0	0.0	89.4	81.1
=	0.0	0.0	89.8	81.0
=	0.0	0.0	90.3	80.8
=	0.0	0.0	90.6	80.7
=	0.0	0.0	90.9	80.6
=	0.0	0.0	91.4	80.4
=	0.0	0.0	92.0	80.3
=	0.0	0.0	92.4	80.1
=	0.0	0.0	93.0	80.0
=	0.0	0.0	93.5	79.8
=	0.0	0.0	93.9	79.6
=	0.0	0.0	94.3	79.4
=	0.0	0.0	94.8	79.3
=	0.0	0.0	95.3	79.2
=	0.0	0.0	95.7	79.0
=	0.0	0.0	96.3	78.8
=	0.0	0.0	96.9	78.5
=	0.0	0.0	97.3	78.4
=	0.0	0.0	97.7	78.3
=	0.0	0.0	98.3	78.2
=	0.0	0.0	98.7	78.1
=	0.0	0.0	99.2	78.0
=	0.0	0.0	99.7	77.8
=	0.0	0.0	100.2	77.6
=	0.0	0.0	100.8	77.5
=	0.0	0.0	101.3	77.2
=	0.0	0.0	101.7	77.1
=	0.0	0.0	102.2	76.9
=	0.0	0.0	102.8	76.7
=	0.0	0.0	103.3	76.6
=	0.0	0.0	103.6	76.4
=	0.0	0.0	104.0	76.3
=	0.0	0.0	104.4	76.2
=	0.0	0.0	104.8	76.1
=	0.0	0.0	105.2	75.9
=	0.0	0.0	105.6	75.9
=	0.0	0.0	106.1	75.7
=	0.0	0.0	106.7	75.5
=	0.0	0.0	107.2	75.3
=	0.0	0.0	107.6	75.2
=	0.0	0.0	108.1	75.1
=	0.0	0.0	108.6	74.9
=	0.0	0.0	109.0	74.7
=	0.0	0.0	109.6	74.6
=	0.0	0.0	110.0	74.5
=	0.0	0.0	110.4	74.4
=	0.0	0.0	110.9	74.2
=	0.0	0.0	111.3	74.1
=	0.0	0.0	111.7	73.9
=	0.0	0.0	112.0	73.8
=	0.0	0.0	112.5	73.7
=	0.0	0.0	113.1	73.4
=	0.0	0.0	113.5	73.3
=	0.0	0.0	114.1	73.2
=	0.0	0.0	114.6	73.0
=	0.0	0.0	115.1	72.8
=	0.0	0.0	115.6	72.7
=	0.0	0.0	116.0	72.6
=	0.0	0.0	116.5	72.4
=	0.0	0.0	117.0	72.3
=	0.0	0.0	117.4	72.1
=	0.0	0.0	117.8	71.9
=	0.0	0.0	118.4	71.7
=	0.0	0.0	118.9	71.6
=	0.0	0.0	119.4	71.5
=	0.0	0.0	119.8	71.4
=	0.0	0.0	120.4	71.2
=	0.0	0.0	121.0	71.0
=	0.0	0.0	121.5	70.9
=	0.0	0.0	122.0	70.8
=	0.0	0.0	122.5	70.6
=	0.0	0.0	122.9	70.4
=	0.0	0.0	123.3	70.3
=	0.0	0.0	123.9	70.1
=	0.0	0.0	124.4	69.9
=	0.0	0.0	124.9	69.8
=	0.0	0.0	125.6	69.6
=	0.0	0.0	126.1	69.5
=	0.0	0.0	126.6	69.3
=	0.0	0.0	127.1	69.2
=	0.0	0.0	127.6	69.1
=	0.0	0.0	128.1	68.9
=	0.0	0.0	128.5	68.8
=	0.0	0.0	129.0	68.6
=	0.0	0.0	129.6	68.4
=	0.0	0.0	130.2	68.2
=	0.0	0.0	130.8	68.0
=	0.0	0.0	131.2	67.9
=	0.0	0.0	131.6	67.8
=	0.0	0.0	132.0	67.7
=	0.0	0.0	132.3	67.7
=	0.0	0.0	132.8	67.6
=	0.0	0.0	133.4	67.4
=	0.0	0.0	134.0	67.2
=	0.0	0.0	134.6	67.1
=	0.0	0.0	135.0	66.9
=	0.0	0.0	135.5	66.8
=	0.0	0.0	135.9	66.7
=	0.0	0.0	136.3	66.6
=	0.0	0.0	136.8	66.4
=	0.0	0.0	137.3	66.2
=	0.0	0.0	137.7	66.1
=	0.0	0.0	138.1	66.0
=	0.0	0.0	138.6	65.9
=	0.0	0.0	139.1	65.8
=	0.0	0.0	139.4	65.7
=	0.0	0.0	139.9	65.6
=	0.0	0.0	140.3	65.4
=	0.0	0.0	141.0	65.1
=	0.0	0.0	141.5	65.0
=	0.0	0.0	142.0	64.9
=	0.0	0.0	142.6	64.8
=	0.0	0.0	143.1	64.7
=	0.0	0.0	143.6	64.5
=	0.0	0.0	144.0	64.4
=	0.0	0.0	144.4	64.4
=	0.0	0.0	144.8	64.2
=	0.0	0.0	145.3	64.1
=	0.0	0.0	145.8	63.9
=	0.0	0.0	146.2	63.8
=	0.0	0.0	146.7	63.7
=	0.0	0.0	147.1	63.6
=	0.0	0.0	147.6	63.4
=	0.0	0.0	148.2	63.3
=	0.0	0.0	148.7	63.1
=	0.0	0.0	149.1	63.0
=	0.0	0.0	149.5	62.9
=	0.0	0.0	150.0	62.7
=	0.0	0.0	150.5	62.6
=	0.0	0.0	150.8	62.5
=	0.0	0.0	151.3	62.3
=	0.0	0.0	151.7	62.2
=	0.0	0.0	152.1	62.1
=	0.0	0.0	152.6	62.0
=	0.0	0.0	153.0	61.9
=	0.0	0.0	153.6	61.8
=	0.0	0.0	154.1	61.7
=	0.0	0.0	154.5	61.6
=	0.0	0.0	155.0	61.4
=	0.0	0.0	155.5	61.2
=	0.0	0.0	156.0	61.1
=	0.0	0.0	156.5	61.0
=	0.0	0.0	156.9	60.9
=	0.0	0.0	157.2	60.9
=	0.0	0.0	157.7	60.8
=	0.0	0.0	158.2	60.7
=	0.0	0.0	158.7	60.5
=	0.0	0.0	159.1	60.3
=	0.0	0.0	159.5	60.3
=	0.0	0.0	159.9	60.2
=	0.0	0.0	160.4	60.0
=	0.0	0.0	161.0	59.9
=	0.0	0.0	161.4	59.8
=	0.0	0.0	161.7	59.7
=	0.0	0.0	162.2	59.6
=	0.0	0.0	162.8	59.5
=	0.0	0.0	163.4	59.3
=	0.0	0.0	164.0	59.3
=	0.0	0.0	164.5	59.1
=	0.0	0.0	165.0	59.0
=	0.0	0.0	165.5	58.9
=	0.0	0.0	166.0	58.8
=	0.0	0.0	166.4	58.6
=	0.0	0.0	166.9	58.5
=	0.0	0.0	167.3	58.4
=	0.0	0.0	167.7	58.3
=	0.0	0.0	168.2	58.1
=	0.0	0.0	168.6	58.0
=	0.0	0.0	169.0	57.9
=	0.0	0.0	169.5	57.8
=	0.0	0.0	169.9	57.8
=	0.0	0.0	170.4	57.6
=	0.0	0.0	171.0	57.4
=	0.0	0.0	171.5	57.2
=	0.0	0.0	172.1	57.1
=	0.0	0.0	172.5	57.0
=	0.0	0.0	173.1	56.9
=	0.0	0.0	173.6	56.7
=	0.0	0.0	174.2	56.6
=	0.0	0.0	174.7	56.5
=	0.0	0.0	175.1	56.4
=	0.0	0.0	175.6	56.3
=	0.0	0.0	176.1	56.2
=	0.0	0.0	176.6	56.1
=	0.0	0.0	177.1	56.0
=	0.0	0.0	177.6	55.9
=	0.0	0.0	178.1	55.7
=	0.0	0.0	178.5	55.6
=	0.0	0.0	179.1	55.4
=	0.0	0.0	179.7	55.3
=	0.0	0.0	180.1	55.2
=	0.0	0.0	180.5	55.1
=	0.0	0.0	180.9	55.0
=	0.0	0.0	181.4	54.9
=	0.0	0.0	181.8	54.8
=	0.0	0.0	182.4	54.7
=	0.0	0.0	182.9	54.6
=	0.0	0.0	183.4	54.4
=	0.0	0.0	183.8	54.3
=	0.0	0.0	184.2	54.2
=	0.0	0.0	184.6	54.2
=	0.0	0.0	185.1	54.0
=	0.0	0.0	185.7	53.9
=	0.0	0.0	186.3	53.8
=	0.0	0.0	186.9	53.6
=	0.0	0.0	187.3	53.5
=	0.0	0.0	187.8	53.4
=	0.0	0.0	188.4	53.4
=	0.0	0.0	188.8	53.3
=	0.0	0.0	189.1	53.2
=	0.0	0.0	189.5	53.1
=	0.0	0.0	189.9	53.0
=	0.0	0.0	190.5	52.9
=	0.0	0.0	191.1	52.7
=	0.0	0.0	191.5	52.6
=	0.0	0.0	191.9	52.5
=	0.0	0.0	192.6	52.4
=	0.0	0.0	193.1	52.2
=	0.0	0.0	193.5	52.2
=	0.0	0.0	193.9	52.1
=	0.0	0.0	194.3	52.0
=	0.0	0.0	194.7	51.9
=	0.0	0.0	195.1	51.8
=	0.0	0.0	195.5	51.7
=	0.0	0.0	195.9	51.5
=	0.0	0.0	196.4	51.5
=	0.0	0.0	196.9	51.4
=	0.0	0.0	197.3	51.3
=	0.0	0.0	197.7	51.2
=	0.0	0.0	198.2	51.1
=	0.0	0.0	198.6	51.0
=	0.0	0.0	199.1	50.9
=	0.0	0.0	199.6	50.8
=	0.0	0.0	200.2	50.6
=	0.0	0.0	200.6	50.6
=	0.0	0.0	201.1	50.5
=	0.0	0.0	201.7	50.4
=	0.0	0.0	202.1	50.3
=	0.0	0.0	202.6	50.1
=	0.0	0.0	203.1	50.1
=	0.0	0.0	203.5	50.0
=	0.0	0.0	203.9	49.9
=	0.0	0.0	204.3	49.8
=	0.0	0.0	204.7	49.7
=	0.0	0.0	205.1	49.6
=	0.0	0.0	205.7	49.5
=	0.0	0.0	206.3	49.3
=	0.0	0.0	206.9	49.2
=	0.0	0.0	207.4	49.1
=	0.0	0.0	207.8	49.0
=	0.0	0.0	208.3	48.9
=	0.0	0.0	208.6	48.9
=	0.0	0.0	209.1	48.8
=	0.0	0.0	209.5	48.7
=	0.0	0.0	210.0	48.6
=	0.0	0.0	210.6	48.5
=	0.0	0.0	211.0	48.4
=	0.0	0.0	211.5	48.3
=	0.0	0.0	212.0	48.2
=	0.0	0.0	212.6	48.0
=	0.0	0.0	213.3	47.9
=	0.0	0.0	213.8	47.8
=	0.0	0.0	214.1	47.8
=	0.0	0.0	214.6	47.7
=	0.0	0.0	215.0	47.6
=	0.0	0.0	215.5	47.5
=	0.0	0.0	216.0	47.4
=	0.0	0.0	216.4	47.3
=	0.0	0.0	216.9	47.2
=	0.0	0.0	217.3	47.1
=	0.0	0.0	217.7	47.0
=	0.0	0.0	218.3	46.9
=	0.0	0.0	218.9	46.8
=	0.0	0.0	219.4	46.7
=	0.0	0.0	220.0	46.6
=	0.0	0.0	220.5	46.5
=	0.0	0.0	220.9	46.4
=	0.0	0.0	221.3	46.4
=	0.0	0.0	221.6	46.3
=	0.0	0.0	222.0	46.2
=	0.0	0.0	222.4	46.1
=	0.0	0.0	223.0	46.0
=	0.0	0.0	223.5	45.9
=	0.0	0.0	224.1	45.8
=	0.0	0.0	224.6	45.7
=	0.0	0.0	225.0	45.6
=	0.0	0.0	225.4	45.5
=	0.0	0.0	225.7	45.5
=	0.0	0.0	226.0	45.4
=	0.0	0.0	226.4	45.3
=	0.0	0.0	227.0	45.2
=	0.0	0.0	227.4	45.1
=	0.0	0.0	227.8	45.0
=	0.0	0.0	228.2	45.0
=	0.0	0.0	228.6	44.9
=	0.0	0.0	229.1	44.8
=	0.0	0.0	229.7	44.7
=	0.0	0.0	230.1	44.6
=	0.0	0.0	230.6	44.5
=	0.0	0.0	231.2	44.4
=	0.0	0.0	231.7	44.3
=	0.0	0.0	232.2	44.2
=	0.0	0.0	232.7	44.1
=	0.0	0.0	233.2	44.0
=	0.0	0.0	233.7	44.0
=	0.0	0.0	234.3	43.8
=	0.0	0.0	234.8	43.8
=	0.0	0.0	235.2	43.7
=	0.0	0.0	235.7	43.6
=	0.0	0.0	236.1	43.5
=	0.0	0.0	236.7	43.4
=	0.0	0.0	237.3	43.3
=	0.0	0.0	237.8	43.2
=	0.0	0.0	238.2	43.1
=	0.0	0.0	238.8	43.1
=	0.0	0.0	239.2	43.0
=	0.0	0.0	239.5	42.9
=	0.0	0.0	240.0	42.8
=	0.0	0.0	240.5	42.7
=	0.0	0.0	240.9	42.7
=	0.0	0.0	241.3	42.6
=	0.0	0.0	241.7	42.5
=	0.0	0.0	242.2	42.4
=	0.0	0.0	242.7	42.3
=	0.0	0.0	243.1	42.2
=	0.0	0.0	243.7	42.1
=	0.0	0.0	244.3	42.0
=	0.0	0.0	244.8	41.9
=	0.0	0.0	245.2	41.9
=	0.0	0.0	245.7	41.8
=	0.0	0.0	246.0	41.7
=	0.0	0.0	246.5	41.7
=	0.0	0.0	246.8	41.6
=	0.0	0.0	247.2	41.5
=	0.0	0.0	247.8	41.4
=	0.0	0.0	248.2	41.3
=	0.0	0.0	248.6	41.2
=	0.0	0.0	249.2	41.1
=	0.0	0.0	249.7	41.1
=	0.0	0.0	250.1	41.0
=	0.0	0.0	250.7	40.9
=	0.0	0.0	251.3	40.8
=	0.0	0.0	251.7	40.7
=	0.0	0.0	252.1	40.6
=	0.0	0.0	252.5	40.5
=	0.0	0.0	252.9	40.5
=	0.0	0.0	253.3	40.4
=	0.0	0.0	253.9	40.3
=	0.0	0.0	254.5	40.2
=	0.0	0.0	254.9	40.1
=	0.0	0.0	255.3	40.1
=	0.0	0.0	255.8	40.0
=	0.0	0.0	256.2	39.9
=	0.0	0.0	256.6	39.9
=	0.0	0.0	257.1	39.8
=	0.0	0.0	257.5	39.7
=	0.0	0.0	258.0	39.6
=	0.0	0.0	258.5	39.5
=	0.0	0.0	258.9	39.5
=	0.0	0.0	259.2	39.5
=	0.0	0.0	259.7	39.4
=	0.0	0.0	260.1	39.3
=	0.0	0.0	260.7	39.2
=	0.0	0.0	261.3	39.1
=	0.0	0.0	261.9	39.0
=	0.0	0.0	262.3	38.9
=	0.0	0.0	262.7	38.9
=	0.0	0.0	263.3	38.8
=	0.0	0.0	263.6	38.7
=	0.0	0.0	264.0	38.6
=	0.0	0.0	264.4	38.6
=	0.0	0.0	264.8	38.5
=	0.0	0.0	265.3	38.4
=	0.0	0.0	265.8	38.3
=	0.0	0.0	266.3	38.3
=	0.0	0.0	266.8	38.2
=	0.0	0.0	267.3	38.1
=	0.0	0.0	267.7	38.1
=	0.0	0.0	268.1	38.0
=	0.0	0.0	268.5	37.9
=	0.0	0.0	268.8	37.9
=	0.0	0.0	269.3	37.8
=	0.0	0.0	269.7	37.8
=	0.0	0.0	270.2	37.7
=	0.0	0.0	270.8	37.6
=	0.0	0.0	271.3	37.5
=	0.0	0.0	271.8	37.4
=	0.0	0.0	272.3	37.3
=	0.0	0.0	272.8	37.2
=	0.0	0.0	273.2	37.2
=	0.0	0.0	273.6	37.1
=	0.0	0.0	274.0	37.1
=	0.0	0.0	274.5	37.0
=	0.0	0.0	275.1	37.0
=	0.0	0.0	275.6	36.9
=	0.0	0.0	276.1	36.8
=	0.0	0.0	276.6	36.7
=	0.0	0.0	277.1	36.6
=	0.0	0.0	277.5	36.5
=	0.0	0.0	277.9	36.4
=	0.0	0.0	278.4	36.3
=	0.0	0.0	278.8	36.3
=	0.0	0.0	279.2	36.3
=	0.0	0.0	279.7	36.2
=	0.0	0.0	280.3	36.1
=	0.0	0.0	280.8	36.0
=	0.0	0.0	281.4	35.9
=	0.0	0.0	282.0	35.9
=	0.0	0.0	282.4	35.8
=	0.0	0.0	282.8	35.7
=	0.0	0.0	283.4	35.6
=	0.0	0.0	283.9	35.5
=	0.0	0.0	284.2	35.5
=	0.0	0.0	284.6	35.5
=	0.0	0.0	285.2	35.4
=	0.0	0.0	285.6	35.3
=	0.0	0.0	286.1	35.3
=	0.0	0.0	286.6	35.2
=	0.0	0.0	287.2	35.1
=	0.0	0.0	287.6	35.0
=	0.0	0.0	288.2	35.0
=	0.0	0.0	288.6	34.9
=	0.0	0.0	289.2	34.8
=	0.0	0.0	289.8	34.7
=	0.0	0.0	290.4	34.6
=	0.0	0.0	290.8	34.6
=	0.0	0.0	291.3	34.5
=	0.0	0.0	291.9	34.4
=	0.0	0.0	292.5	34.3
=	0.0	0.0	292.9	34.2
=	0.0	0.0	293.2	34.2
=	0.0	0.0	293.6	34.1
=	0.0	0.0	294.0	34.1
=	0.0	0.0	294.6	34.0
=	0.0	0.0	295.1	34.0
=	0.0	0.0	295.5	33.9
=	0.0	0.0	296.0	33.8
=	0.0	0.0	296.5	33.7
=	0.0	0.0	297.0	33.6
=	0.0	0.0	297.5	33.6
=	0.0	0.0	297.9	33.5
=	0.0	0.0	298.4	33.4
=	0.0	0.0	298.9	33.4
=	0.0	0.0	299.3	33.3
=	0.0	0.0	299.7	33.3
=	0.0	0.0	300.2	33.2
=	0.0	0.0	300.6	33.1
=	0.0	0.0	301.0	33.1
=	0.0	0.0	301.4	33.0
=	0.0	0.0	301.9	32.9
=	0.0	0.0	302.4	32.9
=	0.0	0.0	303.0	32.8
=	0.0	0.0	303.6	32.7
=	0.0	0.0	304.2	32.6
=	0.0	0.0	304.7	32.6
=	0.0	0.0	305.2	32.5
=	0.0	0.0	305.7	32.4
=	0.0	0.0	306.1	32.4
=	0.0	0.0	306.6	32.3
=	0.0	0.0	307.1	32.3
=	0.0	0.0	307.6	32.2
=	0.0	0.0	308.1	32.1
=	0.0	0.0	308.4	32.1
=	0.0	0.0	309.0	32.0
=	0.0	0.0	309.4	31.9
=	0.0	0.0	309.8	31.9
=	0.0	0.0	310.2	31.8
=	0.0	0.0	310.6	31.8
=	0.0	0.0	311.0	31.7
=	0.0	0.0	311.6	31.7
=	0.0	0.0	312.2	31.6
=	0.0	0.0	312.6	31.5
=	0.0	0.0	313.2	31.5
=	0.0	0.0	313.6	31.4
=	0.0	0.0	314.0	31.3
=	0.0	0.0	314.6	31.3
=	0.0	0.0	315.1	31.2
=	0.0	0.0	315.7	31.1
=	0.0	0.0	316.1	31.1
=	0.0	0.0	316.5	31.0
=	0.0	0.0	317.0	30.9
=	0.0	0.0	317.6	30.8
