:MSR 	5	 # No. of measurement in file
:SYS BDS 0   # Beam Data Scanner System
#
# RFA300 ASCII Measurement Dump ( BDS format )
#
# Measurement number 	1
#
%VNR 1.0
%MOD 	RAT
%TYP 	SCN
%SCN 	PRO
%FLD 	ION
%DAT 	10-14-2011
%TIM 	12:00:00
%FSZ 	400	300
%BMT 	PHO	   15.0
%SSD 	1000
%BUP 	0
%BRD 	1000
%FSH 	1
%ASC 	0
%WEG 	15
%GPO 	0
%CPO 	0
%MEA 	6
%PRD 	30,0
%PTS 	906
%STS 	    0.0	  -277.8	   30.0 # Start Scan values in mm ( X , Y , Z )
%EDS 	    0.0	   277.2	   30.0 # End Scan values in mm ( X , Y , Z )
#
#	  X      Y      Z     Dose
#
=	0.0	-277.8	30.0	6.3
=	0.0	-277.0	30.0	6.3
=	0.0	-276.4	30.0	6.4
=	0.0	-275.8	30.0	6.4
=	0.0	-275.1	30.0	6.4
=	0.0	-274.4	30.0	6.5
=	0.0	-273.7	30.0	6.5
=	0.0	-273.1	30.0	6.6
=	0.0	-272.5	30.0	6.6
=	0.0	-272.0	30.0	6.6
=	0.0	-271.4	30.0	6.6
=	0.0	-270.6	30.0	6.7
=	0.0	-270.0	30.0	6.7
=	0.0	-269.4	30.0	6.8
=	0.0	-268.8	30.0	6.8
=	0.0	-268.1	30.0	6.8
=	0.0	-267.5	30.0	6.9
=	0.0	-266.9	30.0	6.9
=	0.0	-266.4	30.0	6.9
=	0.0	-265.8	30.0	7.0
=	0.0	-265.2	30.0	7.0
=	0.0	-264.5	30.0	7.1
=	0.0	-264.0	30.0	7.1
=	0.0	-263.4	30.0	7.2
=	0.0	-262.7	30.0	7.2
=	0.0	-261.9	30.0	7.3
=	0.0	-261.1	30.0	7.3
=	0.0	-260.4	30.0	7.4
=	0.0	-259.8	30.0	7.4
=	0.0	-259.3	30.0	7.5
=	0.0	-258.7	30.0	7.5
=	0.0	-257.9	30.0	7.6
=	0.0	-257.4	30.0	7.6
=	0.0	-256.7	30.0	7.7
=	0.0	-256.2	30.0	7.7
=	0.0	-255.6	30.0	7.8
=	0.0	-255.0	30.0	7.8
=	0.0	-254.4	30.0	7.9
=	0.0	-253.8	30.0	7.9
=	0.0	-253.3	30.0	8.0
=	0.0	-252.6	30.0	8.0
=	0.0	-251.9	30.0	8.1
=	0.0	-251.3	30.0	8.2
=	0.0	-250.6	30.0	8.2
=	0.0	-250.0	30.0	8.3
=	0.0	-249.2	30.0	8.3
=	0.0	-248.5	30.0	8.4
=	0.0	-247.8	30.0	8.5
=	0.0	-247.2	30.0	8.5
=	0.0	-246.5	30.0	8.6
=	0.0	-245.8	30.0	8.7
=	0.0	-245.1	30.0	8.7
=	0.0	-244.5	30.0	8.8
=	0.0	-243.9	30.0	8.9
=	0.0	-243.3	30.0	8.9
=	0.0	-242.7	30.0	9.0
=	0.0	-242.2	30.0	9.1
=	0.0	-241.6	30.0	9.1
=	0.0	-241.1	30.0	9.2
=	0.0	-240.4	30.0	9.2
=	0.0	-239.7	30.0	9.3
=	0.0	-239.1	30.0	9.4
=	0.0	-238.6	30.0	9.4
=	0.0	-238.1	30.0	9.5
=	0.0	-237.5	30.0	9.6
=	0.0	-237.1	30.0	9.6
=	0.0	-236.5	30.0	9.7
=	0.0	-235.8	30.0	9.8
=	0.0	-235.0	30.0	9.9
=	0.0	-234.2	30.0	10.0
=	0.0	-233.6	30.0	10.1
=	0.0	-233.1	30.0	10.2
=	0.0	-232.5	30.0	10.2
=	0.0	-231.9	30.0	10.3
=	0.0	-231.3	30.0	10.4
=	0.0	-230.6	30.0	10.5
=	0.0	-230.1	30.0	10.6
=	0.0	-229.5	30.0	10.7
=	0.0	-228.8	30.0	10.8
=	0.0	-228.1	30.0	10.9
=	0.0	-227.5	30.0	11.1
=	0.0	-227.0	30.0	11.1
=	0.0	-226.3	30.0	11.2
=	0.0	-225.8	30.0	11.3
=	0.0	-225.3	30.0	11.4
=	0.0	-224.8	30.0	11.6
=	0.0	-224.2	30.0	11.6
=	0.0	-223.4	30.0	11.8
=	0.0	-222.7	30.0	12.0
=	0.0	-222.1	30.0	12.1
=	0.0	-221.6	30.0	12.3
=	0.0	-220.9	30.0	12.4
=	0.0	-220.3	30.0	12.6
=	0.0	-219.6	30.0	12.9
=	0.0	-219.0	30.0	13.1
=	0.0	-218.3	30.0	13.4
=	0.0	-217.7	30.0	13.7
=	0.0	-217.1	30.0	14.0
=	0.0	-216.5	30.0	14.4
=	0.0	-215.8	30.0	14.9
=	0.0	-215.2	30.0	15.5
=	0.0	-214.5	30.0	16.1
=	0.0	-214.0	30.0	16.7
=	0.0	-213.3	30.0	17.5
=	0.0	-212.8	30.0	18.3
=	0.0	-212.2	30.0	19.4
=	0.0	-211.7	30.0	20.4
=	0.0	-211.1	30.0	21.9
=	0.0	-210.5	30.0	23.6
=	0.0	-210.0	30.0	25.7
=	0.0	-209.2	30.0	29.2
=	0.0	-208.6	30.0	32.8
=	0.0	-208.0	30.0	37.0
=	0.0	-207.4	30.0	41.1
=	0.0	-206.8	30.0	46.1
=	0.0	-206.1	30.0	51.7
=	0.0	-205.5	30.0	57.0
=	0.0	-204.9	30.0	62.5
=	0.0	-204.2	30.0	68.4
=	0.0	-203.7	30.0	72.6
=	0.0	-203.1	30.0	77.0
=	0.0	-202.5	30.0	81.4
=	0.0	-201.8	30.0	84.8
=	0.0	-201.1	30.0	88.0
=	0.0	-200.4	30.0	90.0
=	0.0	-199.8	30.0	91.5
=	0.0	-199.1	30.0	92.8
=	0.0	-198.5	30.0	93.8
=	0.0	-197.9	30.0	94.6
=	0.0	-197.2	30.0	95.4
=	0.0	-196.5	30.0	96.0
=	0.0	-195.9	30.0	96.4
=	0.0	-195.2	30.0	96.9
=	0.0	-194.6	30.0	97.3
=	0.0	-194.0	30.0	97.6
=	0.0	-193.5	30.0	97.8
=	0.0	-192.9	30.0	98.0
=	0.0	-192.3	30.0	98.3
=	0.0	-191.8	30.0	98.5
=	0.0	-191.3	30.0	98.7
=	0.0	-190.7	30.0	98.8
=	0.0	-190.1	30.0	99.0
=	0.0	-189.5	30.0	99.1
=	0.0	-188.9	30.0	99.3
=	0.0	-188.3	30.0	99.4
=	0.0	-187.7	30.0	99.5
=	0.0	-187.0	30.0	99.6
=	0.0	-186.4	30.0	99.7
=	0.0	-185.8	30.0	99.8
=	0.0	-185.2	30.0	99.8
=	0.0	-184.4	30.0	99.9
=	0.0	-183.8	30.0	99.9
=	0.0	-183.2	30.0	99.9
=	0.0	-182.6	30.0	100.0
=	0.0	-181.8	30.0	100.0
=	0.0	-181.1	30.0	100.0
=	0.0	-180.4	30.0	100.0
=	0.0	-179.6	30.0	100.0
=	0.0	-179.2	30.0	100.0
=	0.0	-178.7	30.0	100.1
=	0.0	-178.0	30.0	100.1
=	0.0	-177.4	30.0	100.1
=	0.0	-176.8	30.0	100.2
=	0.0	-176.3	30.0	100.2
=	0.0	-175.7	30.0	100.2
=	0.0	-175.0	30.0	100.2
=	0.0	-174.3	30.0	100.3
=	0.0	-173.6	30.0	100.3
=	0.0	-173.0	30.0	100.4
=	0.0	-172.3	30.0	100.4
=	0.0	-171.8	30.0	100.5
=	0.0	-171.1	30.0	100.5
=	0.0	-170.6	30.0	100.6
=	0.0	-169.8	30.0	100.6
=	0.0	-169.2	30.0	100.7
=	0.0	-168.6	30.0	100.7
=	0.0	-167.8	30.0	100.8
=	0.0	-167.2	30.0	100.9
=	0.0	-166.6	30.0	100.9
=	0.0	-166.0	30.0	101.0
=	0.0	-165.4	30.0	101.0
=	0.0	-164.7	30.0	101.0
=	0.0	-164.2	30.0	101.1
=	0.0	-163.6	30.0	101.2
=	0.0	-162.9	30.0	101.2
=	0.0	-162.3	30.0	101.3
=	0.0	-161.7	30.0	101.3
=	0.0	-161.1	30.0	101.4
=	0.0	-160.6	30.0	101.4
=	0.0	-160.0	30.0	101.4
=	0.0	-159.4	30.0	101.5
=	0.0	-158.8	30.0	101.5
=	0.0	-158.2	30.0	101.6
=	0.0	-157.7	30.0	101.6
=	0.0	-157.2	30.0	101.7
=	0.0	-156.5	30.0	101.7
=	0.0	-155.9	30.0	101.8
=	0.0	-155.1	30.0	101.8
=	0.0	-154.5	30.0	101.8
=	0.0	-153.8	30.0	101.8
=	0.0	-153.0	30.0	101.8
=	0.0	-152.2	30.0	101.9
=	0.0	-151.6	30.0	101.9
=	0.0	-151.0	30.0	101.9
=	0.0	-150.4	30.0	101.9
=	0.0	-149.8	30.0	101.9
=	0.0	-149.3	30.0	101.9
=	0.0	-148.7	30.0	101.9
=	0.0	-147.9	30.0	102.0
=	0.0	-147.2	30.0	102.0
=	0.0	-146.4	30.0	102.0
=	0.0	-145.8	30.0	102.0
=	0.0	-145.3	30.0	102.0
=	0.0	-144.6	30.0	102.0
=	0.0	-144.1	30.0	102.0
=	0.0	-143.4	30.0	102.0
=	0.0	-142.9	30.0	102.0
=	0.0	-142.0	30.0	102.0
=	0.0	-141.2	30.0	102.0
=	0.0	-140.6	30.0	102.1
=	0.0	-139.9	30.0	102.1
=	0.0	-139.2	30.0	102.1
=	0.0	-138.6	30.0	102.1
=	0.0	-138.0	30.0	102.1
=	0.0	-137.2	30.0	102.2
=	0.0	-136.5	30.0	102.2
=	0.0	-136.0	30.0	102.2
=	0.0	-135.4	30.0	102.3
=	0.0	-134.9	30.0	102.3
=	0.0	-134.3	30.0	102.3
=	0.0	-133.7	30.0	102.4
=	0.0	-133.0	30.0	102.4
=	0.0	-132.5	30.0	102.4
=	0.0	-131.9	30.0	102.4
=	0.0	-131.2	30.0	102.5
=	0.0	-130.7	30.0	102.5
=	0.0	-130.1	30.0	102.5
=	0.0	-129.3	30.0	102.6
=	0.0	-128.6	30.0	102.6
=	0.0	-127.9	30.0	102.6
=	0.0	-127.2	30.0	102.7
=	0.0	-126.6	30.0	102.7
=	0.0	-126.0	30.0	102.7
=	0.0	-125.5	30.0	102.7
=	0.0	-124.9	30.0	102.8
=	0.0	-124.4	30.0	102.8
=	0.0	-123.9	30.0	102.8
=	0.0	-123.4	30.0	102.8
=	0.0	-122.7	30.0	102.8
=	0.0	-122.0	30.0	102.8
=	0.0	-121.3	30.0	102.8
=	0.0	-120.7	30.0	102.8
=	0.0	-120.1	30.0	102.8
=	0.0	-119.4	30.0	102.8
=	0.0	-118.7	30.0	102.9
=	0.0	-118.0	30.0	102.9
=	0.0	-117.3	30.0	102.9
=	0.0	-116.8	30.0	102.9
=	0.0	-116.1	30.0	102.9
=	0.0	-115.4	30.0	102.9
=	0.0	-114.9	30.0	103.0
=	0.0	-114.3	30.0	103.0
=	0.0	-113.7	30.0	103.0
=	0.0	-113.1	30.0	103.0
=	0.0	-112.5	30.0	103.1
=	0.0	-111.9	30.0	103.1
=	0.0	-111.1	30.0	103.1
=	0.0	-110.6	30.0	103.1
=	0.0	-110.0	30.0	103.1
=	0.0	-109.5	30.0	103.0
=	0.0	-108.8	30.0	103.0
=	0.0	-108.0	30.0	103.0
=	0.0	-107.2	30.0	103.0
=	0.0	-106.7	30.0	103.0
=	0.0	-106.1	30.0	103.0
=	0.0	-105.5	30.0	102.9
=	0.0	-104.8	30.0	102.9
=	0.0	-104.2	30.0	102.9
=	0.0	-103.7	30.0	102.8
=	0.0	-103.2	30.0	102.8
=	0.0	-102.6	30.0	102.8
=	0.0	-102.0	30.0	102.8
=	0.0	-101.3	30.0	102.7
=	0.0	-100.7	30.0	102.7
=	0.0	-100.1	30.0	102.7
=	0.0	-99.2	30.0	102.7
=	0.0	-98.5	30.0	102.7
=	0.0	-97.9	30.0	102.7
=	0.0	-97.4	30.0	102.7
=	0.0	-96.8	30.0	102.7
=	0.0	-96.1	30.0	102.8
=	0.0	-95.7	30.0	102.8
=	0.0	-95.1	30.0	102.8
=	0.0	-94.5	30.0	102.8
=	0.0	-94.0	30.0	102.9
=	0.0	-93.4	30.0	102.9
=	0.0	-92.9	30.0	102.9
=	0.0	-92.2	30.0	102.9
=	0.0	-91.6	30.0	102.9
=	0.0	-90.9	30.0	103.0
=	0.0	-90.2	30.0	103.0
=	0.0	-89.7	30.0	103.0
=	0.0	-89.1	30.0	103.0
=	0.0	-88.3	30.0	103.1
=	0.0	-87.7	30.0	103.1
=	0.0	-87.0	30.0	103.1
=	0.0	-86.5	30.0	103.1
=	0.0	-85.9	30.0	103.1
=	0.0	-85.2	30.0	103.1
=	0.0	-84.7	30.0	103.1
=	0.0	-84.0	30.0	103.1
=	0.0	-83.4	30.0	103.1
=	0.0	-82.9	30.0	103.1
=	0.0	-82.3	30.0	103.2
=	0.0	-81.8	30.0	103.2
=	0.0	-81.2	30.0	103.2
=	0.0	-80.7	30.0	103.2
=	0.0	-80.2	30.0	103.2
=	0.0	-79.7	30.0	103.2
=	0.0	-79.1	30.0	103.2
=	0.0	-78.6	30.0	103.2
=	0.0	-77.8	30.0	103.2
=	0.0	-77.3	30.0	103.2
=	0.0	-76.8	30.0	103.2
=	0.0	-76.3	30.0	103.2
=	0.0	-75.6	30.0	103.2
=	0.0	-75.0	30.0	103.2
=	0.0	-74.4	30.0	103.2
=	0.0	-73.8	30.0	103.2
=	0.0	-73.1	30.0	103.3
=	0.0	-72.3	30.0	103.3
=	0.0	-71.8	30.0	103.3
=	0.0	-71.3	30.0	103.3
=	0.0	-70.8	30.0	103.3
=	0.0	-70.2	30.0	103.3
=	0.0	-69.5	30.0	103.3
=	0.0	-69.0	30.0	103.3
=	0.0	-68.4	30.0	103.3
=	0.0	-67.9	30.0	103.3
=	0.0	-67.2	30.0	103.3
=	0.0	-66.4	30.0	103.3
=	0.0	-65.6	30.0	103.3
=	0.0	-64.8	30.0	103.3
=	0.0	-64.2	30.0	103.3
=	0.0	-63.6	30.0	103.3
=	0.0	-63.1	30.0	103.3
=	0.0	-62.5	30.0	103.3
=	0.0	-62.0	30.0	103.3
=	0.0	-61.5	30.0	103.3
=	0.0	-61.0	30.0	103.3
=	0.0	-60.5	30.0	103.3
=	0.0	-59.9	30.0	103.3
=	0.0	-59.2	30.0	103.3
=	0.0	-58.6	30.0	103.3
=	0.0	-58.0	30.0	103.4
=	0.0	-57.4	30.0	103.3
=	0.0	-56.7	30.0	103.3
=	0.0	-56.2	30.0	103.3
=	0.0	-55.6	30.0	103.3
=	0.0	-55.1	30.0	103.3
=	0.0	-54.5	30.0	103.3
=	0.0	-54.0	30.0	103.3
=	0.0	-53.5	30.0	103.3
=	0.0	-52.8	30.0	103.3
=	0.0	-52.1	30.0	103.3
=	0.0	-51.5	30.0	103.3
=	0.0	-51.0	30.0	103.3
=	0.0	-50.5	30.0	103.2
=	0.0	-49.9	30.0	103.2
=	0.0	-49.4	30.0	103.2
=	0.0	-48.7	30.0	103.2
=	0.0	-48.0	30.0	103.2
=	0.0	-47.5	30.0	103.2
=	0.0	-47.0	30.0	103.1
=	0.0	-46.4	30.0	103.1
=	0.0	-45.7	30.0	103.1
=	0.0	-44.9	30.0	103.0
=	0.0	-44.3	30.0	103.0
=	0.0	-43.7	30.0	103.0
=	0.0	-43.1	30.0	102.9
=	0.0	-42.6	30.0	102.9
=	0.0	-41.9	30.0	102.9
=	0.0	-41.5	30.0	102.8
=	0.0	-40.8	30.0	102.8
=	0.0	-40.1	30.0	102.8
=	0.0	-39.5	30.0	102.7
=	0.0	-38.9	30.0	102.7
=	0.0	-38.4	30.0	102.7
=	0.0	-37.9	30.0	102.7
=	0.0	-37.3	30.0	102.6
=	0.0	-36.7	30.0	102.6
=	0.0	-36.1	30.0	102.6
=	0.0	-35.4	30.0	102.6
=	0.0	-34.8	30.0	102.6
=	0.0	-34.2	30.0	102.5
=	0.0	-33.6	30.0	102.5
=	0.0	-33.1	30.0	102.5
=	0.0	-32.5	30.0	102.4
=	0.0	-31.9	30.0	102.4
=	0.0	-31.3	30.0	102.4
=	0.0	-30.7	30.0	102.3
=	0.0	-30.0	30.0	102.3
=	0.0	-29.5	30.0	102.2
=	0.0	-28.9	30.0	102.2
=	0.0	-28.4	30.0	102.1
=	0.0	-27.8	30.0	102.1
=	0.0	-27.1	30.0	102.0
=	0.0	-26.5	30.0	102.0
=	0.0	-25.9	30.0	101.9
=	0.0	-25.4	30.0	101.9
=	0.0	-24.8	30.0	101.8
=	0.0	-24.1	30.0	101.7
=	0.0	-23.5	30.0	101.6
=	0.0	-22.9	30.0	101.5
=	0.0	-22.4	30.0	101.5
=	0.0	-21.7	30.0	101.4
=	0.0	-21.2	30.0	101.3
=	0.0	-20.6	30.0	101.3
=	0.0	-19.9	30.0	101.2
=	0.0	-19.2	30.0	101.1
=	0.0	-18.7	30.0	101.0
=	0.0	-18.2	30.0	101.0
=	0.0	-17.6	30.0	100.9
=	0.0	-17.1	30.0	100.9
=	0.0	-16.5	30.0	100.8
=	0.0	-16.0	30.0	100.8
=	0.0	-15.3	30.0	100.7
=	0.0	-14.5	30.0	100.7
=	0.0	-14.0	30.0	100.7
=	0.0	-13.4	30.0	100.6
=	0.0	-12.9	30.0	100.6
=	0.0	-12.2	30.0	100.5
=	0.0	-11.6	30.0	100.5
=	0.0	-11.1	30.0	100.5
=	0.0	-10.5	30.0	100.4
=	0.0	-9.9	30.0	100.4
=	0.0	-9.4	30.0	100.3
=	0.0	-8.6	30.0	100.3
=	0.0	-8.0	30.0	100.3
=	0.0	-7.5	30.0	100.2
=	0.0	-6.8	30.0	100.2
=	0.0	-6.2	30.0	100.1
=	0.0	-5.7	30.0	100.1
=	0.0	-5.2	30.0	100.1
=	0.0	-4.6	30.0	100.1
=	0.0	-4.0	30.0	100.1
=	0.0	-3.5	30.0	100.0
=	0.0	-3.0	30.0	100.0
=	0.0	-2.5	30.0	100.0
=	0.0	-2.0	30.0	100.0
=	0.0	-1.4	30.0	100.0
=	0.0	-0.8	30.0	100.0
=	0.0	-0.2	30.0	100.0
=	0.0	0.0	30.0	100.0
=	0.0	0.4	30.0	100.0
=	0.0	1.0	30.0	100.0
=	0.0	1.6	30.0	100.0
=	0.0	2.1	30.0	100.0
=	0.0	2.6	30.0	100.0
=	0.0	3.1	30.0	100.0
=	0.0	3.6	30.0	100.0
=	0.0	4.2	30.0	100.1
=	0.0	4.7	30.0	100.1
=	0.0	5.3	30.0	100.1
=	0.0	5.9	30.0	100.1
=	0.0	6.4	30.0	100.1
=	0.0	7.0	30.0	100.2
=	0.0	7.6	30.0	100.2
=	0.0	8.1	30.0	100.3
=	0.0	8.8	30.0	100.3
=	0.0	9.5	30.0	100.3
=	0.0	10.1	30.0	100.4
=	0.0	10.7	30.0	100.4
=	0.0	11.2	30.0	100.5
=	0.0	11.8	30.0	100.5
=	0.0	12.3	30.0	100.5
=	0.0	13.0	30.0	100.6
=	0.0	13.5	30.0	100.6
=	0.0	14.1	30.0	100.7
=	0.0	14.7	30.0	100.7
=	0.0	15.5	30.0	100.8
=	0.0	16.1	30.0	100.8
=	0.0	16.7	30.0	100.9
=	0.0	17.2	30.0	100.9
=	0.0	17.7	30.0	101.0
=	0.0	18.3	30.0	101.0
=	0.0	18.9	30.0	101.1
=	0.0	19.4	30.0	101.1
=	0.0	20.0	30.0	101.2
=	0.0	20.7	30.0	101.3
=	0.0	21.3	30.0	101.4
=	0.0	21.9	30.0	101.4
=	0.0	22.5	30.0	101.5
=	0.0	23.1	30.0	101.5
=	0.0	23.7	30.0	101.6
=	0.0	24.2	30.0	101.7
=	0.0	25.0	30.0	101.8
=	0.0	25.5	30.0	101.9
=	0.0	26.0	30.0	102.0
=	0.0	26.6	30.0	102.0
=	0.0	27.2	30.0	102.0
=	0.0	28.0	30.0	102.1
=	0.0	28.5	30.0	102.1
=	0.0	29.1	30.0	102.2
=	0.0	29.6	30.0	102.2
=	0.0	30.2	30.0	102.3
=	0.0	30.9	30.0	102.3
=	0.0	31.5	30.0	102.4
=	0.0	32.1	30.0	102.4
=	0.0	32.7	30.0	102.5
=	0.0	33.2	30.0	102.5
=	0.0	33.8	30.0	102.5
=	0.0	34.3	30.0	102.6
=	0.0	35.0	30.0	102.6
=	0.0	35.6	30.0	102.6
=	0.0	36.3	30.0	102.6
=	0.0	36.8	30.0	102.6
=	0.0	37.4	30.0	102.7
=	0.0	38.0	30.0	102.7
=	0.0	38.5	30.0	102.7
=	0.0	39.0	30.0	102.7
=	0.0	39.7	30.0	102.7
=	0.0	40.3	30.0	102.8
=	0.0	41.0	30.0	102.8
=	0.0	41.6	30.0	102.8
=	0.0	42.1	30.0	102.9
=	0.0	42.7	30.0	102.9
=	0.0	43.3	30.0	103.0
=	0.0	43.8	30.0	103.0
=	0.0	44.4	30.0	103.0
=	0.0	45.0	30.0	103.0
=	0.0	45.9	30.0	103.1
=	0.0	46.5	30.0	103.1
=	0.0	47.1	30.0	103.1
=	0.0	47.7	30.0	103.2
=	0.0	48.2	30.0	103.2
=	0.0	48.9	30.0	103.2
=	0.0	49.5	30.0	103.2
=	0.0	50.1	30.0	103.2
=	0.0	50.6	30.0	103.2
=	0.0	51.2	30.0	103.3
=	0.0	51.7	30.0	103.3
=	0.0	52.3	30.0	103.3
=	0.0	53.0	30.0	103.3
=	0.0	53.6	30.0	103.3
=	0.0	54.1	30.0	103.3
=	0.0	54.6	30.0	103.3
=	0.0	55.2	30.0	103.3
=	0.0	55.7	30.0	103.3
=	0.0	56.3	30.0	103.3
=	0.0	56.9	30.0	103.3
=	0.0	57.5	30.0	103.4
=	0.0	58.2	30.0	103.4
=	0.0	58.8	30.0	103.3
=	0.0	59.3	30.0	103.3
=	0.0	60.0	30.0	103.3
=	0.0	60.6	30.0	103.3
=	0.0	61.1	30.0	103.3
=	0.0	61.6	30.0	103.3
=	0.0	62.1	30.0	103.3
=	0.0	62.6	30.0	103.3
=	0.0	63.2	30.0	103.3
=	0.0	63.8	30.0	103.3
=	0.0	64.4	30.0	103.3
=	0.0	65.0	30.0	103.3
=	0.0	65.8	30.0	103.3
=	0.0	66.6	30.0	103.3
=	0.0	67.4	30.0	103.3
=	0.0	68.0	30.0	103.3
=	0.0	68.6	30.0	103.3
=	0.0	69.1	30.0	103.3
=	0.0	69.7	30.0	103.3
=	0.0	70.3	30.0	103.3
=	0.0	70.9	30.0	103.3
=	0.0	71.5	30.0	103.3
=	0.0	71.9	30.0	103.3
=	0.0	72.5	30.0	103.3
=	0.0	73.3	30.0	103.2
=	0.0	73.9	30.0	103.2
=	0.0	74.6	30.0	103.2
=	0.0	75.1	30.0	103.2
=	0.0	75.7	30.0	103.2
=	0.0	76.4	30.0	103.2
=	0.0	76.9	30.0	103.2
=	0.0	77.4	30.0	103.2
=	0.0	78.0	30.0	103.2
=	0.0	78.7	30.0	103.2
=	0.0	79.3	30.0	103.2
=	0.0	79.8	30.0	103.2
=	0.0	80.3	30.0	103.2
=	0.0	80.8	30.0	103.2
=	0.0	81.4	30.0	103.2
=	0.0	81.9	30.0	103.2
=	0.0	82.5	30.0	103.2
=	0.0	83.0	30.0	103.1
=	0.0	83.5	30.0	103.1
=	0.0	84.2	30.0	103.1
=	0.0	84.8	30.0	103.1
=	0.0	85.4	30.0	103.1
=	0.0	86.0	30.0	103.1
=	0.0	86.6	30.0	103.1
=	0.0	87.2	30.0	103.1
=	0.0	87.8	30.0	103.1
=	0.0	88.5	30.0	103.0
=	0.0	89.2	30.0	103.0
=	0.0	89.8	30.0	103.0
=	0.0	90.3	30.0	103.0
=	0.0	91.0	30.0	103.0
=	0.0	91.7	30.0	102.9
=	0.0	92.4	30.0	102.9
=	0.0	93.0	30.0	102.9
=	0.0	93.6	30.0	102.9
=	0.0	94.1	30.0	102.9
=	0.0	94.7	30.0	102.8
=	0.0	95.2	30.0	102.8
=	0.0	95.8	30.0	102.8
=	0.0	96.3	30.0	102.8
=	0.0	97.0	30.0	102.7
=	0.0	97.5	30.0	102.7
=	0.0	98.1	30.0	102.7
=	0.0	98.7	30.0	102.7
=	0.0	99.5	30.0	102.7
=	0.0	100.3	30.0	102.7
=	0.0	100.8	30.0	102.7
=	0.0	101.5	30.0	102.8
=	0.0	102.2	30.0	102.8
=	0.0	102.7	30.0	102.8
=	0.0	103.3	30.0	102.8
=	0.0	103.9	30.0	102.9
=	0.0	104.4	30.0	102.9
=	0.0	105.0	30.0	102.9
=	0.0	105.6	30.0	102.9
=	0.0	106.2	30.0	103.0
=	0.0	106.8	30.0	103.0
=	0.0	107.4	30.0	103.0
=	0.0	108.2	30.0	103.0
=	0.0	109.0	30.0	103.0
=	0.0	109.6	30.0	103.0
=	0.0	110.2	30.0	103.1
=	0.0	110.8	30.0	103.1
=	0.0	111.3	30.0	103.1
=	0.0	112.1	30.0	103.1
=	0.0	112.7	30.0	103.0
=	0.0	113.3	30.0	103.0
=	0.0	113.8	30.0	103.0
=	0.0	114.5	30.0	103.0
=	0.0	115.0	30.0	103.0
=	0.0	115.6	30.0	102.9
=	0.0	116.3	30.0	102.9
=	0.0	116.9	30.0	102.9
=	0.0	117.5	30.0	102.9
=	0.0	118.2	30.0	102.9
=	0.0	118.8	30.0	102.9
=	0.0	119.6	30.0	102.8
=	0.0	120.2	30.0	102.8
=	0.0	120.8	30.0	102.8
=	0.0	121.5	30.0	102.8
=	0.0	122.2	30.0	102.8
=	0.0	122.8	30.0	102.8
=	0.0	123.5	30.0	102.8
=	0.0	124.0	30.0	102.8
=	0.0	124.5	30.0	102.8
=	0.0	125.0	30.0	102.8
=	0.0	125.6	30.0	102.7
=	0.0	126.2	30.0	102.7
=	0.0	126.8	30.0	102.7
=	0.0	127.4	30.0	102.6
=	0.0	128.0	30.0	102.6
=	0.0	128.7	30.0	102.6
=	0.0	129.5	30.0	102.6
=	0.0	130.2	30.0	102.5
=	0.0	130.8	30.0	102.5
=	0.0	131.4	30.0	102.5
=	0.0	132.1	30.0	102.4
=	0.0	132.6	30.0	102.4
=	0.0	133.2	30.0	102.4
=	0.0	133.8	30.0	102.4
=	0.0	134.5	30.0	102.3
=	0.0	135.0	30.0	102.3
=	0.0	135.6	30.0	102.3
=	0.0	136.1	30.0	102.2
=	0.0	136.7	30.0	102.2
=	0.0	137.4	30.0	102.2
=	0.0	138.2	30.0	102.1
=	0.0	138.7	30.0	102.1
=	0.0	139.4	30.0	102.1
=	0.0	140.0	30.0	102.1
=	0.0	140.8	30.0	102.0
=	0.0	141.4	30.0	102.0
=	0.0	142.2	30.0	102.0
=	0.0	143.0	30.0	102.0
=	0.0	143.6	30.0	102.0
=	0.0	144.2	30.0	102.0
=	0.0	144.7	30.0	102.0
=	0.0	145.4	30.0	102.0
=	0.0	145.9	30.0	102.0
=	0.0	146.6	30.0	102.0
=	0.0	147.4	30.0	102.0
=	0.0	148.1	30.0	102.0
=	0.0	148.9	30.0	101.9
=	0.0	149.5	30.0	101.9
=	0.0	150.0	30.0	101.9
=	0.0	150.6	30.0	101.9
=	0.0	151.2	30.0	101.9
=	0.0	151.7	30.0	101.9
=	0.0	152.4	30.0	101.8
=	0.0	153.2	30.0	101.8
=	0.0	154.0	30.0	101.8
=	0.0	154.7	30.0	101.8
=	0.0	155.3	30.0	101.8
=	0.0	156.0	30.0	101.7
=	0.0	156.6	30.0	101.7
=	0.0	157.3	30.0	101.6
=	0.0	157.8	30.0	101.6
=	0.0	158.4	30.0	101.6
=	0.0	158.9	30.0	101.5
=	0.0	159.6	30.0	101.5
=	0.0	160.1	30.0	101.4
=	0.0	160.7	30.0	101.4
=	0.0	161.3	30.0	101.4
=	0.0	161.9	30.0	101.3
=	0.0	162.4	30.0	101.2
=	0.0	163.1	30.0	101.2
=	0.0	163.8	30.0	101.1
=	0.0	164.3	30.0	101.1
=	0.0	164.9	30.0	101.0
=	0.0	165.5	30.0	101.0
=	0.0	166.2	30.0	101.0
=	0.0	166.8	30.0	100.9
=	0.0	167.4	30.0	100.8
=	0.0	168.0	30.0	100.8
=	0.0	168.7	30.0	100.7
=	0.0	169.3	30.0	100.7
=	0.0	170.1	30.0	100.6
=	0.0	170.7	30.0	100.5
=	0.0	171.3	30.0	100.5
=	0.0	171.9	30.0	100.5
=	0.0	172.5	30.0	100.4
=	0.0	173.1	30.0	100.3
=	0.0	173.8	30.0	100.3
=	0.0	174.5	30.0	100.3
=	0.0	175.1	30.0	100.2
=	0.0	175.9	30.0	100.2
=	0.0	176.5	30.0	100.2
=	0.0	177.0	30.0	100.1
=	0.0	177.5	30.0	100.1
=	0.0	178.2	30.0	100.1
=	0.0	178.8	30.0	100.1
=	0.0	179.3	30.0	100.0
=	0.0	179.8	30.0	100.0
=	0.0	180.6	30.0	100.0
=	0.0	181.2	30.0	100.0
=	0.0	182.0	30.0	100.0
=	0.0	182.7	30.0	100.0
=	0.0	183.4	30.0	99.9
=	0.0	184.0	30.0	99.9
=	0.0	184.6	30.0	99.9
=	0.0	185.4	30.0	99.8
=	0.0	186.0	30.0	99.8
=	0.0	186.6	30.0	99.7
=	0.0	187.2	30.0	99.6
=	0.0	187.8	30.0	99.5
=	0.0	188.4	30.0	99.4
=	0.0	189.0	30.0	99.2
=	0.0	189.7	30.0	99.1
=	0.0	190.3	30.0	98.9
=	0.0	190.8	30.0	98.8
=	0.0	191.4	30.0	98.6
=	0.0	191.9	30.0	98.5
=	0.0	192.4	30.0	98.3
=	0.0	193.1	30.0	98.0
=	0.0	193.6	30.0	97.8
=	0.0	194.2	30.0	97.5
=	0.0	194.8	30.0	97.2
=	0.0	195.4	30.0	96.7
=	0.0	196.0	30.0	96.3
=	0.0	196.6	30.0	95.9
=	0.0	197.4	30.0	95.2
=	0.0	198.0	30.0	94.4
=	0.0	198.6	30.0	93.6
=	0.0	199.2	30.0	92.6
=	0.0	199.9	30.0	91.2
=	0.0	200.6	30.0	89.6
=	0.0	201.3	30.0	87.3
=	0.0	202.0	30.0	84.0
=	0.0	202.6	30.0	80.3
=	0.0	203.3	30.0	75.9
=	0.0	203.9	30.0	71.5
=	0.0	204.4	30.0	67.3
=	0.0	205.1	30.0	60.8
=	0.0	205.7	30.0	55.9
=	0.0	206.3	30.0	50.0
=	0.0	207.0	30.0	44.8
=	0.0	207.6	30.0	40.1
=	0.0	208.1	30.0	35.9
=	0.0	208.8	30.0	31.9
=	0.0	209.4	30.0	28.2
=	0.0	210.1	30.0	25.1
=	0.0	210.7	30.0	23.1
=	0.0	211.2	30.0	21.5
=	0.0	211.8	30.0	20.1
=	0.0	212.3	30.0	19.1
=	0.0	212.9	30.0	18.0
=	0.0	213.5	30.0	17.2
=	0.0	214.1	30.0	16.6
=	0.0	214.7	30.0	15.9
=	0.0	215.3	30.0	15.3
=	0.0	216.0	30.0	14.8
=	0.0	216.6	30.0	14.3
=	0.0	217.3	30.0	13.9
=	0.0	217.8	30.0	13.7
=	0.0	218.5	30.0	13.3
=	0.0	219.2	30.0	13.0
=	0.0	219.8	30.0	12.8
=	0.0	220.4	30.0	12.6
=	0.0	221.1	30.0	12.4
=	0.0	221.7	30.0	12.2
=	0.0	222.2	30.0	12.1
=	0.0	222.9	30.0	12.0
=	0.0	223.6	30.0	11.8
=	0.0	224.3	30.0	11.6
=	0.0	224.9	30.0	11.5
=	0.0	225.5	30.0	11.4
=	0.0	226.0	30.0	11.3
=	0.0	226.5	30.0	11.2
=	0.0	227.1	30.0	11.1
=	0.0	227.7	30.0	11.0
=	0.0	228.3	30.0	10.9
=	0.0	229.0	30.0	10.8
=	0.0	229.6	30.0	10.7
=	0.0	230.2	30.0	10.6
=	0.0	230.8	30.0	10.5
=	0.0	231.4	30.0	10.4
=	0.0	232.1	30.0	10.3
=	0.0	232.7	30.0	10.2
=	0.0	233.2	30.0	10.1
=	0.0	233.8	30.0	10.1
=	0.0	234.4	30.0	10.0
=	0.0	235.2	30.0	9.9
=	0.0	236.0	30.0	9.8
=	0.0	236.6	30.0	9.7
=	0.0	237.2	30.0	9.6
=	0.0	237.7	30.0	9.6
=	0.0	238.2	30.0	9.5
=	0.0	238.8	30.0	9.4
=	0.0	239.3	30.0	9.4
=	0.0	239.9	30.0	9.3
=	0.0	240.6	30.0	9.2
=	0.0	241.2	30.0	9.1
=	0.0	241.8	30.0	9.1
=	0.0	242.3	30.0	9.1
=	0.0	242.9	30.0	9.0
=	0.0	243.5	30.0	8.9
=	0.0	244.0	30.0	8.9
=	0.0	244.7	30.0	8.8
=	0.0	245.3	30.0	8.7
=	0.0	246.0	30.0	8.6
=	0.0	246.7	30.0	8.6
=	0.0	247.4	30.0	8.5
=	0.0	248.0	30.0	8.5
=	0.0	248.7	30.0	8.4
=	0.0	249.4	30.0	8.3
=	0.0	250.2	30.0	8.2
=	0.0	250.8	30.0	8.2
=	0.0	251.5	30.0	8.1
=	0.0	252.0	30.0	8.1
=	0.0	252.8	30.0	8.0
=	0.0	253.5	30.0	8.0
=	0.0	254.0	30.0	7.9
=	0.0	254.6	30.0	7.9
=	0.0	255.1	30.0	7.8
=	0.0	255.8	30.0	7.7
=	0.0	256.3	30.0	7.7
=	0.0	256.9	30.0	7.7
=	0.0	257.5	30.0	7.6
=	0.0	258.1	30.0	7.6
=	0.0	258.9	30.0	7.5
=	0.0	259.4	30.0	7.5
=	0.0	260.0	30.0	7.4
=	0.0	260.6	30.0	7.4
=	0.0	261.3	30.0	7.3
=	0.0	262.1	30.0	7.3
=	0.0	262.9	30.0	7.2
=	0.0	263.6	30.0	7.1
=	0.0	264.1	30.0	7.1
=	0.0	264.7	30.0	7.1
=	0.0	265.3	30.0	7.0
=	0.0	265.9	30.0	7.0
=	0.0	266.5	30.0	6.9
=	0.0	267.0	30.0	6.9
=	0.0	267.6	30.0	6.9
=	0.0	268.3	30.0	6.8
=	0.0	268.9	30.0	6.8
=	0.0	269.6	30.0	6.8
=	0.0	270.1	30.0	6.7
=	0.0	270.8	30.0	6.7
=	0.0	271.6	30.0	6.6
=	0.0	272.1	30.0	6.6
=	0.0	272.7	30.0	6.6
=	0.0	273.3	30.0	6.5
=	0.0	273.9	30.0	6.5
=	0.0	274.5	30.0	6.5
=	0.0	275.3	30.0	6.4
=	0.0	276.0	30.0	6.4
=	0.0	276.6	30.0	6.3
=	0.0	277.2	30.0	6.3
:EOM # End of Measurement
#
# RFA300 ASCII Measurement Dump ( BDS format )
#
# Measurement number 	2
#
%VNR 1.0
%MOD 	RAT
%TYP 	SCN
%SCN 	PRO
%FLD 	ION
%DAT 	10-14-2011
%TIM 	12:00:00
%FSZ 	400	300
%BMT 	PHO	   15.0
%SSD 	1000
%BUP 	0
%BRD 	1000
%FSH 	1
%ASC 	0
%WEG 	15
%GPO 	0
%CPO 	0
%MEA 	6
%PRD 	50,0
%PTS 	915
%STS 	    0.0	  -283.2	   50.0 # Start Scan values in mm ( X , Y , Z )
%EDS 	    0.0	   283.0	   50.0 # End Scan values in mm ( X , Y , Z )
#
#	  X      Y      Z     Dose
#
=	0.0	-283.2	50.0	5.9
=	0.0	-282.6	50.0	5.9
=	0.0	-282.1	50.0	6.0
=	0.0	-281.3	50.0	6.0
=	0.0	-280.7	50.0	6.0
=	0.0	-279.9	50.0	6.1
=	0.0	-279.1	50.0	6.1
=	0.0	-278.4	50.0	6.1
=	0.0	-277.8	50.0	6.2
=	0.0	-277.0	50.0	6.2
=	0.0	-276.4	50.0	6.2
=	0.0	-275.9	50.0	6.3
=	0.0	-275.3	50.0	6.3
=	0.0	-274.8	50.0	6.3
=	0.0	-274.1	50.0	6.3
=	0.0	-273.4	50.0	6.4
=	0.0	-272.8	50.0	6.4
=	0.0	-272.1	50.0	6.5
=	0.0	-271.4	50.0	6.5
=	0.0	-270.9	50.0	6.5
=	0.0	-270.2	50.0	6.6
=	0.0	-269.5	50.0	6.6
=	0.0	-268.8	50.0	6.7
=	0.0	-268.2	50.0	6.7
=	0.0	-267.5	50.0	6.8
=	0.0	-266.9	50.0	6.8
=	0.0	-266.3	50.0	6.9
=	0.0	-265.7	50.0	6.9
=	0.0	-265.1	50.0	6.9
=	0.0	-264.4	50.0	7.0
=	0.0	-263.8	50.0	7.0
=	0.0	-263.2	50.0	7.1
=	0.0	-262.6	50.0	7.1
=	0.0	-261.8	50.0	7.2
=	0.0	-261.1	50.0	7.2
=	0.0	-260.5	50.0	7.3
=	0.0	-259.9	50.0	7.3
=	0.0	-259.2	50.0	7.4
=	0.0	-258.7	50.0	7.4
=	0.0	-258.0	50.0	7.5
=	0.0	-257.4	50.0	7.5
=	0.0	-256.8	50.0	7.6
=	0.0	-256.2	50.0	7.6
=	0.0	-255.5	50.0	7.7
=	0.0	-254.9	50.0	7.8
=	0.0	-254.4	50.0	7.8
=	0.0	-253.6	50.0	7.9
=	0.0	-252.9	50.0	7.9
=	0.0	-252.4	50.0	8.0
=	0.0	-251.7	50.0	8.0
=	0.0	-250.9	50.0	8.1
=	0.0	-250.3	50.0	8.2
=	0.0	-249.6	50.0	8.2
=	0.0	-249.0	50.0	8.3
=	0.0	-248.5	50.0	8.4
=	0.0	-247.8	50.0	8.4
=	0.0	-247.2	50.0	8.5
=	0.0	-246.7	50.0	8.5
=	0.0	-246.1	50.0	8.6
=	0.0	-245.5	50.0	8.7
=	0.0	-244.9	50.0	8.7
=	0.0	-244.1	50.0	8.8
=	0.0	-243.4	50.0	8.9
=	0.0	-242.9	50.0	8.9
=	0.0	-242.1	50.0	9.0
=	0.0	-241.5	50.0	9.1
=	0.0	-240.9	50.0	9.2
=	0.0	-240.2	50.0	9.3
=	0.0	-239.6	50.0	9.4
=	0.0	-238.9	50.0	9.5
=	0.0	-238.2	50.0	9.6
=	0.0	-237.6	50.0	9.6
=	0.0	-236.9	50.0	9.7
=	0.0	-236.3	50.0	9.8
=	0.0	-235.7	50.0	9.9
=	0.0	-235.1	50.0	10.0
=	0.0	-234.5	50.0	10.1
=	0.0	-233.9	50.0	10.2
=	0.0	-233.3	50.0	10.3
=	0.0	-232.6	50.0	10.4
=	0.0	-232.1	50.0	10.5
=	0.0	-231.5	50.0	10.6
=	0.0	-230.9	50.0	10.7
=	0.0	-230.2	50.0	10.8
=	0.0	-229.7	50.0	10.9
=	0.0	-229.1	50.0	11.1
=	0.0	-228.5	50.0	11.2
=	0.0	-227.8	50.0	11.4
=	0.0	-227.2	50.0	11.5
=	0.0	-226.7	50.0	11.6
=	0.0	-226.1	50.0	11.8
=	0.0	-225.4	50.0	12.0
=	0.0	-224.8	50.0	12.2
=	0.0	-224.3	50.0	12.3
=	0.0	-223.6	50.0	12.6
=	0.0	-222.9	50.0	12.9
=	0.0	-222.3	50.0	13.1
=	0.0	-221.7	50.0	13.5
=	0.0	-221.2	50.0	13.8
=	0.0	-220.6	50.0	14.1
=	0.0	-220.0	50.0	14.6
=	0.0	-219.3	50.0	15.2
=	0.0	-218.7	50.0	15.8
=	0.0	-218.0	50.0	16.5
=	0.0	-217.4	50.0	17.3
=	0.0	-216.7	50.0	18.3
=	0.0	-216.2	50.0	19.3
=	0.0	-215.6	50.0	20.4
=	0.0	-215.0	50.0	22.0
=	0.0	-214.3	50.0	24.2
=	0.0	-213.6	50.0	26.9
=	0.0	-213.1	50.0	29.4
=	0.0	-212.6	50.0	32.4
=	0.0	-212.0	50.0	36.1
=	0.0	-211.5	50.0	39.8
=	0.0	-210.9	50.0	43.8
=	0.0	-210.4	50.0	47.9
=	0.0	-209.7	50.0	53.1
=	0.0	-209.2	50.0	58.0
=	0.0	-208.6	50.0	62.8
=	0.0	-208.0	50.0	68.1
=	0.0	-207.4	50.0	72.9
=	0.0	-206.7	50.0	78.0
=	0.0	-206.0	50.0	81.9
=	0.0	-205.2	50.0	85.5
=	0.0	-204.6	50.0	87.5
=	0.0	-204.1	50.0	89.1
=	0.0	-203.4	50.0	90.5
=	0.0	-202.9	50.0	91.6
=	0.0	-202.2	50.0	92.8
=	0.0	-201.6	50.0	93.6
=	0.0	-200.9	50.0	94.3
=	0.0	-200.3	50.0	94.8
=	0.0	-199.7	50.0	95.3
=	0.0	-199.1	50.0	95.9
=	0.0	-198.4	50.0	96.3
=	0.0	-197.8	50.0	96.7
=	0.0	-197.1	50.0	97.1
=	0.0	-196.3	50.0	97.4
=	0.0	-195.7	50.0	97.7
=	0.0	-195.1	50.0	97.9
=	0.0	-194.4	50.0	98.1
=	0.0	-193.8	50.0	98.4
=	0.0	-193.2	50.0	98.6
=	0.0	-192.5	50.0	98.8
=	0.0	-191.9	50.0	98.9
=	0.0	-191.4	50.0	99.1
=	0.0	-190.7	50.0	99.3
=	0.0	-190.2	50.0	99.4
=	0.0	-189.6	50.0	99.5
=	0.0	-189.0	50.0	99.6
=	0.0	-188.3	50.0	99.6
=	0.0	-187.8	50.0	99.7
=	0.0	-187.2	50.0	99.7
=	0.0	-186.6	50.0	99.7
=	0.0	-186.1	50.0	99.8
=	0.0	-185.4	50.0	99.9
=	0.0	-184.9	50.0	99.9
=	0.0	-184.3	50.0	99.9
=	0.0	-183.8	50.0	100.0
=	0.0	-183.1	50.0	100.0
=	0.0	-182.4	50.0	100.0
=	0.0	-181.9	50.0	100.0
=	0.0	-181.1	50.0	100.0
=	0.0	-180.6	50.0	100.1
=	0.0	-180.0	50.0	100.1
=	0.0	-179.3	50.0	100.1
=	0.0	-178.5	50.0	100.1
=	0.0	-178.0	50.0	100.2
=	0.0	-177.5	50.0	100.2
=	0.0	-176.8	50.0	100.3
=	0.0	-176.2	50.0	100.3
=	0.0	-175.6	50.0	100.3
=	0.0	-175.1	50.0	100.3
=	0.0	-174.6	50.0	100.4
=	0.0	-174.0	50.0	100.5
=	0.0	-173.3	50.0	100.5
=	0.0	-172.7	50.0	100.6
=	0.0	-172.0	50.0	100.6
=	0.0	-171.5	50.0	100.7
=	0.0	-170.9	50.0	100.8
=	0.0	-170.4	50.0	100.9
=	0.0	-169.8	50.0	100.9
=	0.0	-169.2	50.0	101.0
=	0.0	-168.5	50.0	101.1
=	0.0	-167.9	50.0	101.1
=	0.0	-167.1	50.0	101.2
=	0.0	-166.6	50.0	101.2
=	0.0	-165.9	50.0	101.3
=	0.0	-165.2	50.0	101.4
=	0.0	-164.5	50.0	101.5
=	0.0	-163.8	50.0	101.5
=	0.0	-163.0	50.0	101.6
=	0.0	-162.3	50.0	101.6
=	0.0	-161.6	50.0	101.6
=	0.0	-160.9	50.0	101.7
=	0.0	-160.2	50.0	101.7
=	0.0	-159.7	50.0	101.8
=	0.0	-159.1	50.0	101.8
=	0.0	-158.5	50.0	101.8
=	0.0	-157.7	50.0	101.8
=	0.0	-157.0	50.0	101.9
=	0.0	-156.4	50.0	101.9
=	0.0	-155.8	50.0	101.9
=	0.0	-155.2	50.0	101.9
=	0.0	-154.7	50.0	102.0
=	0.0	-154.0	50.0	102.0
=	0.0	-153.3	50.0	102.0
=	0.0	-152.7	50.0	102.0
=	0.0	-152.0	50.0	102.0
=	0.0	-151.4	50.0	102.1
=	0.0	-150.6	50.0	102.1
=	0.0	-150.0	50.0	102.1
=	0.0	-149.2	50.0	102.1
=	0.0	-148.6	50.0	102.1
=	0.0	-147.8	50.0	102.1
=	0.0	-147.2	50.0	102.1
=	0.0	-146.6	50.0	102.1
=	0.0	-146.0	50.0	102.1
=	0.0	-145.5	50.0	102.1
=	0.0	-144.9	50.0	102.1
=	0.0	-144.3	50.0	102.1
=	0.0	-143.5	50.0	102.2
=	0.0	-142.9	50.0	102.2
=	0.0	-142.1	50.0	102.3
=	0.0	-141.4	50.0	102.3
=	0.0	-140.8	50.0	102.3
=	0.0	-140.2	50.0	102.3
=	0.0	-139.6	50.0	102.3
=	0.0	-139.1	50.0	102.4
=	0.0	-138.6	50.0	102.4
=	0.0	-138.0	50.0	102.4
=	0.0	-137.3	50.0	102.4
=	0.0	-136.7	50.0	102.4
=	0.0	-136.2	50.0	102.4
=	0.0	-135.6	50.0	102.5
=	0.0	-134.9	50.0	102.5
=	0.0	-134.3	50.0	102.5
=	0.0	-133.7	50.0	102.6
=	0.0	-133.0	50.0	102.6
=	0.0	-132.4	50.0	102.7
=	0.0	-131.9	50.0	102.7
=	0.0	-131.3	50.0	102.7
=	0.0	-130.6	50.0	102.7
=	0.0	-130.1	50.0	102.8
=	0.0	-129.4	50.0	102.8
=	0.0	-128.8	50.0	102.9
=	0.0	-128.3	50.0	102.9
=	0.0	-127.8	50.0	102.9
=	0.0	-127.1	50.0	102.9
=	0.0	-126.4	50.0	102.9
=	0.0	-125.7	50.0	103.0
=	0.0	-125.0	50.0	102.9
=	0.0	-124.2	50.0	103.0
=	0.0	-123.6	50.0	103.0
=	0.0	-123.0	50.0	103.0
=	0.0	-122.3	50.0	103.0
=	0.0	-121.6	50.0	103.0
=	0.0	-121.0	50.0	103.0
=	0.0	-120.4	50.0	103.0
=	0.0	-119.7	50.0	103.0
=	0.0	-119.0	50.0	103.0
=	0.0	-118.3	50.0	103.1
=	0.0	-117.7	50.0	103.1
=	0.0	-117.0	50.0	103.1
=	0.0	-116.3	50.0	103.2
=	0.0	-115.5	50.0	103.2
=	0.0	-114.7	50.0	103.2
=	0.0	-114.1	50.0	103.2
=	0.0	-113.3	50.0	103.2
=	0.0	-112.7	50.0	103.2
=	0.0	-112.2	50.0	103.2
=	0.0	-111.4	50.0	103.2
=	0.0	-110.9	50.0	103.2
=	0.0	-110.2	50.0	103.2
=	0.0	-109.6	50.0	103.1
=	0.0	-109.0	50.0	103.1
=	0.0	-108.4	50.0	103.1
=	0.0	-107.7	50.0	103.1
=	0.0	-107.1	50.0	103.1
=	0.0	-106.5	50.0	103.1
=	0.0	-105.8	50.0	103.0
=	0.0	-105.3	50.0	103.0
=	0.0	-104.7	50.0	103.0
=	0.0	-104.1	50.0	103.0
=	0.0	-103.5	50.0	102.9
=	0.0	-102.9	50.0	102.9
=	0.0	-102.3	50.0	102.9
=	0.0	-101.6	50.0	102.8
=	0.0	-101.1	50.0	102.8
=	0.0	-100.5	50.0	102.8
=	0.0	-99.8	50.0	102.8
=	0.0	-99.3	50.0	102.8
=	0.0	-98.7	50.0	102.9
=	0.0	-98.1	50.0	102.9
=	0.0	-97.5	50.0	102.9
=	0.0	-96.9	50.0	102.9
=	0.0	-96.3	50.0	103.0
=	0.0	-95.8	50.0	103.0
=	0.0	-95.1	50.0	103.0
=	0.0	-94.6	50.0	103.0
=	0.0	-94.0	50.0	103.1
=	0.0	-93.5	50.0	103.1
=	0.0	-92.9	50.0	103.1
=	0.0	-92.3	50.0	103.1
=	0.0	-91.7	50.0	103.1
=	0.0	-91.2	50.0	103.1
=	0.0	-90.6	50.0	103.1
=	0.0	-90.1	50.0	103.2
=	0.0	-89.6	50.0	103.2
=	0.0	-89.1	50.0	103.2
=	0.0	-88.4	50.0	103.2
=	0.0	-87.9	50.0	103.2
=	0.0	-87.4	50.0	103.2
=	0.0	-86.7	50.0	103.2
=	0.0	-86.1	50.0	103.2
=	0.0	-85.6	50.0	103.2
=	0.0	-84.9	50.0	103.2
=	0.0	-84.1	50.0	103.2
=	0.0	-83.6	50.0	103.3
=	0.0	-83.0	50.0	103.3
=	0.0	-82.3	50.0	103.3
=	0.0	-81.7	50.0	103.2
=	0.0	-81.2	50.0	103.2
=	0.0	-80.5	50.0	103.3
=	0.0	-80.0	50.0	103.3
=	0.0	-79.5	50.0	103.3
=	0.0	-78.8	50.0	103.3
=	0.0	-78.3	50.0	103.3
=	0.0	-77.7	50.0	103.3
=	0.0	-77.1	50.0	103.3
=	0.0	-76.5	50.0	103.3
=	0.0	-75.8	50.0	103.3
=	0.0	-75.2	50.0	103.3
=	0.0	-74.7	50.0	103.3
=	0.0	-74.1	50.0	103.3
=	0.0	-73.5	50.0	103.3
=	0.0	-72.9	50.0	103.3
=	0.0	-72.3	50.0	103.3
=	0.0	-71.8	50.0	103.3
=	0.0	-71.2	50.0	103.3
=	0.0	-70.6	50.0	103.3
=	0.0	-70.0	50.0	103.3
=	0.0	-69.5	50.0	103.3
=	0.0	-68.8	50.0	103.3
=	0.0	-68.2	50.0	103.3
=	0.0	-67.7	50.0	103.3
=	0.0	-67.1	50.0	103.4
=	0.0	-66.5	50.0	103.4
=	0.0	-65.9	50.0	103.4
=	0.0	-65.4	50.0	103.4
=	0.0	-64.8	50.0	103.4
=	0.0	-64.2	50.0	103.4
=	0.0	-63.6	50.0	103.4
=	0.0	-63.1	50.0	103.4
=	0.0	-62.3	50.0	103.4
=	0.0	-61.7	50.0	103.4
=	0.0	-61.1	50.0	103.4
=	0.0	-60.5	50.0	103.4
=	0.0	-59.9	50.0	103.4
=	0.0	-59.1	50.0	103.4
=	0.0	-58.5	50.0	103.4
=	0.0	-57.8	50.0	103.4
=	0.0	-57.3	50.0	103.4
=	0.0	-56.7	50.0	103.4
=	0.0	-56.2	50.0	103.4
