:MSR 	5	 # No. of measurement in file
:SYS BDS 0   # Beam Data Scanner System
#
# RFA300 ASCII Measurement Dump ( BDS format )
#
# Measurement number 	1
#
%VNR 1.0
%MOD 	RAT
%TYP 	SCN
%SCN 	DPT
%FLD 	ION
%DAT 	09-29-2011
%TIM 	12:00:00
%FSZ 	040	040
%BMT 	PHO	   15.0
%SSD 	1200
%BUP 	0
%BRD 	1200
%FSH 	1
%ASC 	0
%WEG 	15
%GPO 	0
%CPO 	0
%MEA 	5
%PRD 	0,0
%PTS 	737
%STS 	    0.0	  0.0	   0.0 # Start Scan values in mm ( X , Y , Z )
%EDS 	    0.0	   0.0	   305.8 # End Scan values in mm ( X , Y , Z )
#
#	  X      Y      Z     Dose
#
=	0.0	0.0	0.0	24.1
=	0.0	0.0	0.4	25.3
=	0.0	0.0	0.8	26.9
=	0.0	0.0	1.2	28.6
=	0.0	0.0	1.6	30.7
=	0.0	0.0	2.0	34.0
=	0.0	0.0	2.4	37.8
=	0.0	0.0	2.8	41.3
=	0.0	0.0	3.2	44.2
=	0.0	0.0	3.6	47.0
=	0.0	0.0	4.0	50.2
=	0.0	0.0	4.4	53.0
=	0.0	0.0	4.7	54.6
=	0.0	0.0	5.0	56.8
=	0.0	0.0	5.4	59.2
=	0.0	0.0	5.8	61.5
=	0.0	0.0	6.2	63.3
=	0.0	0.0	6.5	64.6
=	0.0	0.0	6.8	66.5
=	0.0	0.0	7.2	68.1
=	0.0	0.0	7.6	69.9
=	0.0	0.0	8.0	71.6
=	0.0	0.0	8.4	73.2
=	0.0	0.0	8.8	74.5
=	0.0	0.0	9.3	75.9
=	0.0	0.0	9.7	77.4
=	0.0	0.0	10.1	78.8
=	0.0	0.0	10.5	80.0
=	0.0	0.0	10.9	81.2
=	0.0	0.0	11.3	82.1
=	0.0	0.0	11.7	83.0
=	0.0	0.0	12.1	84.1
=	0.0	0.0	12.5	85.2
=	0.0	0.0	12.9	86.1
=	0.0	0.0	13.3	86.8
=	0.0	0.0	13.7	87.8
=	0.0	0.0	14.1	88.6
=	0.0	0.0	14.5	89.3
=	0.0	0.0	14.9	89.9
=	0.0	0.0	15.3	90.7
=	0.0	0.0	15.8	91.4
=	0.0	0.0	16.1	92.0
=	0.0	0.0	16.5	92.4
=	0.0	0.0	16.9	92.8
=	0.0	0.0	17.2	93.2
=	0.0	0.0	17.6	93.7
=	0.0	0.0	18.0	94.3
=	0.0	0.0	18.3	94.7
=	0.0	0.0	18.8	95.1
=	0.0	0.0	19.2	95.6
=	0.0	0.0	19.6	95.9
=	0.0	0.0	20.0	96.3
=	0.0	0.0	20.4	96.7
=	0.0	0.0	20.8	97.0
=	0.0	0.0	21.2	97.1
=	0.0	0.0	21.6	97.2
=	0.0	0.0	22.0	97.6
=	0.0	0.0	22.4	98.0
=	0.0	0.0	22.8	98.2
=	0.0	0.0	23.2	98.3
=	0.0	0.0	23.6	98.6
=	0.0	0.0	24.0	98.8
=	0.0	0.0	24.5	98.9
=	0.0	0.0	24.9	99.1
=	0.0	0.0	25.3	99.2
=	0.0	0.0	25.6	99.3
=	0.0	0.0	26.1	99.4
=	0.0	0.0	26.5	99.5
=	0.0	0.0	26.9	99.6
=	0.0	0.0	27.3	99.7
=	0.0	0.0	27.7	99.8
=	0.0	0.0	28.1	99.9
=	0.0	0.0	28.5	99.9
=	0.0	0.0	28.9	100.0
=	0.0	0.0	29.3	100.0
=	0.0	0.0	29.6	100.0
=	0.0	0.0	29.9	100.0
=	0.0	0.0	30.3	100.0
=	0.0	0.0	30.7	100.0
=	0.0	0.0	31.1	100.0
=	0.0	0.0	31.5	100.0
=	0.0	0.0	31.9	100.0
=	0.0	0.0	32.3	100.0
=	0.0	0.0	32.7	100.0
=	0.0	0.0	33.2	99.9
=	0.0	0.0	33.5	99.9
=	0.0	0.0	33.9	99.8
=	0.0	0.0	34.3	99.7
=	0.0	0.0	34.8	99.7
=	0.0	0.0	35.2	99.6
=	0.0	0.0	35.5	99.6
=	0.0	0.0	35.9	99.6
=	0.0	0.0	36.4	99.5
=	0.0	0.0	36.8	99.4
=	0.0	0.0	37.2	99.4
=	0.0	0.0	37.6	99.3
=	0.0	0.0	38.0	99.2
=	0.0	0.0	38.4	99.1
=	0.0	0.0	38.8	98.9
=	0.0	0.0	39.2	98.8
=	0.0	0.0	39.6	98.8
=	0.0	0.0	40.0	98.7
=	0.0	0.0	40.4	98.6
=	0.0	0.0	40.8	98.5
=	0.0	0.0	41.2	98.4
=	0.0	0.0	41.6	98.3
=	0.0	0.0	42.0	98.2
=	0.0	0.0	42.4	98.1
=	0.0	0.0	42.8	98.0
=	0.0	0.0	43.2	97.7
=	0.0	0.0	43.7	97.6
=	0.0	0.0	44.0	97.5
=	0.0	0.0	44.4	97.4
=	0.0	0.0	44.8	97.3
=	0.0	0.0	45.2	97.2
=	0.0	0.0	45.7	97.0
=	0.0	0.0	46.2	96.7
=	0.0	0.0	46.9	96.5
=	0.0	0.0	47.3	96.3
=	0.0	0.0	47.7	96.2
=	0.0	0.0	48.1	96.1
=	0.0	0.0	48.5	95.9
=	0.0	0.0	48.9	95.8
=	0.0	0.0	49.3	95.6
=	0.0	0.0	49.7	95.5
=	0.0	0.0	50.1	95.4
=	0.0	0.0	50.5	95.3
=	0.0	0.0	50.9	95.2
=	0.0	0.0	51.3	95.1
=	0.0	0.0	51.7	95.0
=	0.0	0.0	52.2	94.8
=	0.0	0.0	52.5	94.7
=	0.0	0.0	52.8	94.5
=	0.0	0.0	53.0	94.4
=	0.0	0.0	53.3	94.3
=	0.0	0.0	53.6	94.2
=	0.0	0.0	53.8	94.1
=	0.0	0.0	54.1	94.0
=	0.0	0.0	54.4	93.8
=	0.0	0.0	54.8	93.7
=	0.0	0.0	55.1	93.7
=	0.0	0.0	55.3	93.6
=	0.0	0.0	55.6	93.5
=	0.0	0.0	56.0	93.4
=	0.0	0.0	56.3	93.3
=	0.0	0.0	56.6	93.2
=	0.0	0.0	57.0	93.0
=	0.0	0.0	57.4	92.9
=	0.0	0.0	57.8	92.7
=	0.0	0.0	58.3	92.5
=	0.0	0.0	58.7	92.4
=	0.0	0.0	59.1	92.2
=	0.0	0.0	59.4	92.1
=	0.0	0.0	59.7	91.9
=	0.0	0.0	59.9	91.8
=	0.0	0.0	60.2	91.7
=	0.0	0.0	60.5	91.5
=	0.0	0.0	60.8	91.5
=	0.0	0.0	61.0	91.4
=	0.0	0.0	61.3	91.3
=	0.0	0.0	61.6	91.3
=	0.0	0.0	61.9	91.2
=	0.0	0.0	62.1	91.2
=	0.0	0.0	62.4	91.1
=	0.0	0.0	62.8	90.9
=	0.0	0.0	63.1	90.8
=	0.0	0.0	63.4	90.7
=	0.0	0.0	63.8	90.4
=	0.0	0.0	64.2	90.2
=	0.0	0.0	64.4	90.1
=	0.0	0.0	64.8	90.0
=	0.0	0.0	65.2	89.9
=	0.0	0.0	65.6	89.8
=	0.0	0.0	66.0	89.6
=	0.0	0.0	66.5	89.4
=	0.0	0.0	66.8	89.3
=	0.0	0.0	67.2	89.1
=	0.0	0.0	67.6	88.9
=	0.0	0.0	68.0	88.8
=	0.0	0.0	68.4	88.6
=	0.0	0.0	68.9	88.4
=	0.0	0.0	69.3	88.3
=	0.0	0.0	69.7	88.2
=	0.0	0.0	70.1	88.0
=	0.0	0.0	70.5	87.9
=	0.0	0.0	70.9	87.8
=	0.0	0.0	71.5	87.7
=	0.0	0.0	71.9	87.5
=	0.0	0.0	72.3	87.2
=	0.0	0.0	72.7	87.1
=	0.0	0.0	73.1	87.0
=	0.0	0.0	73.5	86.9
=	0.0	0.0	73.9	86.8
=	0.0	0.0	74.3	86.7
=	0.0	0.0	74.8	86.5
=	0.0	0.0	75.2	86.4
=	0.0	0.0	75.6	86.2
=	0.0	0.0	76.0	86.0
=	0.0	0.0	76.4	85.8
=	0.0	0.0	76.8	85.7
=	0.0	0.0	77.2	85.5
=	0.0	0.0	77.6	85.3
=	0.0	0.0	78.2	85.0
=	0.0	0.0	78.6	84.8
=	0.0	0.0	79.1	84.7
=	0.0	0.0	79.4	84.5
=	0.0	0.0	79.8	84.5
=	0.0	0.0	80.3	84.4
=	0.0	0.0	80.7	84.2
=	0.0	0.0	81.1	84.1
=	0.0	0.0	81.5	84.0
=	0.0	0.0	81.9	83.9
=	0.0	0.0	82.3	83.8
=	0.0	0.0	82.7	83.6
=	0.0	0.0	83.1	83.5
=	0.0	0.0	83.5	83.3
=	0.0	0.0	83.9	83.1
=	0.0	0.0	84.3	83.0
=	0.0	0.0	84.7	82.9
=	0.0	0.0	85.1	82.6
=	0.0	0.0	85.4	82.5
=	0.0	0.0	85.9	82.4
=	0.0	0.0	86.3	82.3
=	0.0	0.0	86.7	82.2
=	0.0	0.0	87.1	82.0
=	0.0	0.0	87.5	81.8
=	0.0	0.0	87.9	81.7
=	0.0	0.0	88.3	81.6
=	0.0	0.0	88.7	81.5
=	0.0	0.0	89.2	81.3
=	0.0	0.0	89.6	81.2
=	0.0	0.0	90.0	81.1
=	0.0	0.0	90.4	80.9
=	0.0	0.0	90.8	80.7
=	0.0	0.0	91.2	80.5
=	0.0	0.0	91.6	80.4
=	0.0	0.0	92.0	80.3
=	0.0	0.0	92.4	80.1
=	0.0	0.0	92.8	79.9
=	0.0	0.0	93.2	79.7
=	0.0	0.0	93.6	79.6
=	0.0	0.0	94.0	79.4
=	0.0	0.0	94.5	79.3
=	0.0	0.0	94.8	79.3
=	0.0	0.0	95.1	79.2
=	0.0	0.0	95.4	79.1
=	0.0	0.0	95.7	79.1
=	0.0	0.0	96.0	79.0
=	0.0	0.0	96.2	78.9
=	0.0	0.0	96.5	78.8
=	0.0	0.0	96.8	78.6
=	0.0	0.0	97.1	78.5
=	0.0	0.0	97.5	78.4
=	0.0	0.0	97.9	78.2
=	0.0	0.0	98.3	78.1
=	0.0	0.0	98.7	78.0
=	0.0	0.0	99.1	77.9
=	0.0	0.0	99.5	77.7
=	0.0	0.0	99.9	77.6
=	0.0	0.0	100.3	77.5
=	0.0	0.0	100.8	77.3
=	0.0	0.0	101.2	77.2
=	0.0	0.0	101.6	77.0
=	0.0	0.0	102.0	76.9
=	0.0	0.0	102.4	76.7
=	0.0	0.0	102.8	76.6
=	0.0	0.0	103.2	76.6
=	0.0	0.0	103.6	76.5
=	0.0	0.0	104.0	76.3
=	0.0	0.0	104.4	76.2
=	0.0	0.0	104.8	76.1
=	0.0	0.0	105.2	76.0
=	0.0	0.0	105.6	75.9
=	0.0	0.0	106.3	75.5
=	0.0	0.0	106.8	75.2
=	0.0	0.0	107.3	75.0
=	0.0	0.0	107.8	74.9
=	0.0	0.0	108.1	74.8
=	0.0	0.0	108.5	74.7
=	0.0	0.0	109.3	74.4
=	0.0	0.0	110.1	74.2
=	0.0	0.0	110.9	74.1
=	0.0	0.0	111.7	73.9
=	0.0	0.0	112.4	73.6
=	0.0	0.0	112.9	73.4
=	0.0	0.0	113.4	73.3
=	0.0	0.0	114.2	73.1
=	0.0	0.0	115.0	72.9
=	0.0	0.0	115.4	72.7
=	0.0	0.0	115.8	72.5
=	0.0	0.0	116.2	72.3
=	0.0	0.0	116.6	72.2
=	0.0	0.0	117.0	72.1
=	0.0	0.0	117.5	72.0
=	0.0	0.0	117.9	71.8
=	0.0	0.0	118.3	71.7
=	0.0	0.0	118.7	71.6
=	0.0	0.0	119.1	71.5
=	0.0	0.0	119.5	71.4
=	0.0	0.0	119.9	71.2
=	0.0	0.0	120.3	71.1
=	0.0	0.0	120.7	71.0
=	0.0	0.0	121.1	70.9
=	0.0	0.0	121.5	70.8
=	0.0	0.0	121.9	70.7
=	0.0	0.0	122.3	70.5
=	0.0	0.0	122.7	70.4
=	0.0	0.0	123.1	70.3
=	0.0	0.0	123.7	70.2
=	0.0	0.0	124.3	69.9
=	0.0	0.0	125.1	69.7
=	0.0	0.0	126.0	69.4
=	0.0	0.0	126.8	69.1
=	0.0	0.0	127.4	68.9
=	0.0	0.0	127.8	68.8
=	0.0	0.0	128.2	68.7
=	0.0	0.0	128.6	68.6
=	0.0	0.0	129.0	68.5
=	0.0	0.0	129.4	68.3
=	0.0	0.0	129.8	68.1
=	0.0	0.0	130.3	68.0
=	0.0	0.0	130.7	67.8
=	0.0	0.0	131.1	67.7
=	0.0	0.0	131.5	67.6
=	0.0	0.0	131.9	67.5
=	0.0	0.0	132.3	67.5
=	0.0	0.0	132.7	67.4
=	0.0	0.0	133.1	67.3
=	0.0	0.0	133.5	67.2
=	0.0	0.0	134.0	67.1
=	0.0	0.0	134.4	67.0
=	0.0	0.0	134.8	66.8
=	0.0	0.0	135.2	66.6
=	0.0	0.0	135.6	66.5
=	0.0	0.0	136.0	66.3
=	0.0	0.0	136.4	66.3
=	0.0	0.0	136.8	66.2
=	0.0	0.0	137.2	66.1
=	0.0	0.0	137.6	66.0
=	0.0	0.0	138.0	65.9
=	0.0	0.0	138.4	65.8
=	0.0	0.0	138.8	65.7
=	0.0	0.0	139.3	65.6
=	0.0	0.0	139.6	65.5
=	0.0	0.0	140.1	65.4
=	0.0	0.0	140.5	65.3
=	0.0	0.0	140.9	65.2
=	0.0	0.0	141.2	65.0
=	0.0	0.0	141.7	64.8
=	0.0	0.0	142.1	64.7
=	0.0	0.0	142.5	64.6
=	0.0	0.0	142.9	64.5
=	0.0	0.0	143.3	64.4
=	0.0	0.0	143.7	64.3
=	0.0	0.0	144.1	64.2
=	0.0	0.0	144.5	64.1
=	0.0	0.0	144.9	64.0
=	0.0	0.0	145.3	64.0
=	0.0	0.0	145.6	63.9
=	0.0	0.0	145.9	63.8
=	0.0	0.0	146.2	63.6
=	0.0	0.0	146.5	63.4
=	0.0	0.0	146.8	63.2
=	0.0	0.0	147.1	63.2
=	0.0	0.0	147.3	63.1
=	0.0	0.0	147.6	63.1
=	0.0	0.0	147.9	63.0
=	0.0	0.0	148.1	63.0
=	0.0	0.0	148.4	62.9
=	0.0	0.0	148.7	62.8
=	0.0	0.0	149.0	62.7
=	0.0	0.0	149.2	62.6
=	0.0	0.0	149.6	62.5
=	0.0	0.0	150.0	62.4
=	0.0	0.0	150.4	62.3
=	0.0	0.0	150.8	62.3
=	0.0	0.0	151.2	62.2
=	0.0	0.0	151.6	62.1
=	0.0	0.0	152.0	62.0
=	0.0	0.0	152.3	61.9
=	0.0	0.0	152.6	61.7
=	0.0	0.0	152.9	61.6
=	0.0	0.0	153.2	61.5
=	0.0	0.0	153.6	61.5
=	0.0	0.0	154.0	61.4
=	0.0	0.0	154.2	61.3
=	0.0	0.0	154.6	61.3
=	0.0	0.0	155.0	61.2
=	0.0	0.0	155.4	61.1
=	0.0	0.0	155.8	61.0
=	0.0	0.0	156.2	60.8
=	0.0	0.0	156.6	60.7
=	0.0	0.0	157.0	60.6
=	0.0	0.0	157.5	60.4
=	0.0	0.0	157.9	60.3
=	0.0	0.0	158.3	60.2
=	0.0	0.0	158.7	60.1
=	0.0	0.0	159.1	60.0
=	0.0	0.0	159.5	59.9
=	0.0	0.0	160.0	59.8
=	0.0	0.0	160.3	59.7
=	0.0	0.0	160.7	59.7
=	0.0	0.0	161.2	59.5
=	0.0	0.0	161.5	59.5
=	0.0	0.0	161.9	59.4
=	0.0	0.0	162.5	59.1
=	0.0	0.0	163.1	59.0
=	0.0	0.0	163.5	59.0
=	0.0	0.0	163.9	58.9
=	0.0	0.0	164.3	58.8
=	0.0	0.0	164.7	58.7
=	0.0	0.0	165.1	58.6
=	0.0	0.0	165.6	58.5
=	0.0	0.0	165.9	58.5
=	0.0	0.0	166.3	58.3
=	0.0	0.0	166.7	58.2
=	0.0	0.0	167.1	58.0
=	0.0	0.0	167.6	57.9
=	0.0	0.0	168.0	57.8
=	0.0	0.0	168.4	57.7
=	0.0	0.0	168.8	57.6
=	0.0	0.0	169.2	57.5
=	0.0	0.0	169.6	57.5
=	0.0	0.0	170.0	57.3
=	0.0	0.0	170.4	57.2
=	0.0	0.0	170.8	57.1
=	0.0	0.0	171.2	57.0
=	0.0	0.0	171.6	56.9
=	0.0	0.0	172.1	56.8
=	0.0	0.0	172.5	56.7
=	0.0	0.0	172.9	56.7
=	0.0	0.0	173.3	56.6
=	0.0	0.0	173.7	56.5
=	0.0	0.0	174.1	56.4
=	0.0	0.0	174.5	56.2
=	0.0	0.0	174.9	56.1
=	0.0	0.0	175.3	56.0
=	0.0	0.0	175.7	55.9
=	0.0	0.0	176.2	55.8
=	0.0	0.0	176.6	55.8
=	0.0	0.0	177.0	55.7
=	0.0	0.0	177.4	55.6
=	0.0	0.0	177.8	55.5
=	0.0	0.0	178.2	55.3
=	0.0	0.0	178.6	55.2
=	0.0	0.0	179.0	55.1
=	0.0	0.0	179.4	55.0
=	0.0	0.0	179.8	55.0
=	0.0	0.0	180.1	54.9
=	0.0	0.0	180.5	54.8
=	0.0	0.0	180.9	54.7
=	0.0	0.0	181.3	54.6
=	0.0	0.0	181.7	54.5
=	0.0	0.0	182.1	54.5
=	0.0	0.0	182.5	54.3
=	0.0	0.0	182.9	54.3
=	0.0	0.0	183.5	54.1
=	0.0	0.0	184.3	54.0
=	0.0	0.0	185.2	53.8
=	0.0	0.0	186.0	53.6
=	0.0	0.0	186.8	53.4
=	0.0	0.0	187.6	53.1
=	0.0	0.0	188.4	53.0
=	0.0	0.0	189.2	52.8
=	0.0	0.0	190.0	52.6
=	0.0	0.0	190.8	52.3
=	0.0	0.0	191.6	52.2
=	0.0	0.0	192.3	52.0
=	0.0	0.0	192.7	52.0
=	0.0	0.0	193.1	51.8
=	0.0	0.0	193.5	51.7
=	0.0	0.0	193.9	51.7
=	0.0	0.0	194.3	51.6
=	0.0	0.0	194.7	51.5
=	0.0	0.0	195.1	51.5
=	0.0	0.0	195.7	51.3
=	0.0	0.0	196.1	51.2
=	0.0	0.0	196.5	51.1
=	0.0	0.0	196.9	51.1
=	0.0	0.0	197.3	51.0
=	0.0	0.0	197.7	50.9
=	0.0	0.0	198.2	50.9
=	0.0	0.0	198.6	50.8
=	0.0	0.0	198.8	50.7
=	0.0	0.0	199.1	50.7
=	0.0	0.0	199.4	50.5
=	0.0	0.0	199.8	50.4
=	0.0	0.0	200.2	50.3
=	0.0	0.0	200.5	50.3
=	0.0	0.0	200.7	50.2
=	0.0	0.0	201.1	50.2
=	0.0	0.0	201.4	50.1
=	0.0	0.0	201.8	50.0
=	0.0	0.0	202.2	49.9
=	0.0	0.0	202.6	49.8
=	0.0	0.0	203.0	49.8
=	0.0	0.0	203.3	49.7
=	0.0	0.0	203.6	49.6
=	0.0	0.0	203.9	49.6
=	0.0	0.0	204.3	49.5
=	0.0	0.0	204.7	49.5
=	0.0	0.0	205.1	49.4
=	0.0	0.0	205.3	49.3
=	0.0	0.0	205.6	49.3
=	0.0	0.0	205.9	49.1
=	0.0	0.0	206.3	49.0
=	0.0	0.0	206.8	49.0
=	0.0	0.0	207.2	48.9
=	0.0	0.0	207.6	48.8
=	0.0	0.0	208.0	48.7
=	0.0	0.0	208.4	48.7
=	0.0	0.0	208.8	48.6
=	0.0	0.0	209.2	48.5
=	0.0	0.0	209.6	48.5
=	0.0	0.0	209.9	48.4
=	0.0	0.0	210.2	48.3
=	0.0	0.0	210.6	48.2
=	0.0	0.0	211.0	48.1
=	0.0	0.0	211.2	48.0
=	0.0	0.0	211.5	48.0
=	0.0	0.0	211.8	47.9
=	0.0	0.0	212.1	47.9
=	0.0	0.0	212.3	47.8
=	0.0	0.0	212.6	47.8
=	0.0	0.0	212.9	47.8
=	0.0	0.0	213.2	47.7
=	0.0	0.0	213.5	47.6
=	0.0	0.0	214.0	47.5
=	0.0	0.0	214.4	47.4
=	0.0	0.0	214.8	47.3
=	0.0	0.0	215.2	47.2
=	0.0	0.0	215.6	47.0
=	0.0	0.0	216.0	47.0
=	0.0	0.0	216.4	46.9
=	0.0	0.0	216.8	46.8
=	0.0	0.0	217.2	46.7
=	0.0	0.0	217.6	46.6
=	0.0	0.0	218.0	46.6
=	0.0	0.0	218.5	46.5
=	0.0	0.0	219.2	46.4
=	0.0	0.0	220.0	46.3
=	0.0	0.0	220.8	46.1
=	0.0	0.0	221.6	45.9
=	0.0	0.0	222.4	45.8
=	0.0	0.0	222.9	45.7
=	0.0	0.0	223.3	45.6
=	0.0	0.0	223.7	45.5
=	0.0	0.0	224.1	45.4
=	0.0	0.0	224.5	45.4
=	0.0	0.0	224.9	45.3
=	0.0	0.0	225.3	45.2
=	0.0	0.0	225.7	45.1
=	0.0	0.0	226.1	45.0
=	0.0	0.0	226.6	44.9
=	0.0	0.0	227.0	44.8
=	0.0	0.0	227.3	44.8
=	0.0	0.0	227.7	44.8
=	0.0	0.0	228.1	44.7
=	0.0	0.0	228.6	44.6
=	0.0	0.0	229.0	44.6
=	0.0	0.0	229.4	44.5
=	0.0	0.0	229.6	44.5
=	0.0	0.0	229.9	44.4
=	0.0	0.0	230.2	44.3
=	0.0	0.0	230.5	44.3
=	0.0	0.0	230.7	44.3
=	0.0	0.0	231.0	44.2
=	0.0	0.0	231.3	44.2
=	0.0	0.0	231.7	44.1
=	0.0	0.0	232.1	44.0
=	0.0	0.0	232.5	43.9
=	0.0	0.0	232.9	43.8
=	0.0	0.0	233.3	43.7
=	0.0	0.0	233.7	43.7
=	0.0	0.0	234.1	43.6
=	0.0	0.0	234.5	43.5
=	0.0	0.0	234.8	43.4
=	0.0	0.0	235.1	43.3
=	0.0	0.0	235.5	43.3
=	0.0	0.0	235.9	43.2
=	0.0	0.0	236.4	43.1
=	0.0	0.0	236.8	43.1
=	0.0	0.0	237.2	43.0
=	0.0	0.0	237.6	42.9
=	0.0	0.0	238.0	42.8
=	0.0	0.0	238.4	42.8
=	0.0	0.0	238.8	42.7
=	0.0	0.0	239.2	42.6
=	0.0	0.0	239.6	42.6
=	0.0	0.0	240.0	42.5
=	0.0	0.0	240.4	42.4
=	0.0	0.0	240.8	42.3
=	0.0	0.0	241.2	42.3
=	0.0	0.0	241.6	42.2
=	0.0	0.0	242.0	42.1
=	0.0	0.0	242.5	42.0
=	0.0	0.0	243.0	41.9
=	0.0	0.0	243.4	41.8
=	0.0	0.0	243.8	41.8
=	0.0	0.0	244.2	41.8
=	0.0	0.0	244.6	41.7
=	0.0	0.0	245.0	41.6
=	0.0	0.0	245.5	41.5
=	0.0	0.0	245.9	41.5
=	0.0	0.0	246.3	41.4
=	0.0	0.0	246.7	41.3
=	0.0	0.0	247.0	41.2
=	0.0	0.0	247.3	41.2
=	0.0	0.0	247.9	41.1
=	0.0	0.0	248.7	41.0
=	0.0	0.0	249.5	40.8
=	0.0	0.0	249.8	40.7
=	0.0	0.0	250.3	40.7
=	0.0	0.0	251.1	40.6
=	0.0	0.0	251.6	40.5
=	0.0	0.0	252.0	40.4
=	0.0	0.0	252.8	40.2
=	0.0	0.0	253.6	40.1
=	0.0	0.0	254.3	40.0
=	0.0	0.0	254.8	39.9
=	0.0	0.0	255.3	39.8
=	0.0	0.0	255.7	39.7
=	0.0	0.0	256.1	39.7
=	0.0	0.0	256.5	39.6
=	0.0	0.0	256.9	39.5
=	0.0	0.0	257.3	39.5
=	0.0	0.0	257.7	39.4
=	0.0	0.0	258.1	39.4
=	0.0	0.0	258.5	39.3
=	0.0	0.0	258.9	39.3
=	0.0	0.0	259.3	39.2
=	0.0	0.0	259.8	39.2
=	0.0	0.0	260.1	39.1
=	0.0	0.0	260.5	39.0
=	0.0	0.0	260.9	38.9
=	0.0	0.0	261.4	38.8
=	0.0	0.0	261.8	38.7
=	0.0	0.0	262.2	38.7
=	0.0	0.0	262.6	38.6
=	0.0	0.0	263.0	38.6
=	0.0	0.0	263.4	38.5
=	0.0	0.0	263.8	38.4
=	0.0	0.0	264.2	38.4
=	0.0	0.0	264.6	38.3
=	0.0	0.0	265.0	38.2
=	0.0	0.0	265.5	38.2
=	0.0	0.0	265.9	38.1
=	0.0	0.0	266.3	38.0
=	0.0	0.0	266.7	38.0
=	0.0	0.0	267.1	37.9
=	0.0	0.0	267.5	37.9
=	0.0	0.0	267.9	37.9
=	0.0	0.0	268.3	37.8
=	0.0	0.0	268.7	37.7
=	0.0	0.0	269.1	37.7
=	0.0	0.0	269.7	37.5
=	0.0	0.0	270.1	37.4
=	0.0	0.0	270.7	37.3
=	0.0	0.0	271.1	37.3
=	0.0	0.0	271.5	37.2
=	0.0	0.0	271.9	37.1
=	0.0	0.0	272.3	37.1
=	0.0	0.0	272.8	37.0
=	0.0	0.0	273.2	37.0
=	0.0	0.0	273.8	36.9
=	0.0	0.0	274.5	36.7
=	0.0	0.0	275.3	36.6
=	0.0	0.0	275.8	36.5
=	0.0	0.0	276.2	36.5
=	0.0	0.0	276.6	36.4
=	0.0	0.0	277.0	36.4
=	0.0	0.0	277.4	36.3
=	0.0	0.0	278.2	36.2
=	0.0	0.0	279.0	36.1
=	0.0	0.0	279.6	36.0
=	0.0	0.0	280.0	35.9
=	0.0	0.0	280.4	35.9
=	0.0	0.0	280.8	35.8
=	0.0	0.0	281.2	35.7
=	0.0	0.0	281.6	35.7
=	0.0	0.0	282.1	35.6
=	0.0	0.0	282.5	35.5
=	0.0	0.0	282.9	35.4
=	0.0	0.0	283.3	35.4
=	0.0	0.0	283.7	35.4
=	0.0	0.0	284.1	35.3
=	0.0	0.0	284.5	35.3
=	0.0	0.0	284.8	35.2
=	0.0	0.0	285.3	35.2
=	0.0	0.0	285.7	35.1
=	0.0	0.0	286.1	35.0
=	0.0	0.0	286.4	34.9
=	0.0	0.0	286.9	34.9
=	0.0	0.0	287.3	34.8
=	0.0	0.0	287.7	34.7
=	0.0	0.0	288.1	34.7
=	0.0	0.0	288.4	34.6
=	0.0	0.0	288.7	34.6
=	0.0	0.0	288.9	34.5
=	0.0	0.0	289.3	34.5
=	0.0	0.0	289.7	34.4
=	0.0	0.0	290.0	34.3
=	0.0	0.0	290.3	34.3
=	0.0	0.0	290.7	34.3
=	0.0	0.0	291.2	34.2
=	0.0	0.0	291.6	34.2
=	0.0	0.0	292.0	34.1
=	0.0	0.0	292.4	34.1
=	0.0	0.0	292.8	34.0
=	0.0	0.0	293.2	33.9
=	0.0	0.0	293.6	33.9
=	0.0	0.0	294.0	33.8
=	0.0	0.0	294.4	33.8
=	0.0	0.0	294.8	33.7
=	0.0	0.0	295.2	33.7
=	0.0	0.0	295.6	33.7
=	0.0	0.0	295.8	33.6
=	0.0	0.0	296.2	33.6
=	0.0	0.0	296.7	33.5
=	0.0	0.0	297.1	33.4
=	0.0	0.0	297.7	33.4
=	0.0	0.0	298.5	33.2
=	0.0	0.0	299.1	33.1
=	0.0	0.0	299.5	33.1
=	0.0	0.0	299.9	33.0
=	0.0	0.0	300.3	33.0
=	0.0	0.0	300.7	32.9
=	0.0	0.0	301.2	32.9
=	0.0	0.0	301.6	32.8
=	0.0	0.0	302.1	32.8
=	0.0	0.0	302.5	32.7
=	0.0	0.0	303.0	32.6
=	0.0	0.0	303.7	32.5
=	0.0	0.0	304.1	32.5
=	0.0	0.0	304.6	32.4
=	0.0	0.0	305.4	32.3
=	0.0	0.0	305.8	32.2
:EOM # End of Measurement
#
# RFA300 ASCII Measurement Dump ( BDS format )
#
# Measurement number 	2
#
%VNR 1.0
%MOD 	RAT
%TYP 	SCN
%SCN 	DPT
%FLD 	ION
%DAT 	09-29-2011
%TIM 	12:00:00
%FSZ 	100	100
%BMT 	PHO	   15.0
%SSD 	1200
%BUP 	0
%BRD 	1200
%FSH 	1
%ASC 	0
%WEG 	15
%GPO 	0
%CPO 	0
%MEA 	5
%PRD 	0,0
%PTS 	694
%STS 	    0.0	  0.0	   0.0 # Start Scan values in mm ( X , Y , Z )
%EDS 	    0.0	   0.0	   305.4 # End Scan values in mm ( X , Y , Z )
#
#	  X      Y      Z     Dose
#
=	0.0	0.0	0.0	30.4
=	0.0	0.0	0.4	31.6
=	0.0	0.0	0.8	33.1
=	0.0	0.0	1.2	35.0
=	0.0	0.0	1.6	37.4
=	0.0	0.0	2.2	41.9
=	0.0	0.0	2.6	45.3
=	0.0	0.0	3.0	48.5
=	0.0	0.0	3.4	51.5
=	0.0	0.0	3.8	54.3
=	0.0	0.0	4.4	58.2
=	0.0	0.0	5.2	62.8
=	0.0	0.0	6.1	66.9
=	0.0	0.0	6.9	70.9
=	0.0	0.0	7.7	73.8
=	0.0	0.0	8.5	76.9
=	0.0	0.0	9.3	79.4
=	0.0	0.0	10.1	82.0
=	0.0	0.0	10.9	84.0
=	0.0	0.0	11.7	85.9
=	0.0	0.0	12.6	87.6
=	0.0	0.0	13.3	89.1
=	0.0	0.0	14.1	90.5
=	0.0	0.0	14.9	91.7
=	0.0	0.0	15.6	92.7
=	0.0	0.0	16.1	93.4
=	0.0	0.0	16.5	93.9
=	0.0	0.0	17.0	94.4
=	0.0	0.0	17.8	95.2
=	0.0	0.0	18.6	95.8
=	0.0	0.0	19.4	96.6
=	0.0	0.0	20.2	97.2
=	0.0	0.0	21.0	97.5
=	0.0	0.0	21.8	98.1
=	0.0	0.0	22.6	98.6
=	0.0	0.0	23.4	98.8
=	0.0	0.0	24.3	99.2
=	0.0	0.0	25.1	99.5
=	0.0	0.0	25.9	99.6
=	0.0	0.0	26.4	99.6
=	0.0	0.0	27.1	99.8
=	0.0	0.0	27.9	99.9
=	0.0	0.0	28.7	99.9
=	0.0	0.0	29.4	100.0
=	0.0	0.0	29.8	100.0
=	0.0	0.0	30.2	100.0
=	0.0	0.0	30.6	100.0
=	0.0	0.0	31.0	100.0
=	0.0	0.0	31.4	100.0
=	0.0	0.0	31.8	100.0
=	0.0	0.0	32.2	100.0
=	0.0	0.0	32.6	99.9
=	0.0	0.0	33.0	99.9
=	0.0	0.0	33.5	99.8
=	0.0	0.0	33.9	99.8
=	0.0	0.0	34.3	99.8
=	0.0	0.0	34.7	99.7
=	0.0	0.0	35.1	99.6
=	0.0	0.0	35.5	99.5
=	0.0	0.0	35.9	99.5
=	0.0	0.0	36.3	99.4
=	0.0	0.0	36.7	99.4
=	0.0	0.0	37.1	99.3
=	0.0	0.0	37.5	99.2
=	0.0	0.0	37.9	99.1
=	0.0	0.0	38.4	99.0
=	0.0	0.0	38.8	99.0
=	0.0	0.0	39.2	98.9
=	0.0	0.0	39.8	98.8
=	0.0	0.0	40.2	98.7
=	0.0	0.0	40.6	98.6
=	0.0	0.0	41.0	98.5
=	0.0	0.0	41.6	98.3
=	0.0	0.0	42.4	97.9
=	0.0	0.0	43.2	97.8
=	0.0	0.0	44.0	97.6
=	0.0	0.0	44.9	97.3
=	0.0	0.0	45.6	96.9
=	0.0	0.0	46.5	96.7
=	0.0	0.0	47.0	96.6
=	0.0	0.0	47.3	96.6
=	0.0	0.0	47.6	96.5
=	0.0	0.0	48.1	96.4
=	0.0	0.0	48.4	96.2
=	0.0	0.0	48.8	96.1
=	0.0	0.0	49.2	96.0
=	0.0	0.0	49.7	95.8
=	0.0	0.0	50.1	95.7
=	0.0	0.0	50.5	95.5
=	0.0	0.0	50.9	95.4
=	0.0	0.0	51.3	95.3
=	0.0	0.0	51.7	95.1
=	0.0	0.0	52.1	95.0
=	0.0	0.0	52.5	94.9
=	0.0	0.0	52.9	94.8
=	0.0	0.0	53.4	94.7
=	0.0	0.0	53.8	94.5
=	0.0	0.0	54.2	94.4
=	0.0	0.0	54.6	94.2
=	0.0	0.0	55.0	94.0
=	0.0	0.0	55.4	93.9
=	0.0	0.0	55.8	93.8
=	0.0	0.0	56.2	93.7
=	0.0	0.0	56.6	93.5
=	0.0	0.0	57.0	93.4
=	0.0	0.0	57.4	93.2
=	0.0	0.0	57.8	93.0
=	0.0	0.0	58.3	92.9
=	0.0	0.0	58.6	92.7
=	0.0	0.0	59.0	92.6
=	0.0	0.0	59.5	92.5
=	0.0	0.0	59.9	92.4
=	0.0	0.0	60.3	92.3
=	0.0	0.0	60.7	92.1
=	0.0	0.0	61.1	92.0
=	0.0	0.0	61.5	91.9
=	0.0	0.0	61.9	91.8
=	0.0	0.0	62.3	91.6
=	0.0	0.0	62.7	91.5
=	0.0	0.0	63.1	91.3
=	0.0	0.0	63.5	91.2
=	0.0	0.0	63.9	91.1
=	0.0	0.0	64.3	91.0
=	0.0	0.0	64.8	90.9
=	0.0	0.0	65.2	90.8
=	0.0	0.0	65.6	90.6
=	0.0	0.0	66.1	90.4
=	0.0	0.0	66.4	90.3
=	0.0	0.0	66.7	90.2
=	0.0	0.0	67.1	90.0
=	0.0	0.0	67.5	89.9
=	0.0	0.0	68.0	89.8
=	0.0	0.0	68.4	89.7
=	0.0	0.0	68.7	89.6
=	0.0	0.0	69.1	89.5
=	0.0	0.0	69.4	89.4
=	0.0	0.0	69.8	89.2
=	0.0	0.0	70.2	89.0
=	0.0	0.0	70.6	88.9
=	0.0	0.0	71.0	88.8
=	0.0	0.0	71.4	88.7
=	0.0	0.0	71.8	88.6
=	0.0	0.0	72.1	88.5
=	0.0	0.0	72.4	88.3
=	0.0	0.0	72.8	88.2
=	0.0	0.0	73.0	88.1
=	0.0	0.0	73.4	88.0
=	0.0	0.0	73.7	87.9
=	0.0	0.0	74.0	87.9
=	0.0	0.0	74.3	87.7
=	0.0	0.0	74.7	87.6
=	0.0	0.0	75.1	87.5
=	0.0	0.0	75.5	87.4
=	0.0	0.0	75.8	87.3
=	0.0	0.0	76.3	87.2
=	0.0	0.0	76.7	87.0
=	0.0	0.0	77.1	86.9
=	0.0	0.0	77.5	86.7
=	0.0	0.0	77.9	86.5
=	0.0	0.0	78.3	86.4
=	0.0	0.0	78.7	86.2
=	0.0	0.0	79.1	86.1
=	0.0	0.0	79.5	86.0
=	0.0	0.0	79.9	85.9
=	0.0	0.0	80.3	85.7
=	0.0	0.0	80.7	85.6
=	0.0	0.0	81.1	85.5
=	0.0	0.0	81.6	85.4
=	0.0	0.0	81.9	85.2
=	0.0	0.0	82.4	85.0
=	0.0	0.0	82.7	85.0
=	0.0	0.0	83.1	84.8
=	0.0	0.0	83.5	84.7
=	0.0	0.0	83.9	84.5
=	0.0	0.0	84.4	84.4
=	0.0	0.0	84.8	84.3
=	0.0	0.0	85.2	84.1
=	0.0	0.0	85.6	84.0
=	0.0	0.0	86.0	83.9
=	0.0	0.0	86.4	83.7
=	0.0	0.0	86.8	83.7
=	0.0	0.0	87.2	83.6
=	0.0	0.0	87.6	83.5
=	0.0	0.0	88.0	83.3
=	0.0	0.0	88.2	83.3
=	0.0	0.0	88.6	83.2
=	0.0	0.0	89.0	83.0
=	0.0	0.0	89.4	83.0
=	0.0	0.0	89.9	82.8
=	0.0	0.0	90.3	82.7
=	0.0	0.0	90.7	82.6
=	0.0	0.0	91.1	82.5
=	0.0	0.0	91.5	82.3
=	0.0	0.0	92.0	82.1
=	0.0	0.0	92.3	82.0
=	0.0	0.0	92.7	81.9
=	0.0	0.0	93.1	81.7
=	0.0	0.0	93.5	81.5
=	0.0	0.0	93.8	81.5
=	0.0	0.0	94.1	81.4
=	0.0	0.0	94.3	81.3
=	0.0	0.0	94.6	81.2
=	0.0	0.0	94.9	81.1
=	0.0	0.0	95.2	81.1
=	0.0	0.0	95.4	81.0
=	0.0	0.0	95.7	81.0
=	0.0	0.0	96.0	80.9
=	0.0	0.0	96.2	80.9
=	0.0	0.0	96.5	80.8
=	0.0	0.0	96.9	80.5
=	0.0	0.0	97.2	80.4
=	0.0	0.0	97.5	80.4
=	0.0	0.0	97.9	80.3
=	0.0	0.0	98.4	80.2
=	0.0	0.0	98.8	80.0
=	0.0	0.0	99.2	79.9
=	0.0	0.0	99.6	79.8
=	0.0	0.0	100.0	79.6
=	0.0	0.0	100.4	79.5
=	0.0	0.0	100.8	79.5
=	0.0	0.0	101.2	79.4
=	0.0	0.0	101.6	79.3
=	0.0	0.0	102.0	79.1
=	0.0	0.0	102.4	79.0
=	0.0	0.0	102.8	78.9
=	0.0	0.0	103.2	78.8
=	0.0	0.0	103.6	78.7
=	0.0	0.0	104.0	78.5
=	0.0	0.0	104.5	78.4
=	0.0	0.0	104.9	78.2
=	0.0	0.0	105.2	78.1
=	0.0	0.0	105.7	78.0
=	0.0	0.0	106.1	77.8
=	0.0	0.0	106.5	77.7
=	0.0	0.0	106.9	77.5
=	0.0	0.0	107.3	77.5
=	0.0	0.0	107.7	77.3
=	0.0	0.0	108.2	77.2
=	0.0	0.0	108.6	77.0
=	0.0	0.0	108.9	77.0
=	0.0	0.0	109.3	76.9
=	0.0	0.0	109.9	76.7
=	0.0	0.0	110.4	76.6
=	0.0	0.0	110.8	76.4
=	0.0	0.0	111.2	76.3
=	0.0	0.0	111.6	76.2
=	0.0	0.0	112.0	76.1
=	0.0	0.0	112.4	76.0
=	0.0	0.0	112.8	75.9
=	0.0	0.0	113.2	75.7
=	0.0	0.0	113.6	75.5
=	0.0	0.0	114.0	75.4
=	0.0	0.0	114.4	75.2
=	0.0	0.0	114.8	75.2
=	0.0	0.0	115.2	75.1
=	0.0	0.0	115.6	75.0
=	0.0	0.0	116.1	74.9
=	0.0	0.0	116.5	74.7
=	0.0	0.0	116.9	74.6
=	0.0	0.0	117.3	74.5
=	0.0	0.0	117.7	74.3
=	0.0	0.0	118.1	74.3
=	0.0	0.0	118.5	74.2
=	0.0	0.0	118.9	74.1
=	0.0	0.0	119.3	74.1
=	0.0	0.0	119.7	74.0
=	0.0	0.0	120.1	73.9
=	0.0	0.0	120.5	73.8
=	0.0	0.0	120.9	73.6
=	0.0	0.0	121.3	73.4
=	0.0	0.0	121.7	73.3
=	0.0	0.0	122.1	73.2
=	0.0	0.0	122.5	73.1
=	0.0	0.0	122.9	72.9
=	0.0	0.0	123.3	72.8
=	0.0	0.0	123.7	72.7
=	0.0	0.0	124.1	72.5
=	0.0	0.0	124.5	72.4
=	0.0	0.0	124.9	72.3
=	0.0	0.0	125.3	72.2
=	0.0	0.0	125.7	72.1
=	0.0	0.0	126.1	72.0
=	0.0	0.0	126.5	71.9
=	0.0	0.0	126.9	71.9
=	0.0	0.0	127.4	71.8
=	0.0	0.0	127.8	71.6
=	0.0	0.0	128.2	71.5
=	0.0	0.0	128.6	71.3
=	0.0	0.0	129.0	71.2
=	0.0	0.0	129.5	71.1
=	0.0	0.0	130.0	71.0
=	0.0	0.0	130.4	70.9
=	0.0	0.0	130.8	70.8
=	0.0	0.0	131.2	70.7
=	0.0	0.0	131.6	70.5
=	0.0	0.0	132.0	70.3
=	0.0	0.0	132.4	70.3
=	0.0	0.0	132.8	70.1
=	0.0	0.0	133.2	70.0
=	0.0	0.0	133.6	69.9
=	0.0	0.0	134.0	69.8
=	0.0	0.0	134.4	69.7
=	0.0	0.0	135.2	69.5
=	0.0	0.0	136.0	69.3
=	0.0	0.0	136.5	69.2
=	0.0	0.0	137.2	69.1
=	0.0	0.0	138.0	68.8
=	0.0	0.0	138.8	68.5
=	0.0	0.0	139.6	68.3
=	0.0	0.0	140.5	68.1
=	0.0	0.0	141.3	67.9
=	0.0	0.0	142.1	67.7
=	0.0	0.0	142.9	67.4
=	0.0	0.0	143.4	67.3
=	0.0	0.0	144.1	67.1
=	0.0	0.0	144.6	67.0
=	0.0	0.0	145.3	66.8
=	0.0	0.0	146.1	66.7
=	0.0	0.0	146.8	66.5
=	0.0	0.0	147.3	66.3
=	0.0	0.0	147.7	66.2
=	0.0	0.0	148.1	66.1
=	0.0	0.0	148.6	66.0
=	0.0	0.0	148.8	65.9
=	0.0	0.0	149.1	65.9
=	0.0	0.0	149.4	65.8
=	0.0	0.0	149.9	65.6
=	0.0	0.0	150.3	65.5
=	0.0	0.0	150.7	65.3
=	0.0	0.0	151.1	65.2
=	0.0	0.0	151.5	65.1
=	0.0	0.0	151.9	65.0
=	0.0	0.0	152.3	65.0
=	0.0	0.0	152.7	64.8
=	0.0	0.0	153.1	64.7
=	0.0	0.0	153.5	64.6
=	0.0	0.0	153.9	64.5
=	0.0	0.0	154.3	64.4
=	0.0	0.0	154.8	64.3
=	0.0	0.0	155.2	64.2
=	0.0	0.0	155.6	64.1
=	0.0	0.0	156.0	64.0
=	0.0	0.0	156.4	63.9
=	0.0	0.0	156.8	63.8
=	0.0	0.0	157.2	63.6
=	0.0	0.0	157.6	63.6
=	0.0	0.0	158.0	63.5
=	0.0	0.0	158.4	63.5
=	0.0	0.0	158.9	63.4
=	0.0	0.0	159.2	63.3
=	0.0	0.0	159.6	63.2
=	0.0	0.0	160.1	63.1
=	0.0	0.0	160.5	62.9
=	0.0	0.0	160.9	62.8
=	0.0	0.0	161.2	62.8
=	0.0	0.0	161.6	62.7
=	0.0	0.0	162.0	62.6
=	0.0	0.0	162.3	62.5
=	0.0	0.0	162.5	62.4
=	0.0	0.0	162.9	62.3
=	0.0	0.0	163.2	62.2
=	0.0	0.0	163.6	62.2
=	0.0	0.0	164.0	62.1
=	0.0	0.0	164.4	62.0
=	0.0	0.0	164.8	61.9
=	0.0	0.0	165.2	61.8
=	0.0	0.0	165.6	61.7
=	0.0	0.0	166.0	61.6
=	0.0	0.0	166.4	61.5
=	0.0	0.0	166.8	61.4
=	0.0	0.0	167.2	61.3
=	0.0	0.0	167.6	61.2
=	0.0	0.0	168.0	61.1
=	0.0	0.0	168.4	61.1
=	0.0	0.0	168.8	61.0
=	0.0	0.0	169.2	60.8
=	0.0	0.0	169.6	60.7
=	0.0	0.0	170.0	60.6
=	0.0	0.0	170.4	60.5
=	0.0	0.0	170.8	60.4
=	0.0	0.0	171.3	60.3
=	0.0	0.0	171.7	60.2
=	0.0	0.0	172.1	60.1
=	0.0	0.0	172.5	60.1
=	0.0	0.0	172.9	60.0
=	0.0	0.0	173.3	59.9
=	0.0	0.0	173.7	59.8
=	0.0	0.0	174.1	59.7
=	0.0	0.0	174.5	59.6
=	0.0	0.0	174.9	59.4
=	0.0	0.0	175.3	59.4
=	0.0	0.0	175.7	59.3
=	0.0	0.0	176.1	59.2
=	0.0	0.0	176.5	59.1
=	0.0	0.0	176.9	59.0
=	0.0	0.0	177.3	58.9
=	0.0	0.0	177.7	58.8
=	0.0	0.0	178.2	58.8
=	0.0	0.0	178.6	58.6
=	0.0	0.0	179.0	58.5
=	0.0	0.0	179.4	58.4
=	0.0	0.0	179.8	58.3
=	0.0	0.0	180.5	58.1
=	0.0	0.0	181.3	58.0
=	0.0	0.0	181.8	57.9
=	0.0	0.0	182.2	57.8
=	0.0	0.0	182.6	57.7
=	0.0	0.0	183.0	57.6
=	0.0	0.0	183.5	57.5
=	0.0	0.0	183.9	57.4
=	0.0	0.0	184.3	57.3
=	0.0	0.0	184.6	57.3
=	0.0	0.0	185.0	57.2
=	0.0	0.0	185.4	57.2
=	0.0	0.0	185.9	57.0
=	0.0	0.0	186.2	56.9
=	0.0	0.0	186.7	56.8
=	0.0	0.0	187.1	56.6
=	0.0	0.0	187.5	56.6
=	0.0	0.0	187.9	56.5
=	0.0	0.0	188.3	56.5
=	0.0	0.0	188.7	56.4
=	0.0	0.0	189.1	56.3
=	0.0	0.0	189.5	56.2
=	0.0	0.0	189.9	56.1
=	0.0	0.0	190.3	56.0
=	0.0	0.0	190.7	55.8
=	0.0	0.0	191.0	55.8
=	0.0	0.0	191.3	55.7
=	0.0	0.0	191.5	55.7
=	0.0	0.0	191.8	55.6
=	0.0	0.0	192.1	55.5
=	0.0	0.0	192.5	55.5
=	0.0	0.0	192.8	55.4
=	0.0	0.0	193.0	55.4
=	0.0	0.0	193.3	55.3
=	0.0	0.0	193.6	55.2
=	0.0	0.0	194.0	55.1
=	0.0	0.0	194.5	55.0
=	0.0	0.0	194.9	55.0
=	0.0	0.0	195.3	54.9
=	0.0	0.0	195.7	54.7
=	0.0	0.0	196.1	54.7
=	0.0	0.0	196.5	54.6
=	0.0	0.0	196.9	54.5
=	0.0	0.0	197.3	54.4
=	0.0	0.0	197.7	54.3
=	0.0	0.0	198.1	54.2
=	0.0	0.0	198.5	54.1
=	0.0	0.0	198.9	54.1
=	0.0	0.0	199.4	54.0
=	0.0	0.0	199.8	53.9
=	0.0	0.0	200.2	53.8
=	0.0	0.0	200.6	53.7
=	0.0	0.0	201.0	53.6
=	0.0	0.0	201.4	53.5
=	0.0	0.0	201.8	53.4
=	0.0	0.0	202.2	53.4
=	0.0	0.0	202.6	53.3
=	0.0	0.0	203.0	53.2
=	0.0	0.0	203.4	53.1
=	0.0	0.0	203.8	53.0
=	0.0	0.0	204.2	52.9
=	0.0	0.0	204.6	52.9
=	0.0	0.0	205.0	52.8
=	0.0	0.0	205.5	52.8
=	0.0	0.0	205.8	52.7
=	0.0	0.0	206.3	52.6
=	0.0	0.0	206.7	52.5
=	0.0	0.0	207.1	52.5
=	0.0	0.0	207.5	52.4
=	0.0	0.0	207.9	52.3
=	0.0	0.0	208.3	52.2
=	0.0	0.0	208.7	52.1
=	0.0	0.0	209.1	52.0
=	0.0	0.0	209.5	51.9
=	0.0	0.0	209.9	51.9
=	0.0	0.0	210.3	51.8
=	0.0	0.0	210.7	51.6
=	0.0	0.0	211.1	51.5
=	0.0	0.0	211.5	51.5
=	0.0	0.0	211.9	51.4
=	0.0	0.0	212.3	51.3
=	0.0	0.0	212.7	51.3
=	0.0	0.0	213.1	51.2
=	0.0	0.0	213.5	51.1
=	0.0	0.0	213.9	51.1
=	0.0	0.0	214.3	50.9
=	0.0	0.0	214.7	50.9
=	0.0	0.0	215.1	50.8
=	0.0	0.0	215.5	50.7
=	0.0	0.0	215.9	50.6
=	0.0	0.0	216.3	50.5
=	0.0	0.0	216.7	50.4
=	0.0	0.0	217.1	50.4
=	0.0	0.0	217.5	50.3
=	0.0	0.0	218.0	50.2
=	0.0	0.0	218.4	50.1
=	0.0	0.0	218.8	50.0
=	0.0	0.0	219.2	49.9
=	0.0	0.0	219.9	49.8
=	0.0	0.0	220.7	49.6
=	0.0	0.0	221.2	49.5
=	0.0	0.0	222.0	49.4
=	0.0	0.0	222.8	49.2
=	0.0	0.0	223.6	49.0
=	0.0	0.0	224.0	48.9
=	0.0	0.0	224.4	48.9
=	0.0	0.0	224.8	48.8
=	0.0	0.0	225.2	48.7
=	0.0	0.0	225.6	48.7
=	0.0	0.0	226.0	48.6
=	0.0	0.0	226.8	48.5
=	0.0	0.0	227.3	48.4
=	0.0	0.0	227.7	48.3
=	0.0	0.0	228.1	48.2
=	0.0	0.0	228.5	48.1
=	0.0	0.0	228.9	48.1
=	0.0	0.0	229.1	48.0
=	0.0	0.0	229.4	48.0
=	0.0	0.0	229.7	47.9
=	0.0	0.0	230.0	47.9
=	0.0	0.0	230.3	47.8
=	0.0	0.0	230.8	47.7
=	0.0	0.0	231.2	47.6
=	0.0	0.0	231.6	47.5
=	0.0	0.0	232.0	47.4
=	0.0	0.0	232.4	47.3
=	0.0	0.0	232.8	47.3
=	0.0	0.0	233.1	47.2
=	0.0	0.0	233.4	47.1
=	0.0	0.0	233.8	47.0
=	0.0	0.0	234.2	47.0
=	0.0	0.0	234.7	46.9
=	0.0	0.0	235.1	46.9
=	0.0	0.0	235.5	46.8
=	0.0	0.0	235.9	46.8
=	0.0	0.0	236.3	46.7
=	0.0	0.0	236.7	46.5
=	0.0	0.0	237.1	46.5
=	0.0	0.0	237.5	46.4
=	0.0	0.0	237.9	46.3
=	0.0	0.0	238.5	46.2
=	0.0	0.0	238.9	46.1
=	0.0	0.0	239.1	46.1
=	0.0	0.0	239.4	46.0
=	0.0	0.0	239.7	46.0
=	0.0	0.0	240.0	46.0
=	0.0	0.0	240.2	46.0
=	0.0	0.0	240.7	45.8
=	0.0	0.0	241.0	45.7
=	0.0	0.0	241.5	45.6
=	0.0	0.0	241.9	45.6
=	0.0	0.0	242.3	45.5
=	0.0	0.0	242.7	45.5
=	0.0	0.0	243.1	45.4
=	0.0	0.0	243.5	45.3
=	0.0	0.0	243.9	45.2
=	0.0	0.0	244.7	45.1
=	0.0	0.0	245.2	45.0
=	0.0	0.0	245.9	44.9
=	0.0	0.0	246.7	44.8
=	0.0	0.0	247.2	44.7
=	0.0	0.0	247.6	44.6
=	0.0	0.0	248.3	44.5
=	0.0	0.0	249.2	44.3
=	0.0	0.0	249.6	44.2
=	0.0	0.0	250.1	44.2
=	0.0	0.0	250.4	44.2
=	0.0	0.0	251.1	44.0
=	0.0	0.0	251.6	44.0
=	0.0	0.0	252.4	43.8
=	0.0	0.0	253.2	43.6
=	0.0	0.0	254.0	43.5
=	0.0	0.0	254.8	43.3
=	0.0	0.0	255.2	43.2
=	0.0	0.0	255.7	43.2
=	0.0	0.0	256.1	43.1
=	0.0	0.0	256.5	43.1
=	0.0	0.0	256.9	43.0
=	0.0	0.0	257.3	42.9
=	0.0	0.0	257.7	42.9
=	0.0	0.0	258.1	42.8
=	0.0	0.0	258.5	42.8
=	0.0	0.0	258.9	42.7
=	0.0	0.0	259.3	42.7
=	0.0	0.0	259.7	42.6
=	0.0	0.0	260.1	42.5
=	0.0	0.0	260.5	42.4
=	0.0	0.0	260.9	42.4
=	0.0	0.0	261.3	42.3
=	0.0	0.0	261.7	42.2
=	0.0	0.0	262.2	42.1
=	0.0	0.0	262.6	42.1
=	0.0	0.0	263.0	42.1
=	0.0	0.0	263.4	41.9
=	0.0	0.0	263.8	41.9
=	0.0	0.0	264.2	41.8
=	0.0	0.0	264.6	41.7
=	0.0	0.0	265.0	41.7
=	0.0	0.0	265.4	41.6
=	0.0	0.0	265.8	41.6
=	0.0	0.0	266.2	41.5
=	0.0	0.0	266.6	41.4
=	0.0	0.0	267.0	41.4
=	0.0	0.0	267.4	41.3
=	0.0	0.0	267.9	41.2
=	0.0	0.0	268.4	41.1
=	0.0	0.0	269.2	40.9
=	0.0	0.0	270.0	40.9
=	0.0	0.0	270.7	40.7
=	0.0	0.0	271.1	40.6
=	0.0	0.0	271.7	40.6
=	0.0	0.0	272.1	40.5
=	0.0	0.0	272.7	40.4
=	0.0	0.0	273.1	40.3
=	0.0	0.0	273.5	40.2
=	0.0	0.0	273.9	40.2
=	0.0	0.0	274.3	40.1
=	0.0	0.0	274.6	40.0
=	0.0	0.0	275.0	40.0
=	0.0	0.0	275.4	40.0
=	0.0	0.0	275.8	39.9
=	0.0	0.0	276.3	39.8
=	0.0	0.0	276.6	39.7
=	0.0	0.0	277.0	39.6
=	0.0	0.0	277.4	39.6
=	0.0	0.0	277.8	39.5
=	0.0	0.0	278.3	39.5
=	0.0	0.0	278.7	39.4
=	0.0	0.0	279.1	39.3
=	0.0	0.0	279.5	39.3
=	0.0	0.0	279.7	39.3
=	0.0	0.0	280.0	39.2
=	0.0	0.0	280.3	39.2
=	0.0	0.0	280.5	39.2
=	0.0	0.0	280.9	39.2
=	0.0	0.0	281.4	39.1
=	0.0	0.0	281.8	39.0
=	0.0	0.0	282.2	38.9
=	0.0	0.0	282.6	38.8
=	0.0	0.0	283.0	38.8
=	0.0	0.0	283.4	38.7
=	0.0	0.0	283.8	38.7
=	0.0	0.0	284.2	38.6
=	0.0	0.0	284.6	38.6
=	0.0	0.0	285.0	38.5
=	0.0	0.0	285.4	38.5
=	0.0	0.0	285.9	38.4
=	0.0	0.0	286.3	38.3
=	0.0	0.0	286.6	38.2
=	0.0	0.0	287.0	38.2
=	0.0	0.0	287.4	38.1
=	0.0	0.0	287.9	38.1
=	0.0	0.0	288.3	38.0
=	0.0	0.0	288.7	38.0
=	0.0	0.0	289.1	37.9
=	0.0	0.0	289.3	37.9
=	0.0	0.0	289.6	37.8
=	0.0	0.0	289.9	37.8
=	0.0	0.0	290.1	37.7
=	0.0	0.0	290.4	37.7
=	0.0	0.0	290.7	37.7
=	0.0	0.0	290.9	37.7
=	0.0	0.0	291.4	37.6
=	0.0	0.0	291.8	37.5
