:MSR 	5	 # No. of measurement in file
:SYS BDS 0   # Beam Data Scanner System
#
# RFA300 ASCII Measurement Dump ( BDS format )
#
# Measurement number 	1
#
%VNR 1.0
%MOD 	RAT
%TYP 	SCN
%SCN 	PRO
%FLD 	ION
%DAT 	10-14-2011
%TIM 	12:00:00
%FSZ 	400	200
%BMT 	PHO	   6.0
%SSD 	1000
%BUP 	0
%BRD 	1000
%FSH 	1
%ASC 	0
%WEG 	45
%GPO 	0
%CPO 	0
%MEA 	6
%PRD 	15,0
%PTS 	831
%STS 	    0.0	  -252.7	   15.0 # Start Scan values in mm ( X , Y , Z )
%EDS 	    0.0	   252.5	   15.0 # End Scan values in mm ( X , Y , Z )
#
#	  X      Y      Z     Dose
#
=	0.0	-252.7	15.0	7.5
=	0.0	-251.9	15.0	7.6
=	0.0	-251.4	15.0	7.6
=	0.0	-250.7	15.0	7.7
=	0.0	-250.2	15.0	7.7
=	0.0	-249.5	15.0	7.7
=	0.0	-248.7	15.0	7.8
=	0.0	-248.0	15.0	7.8
=	0.0	-247.5	15.0	7.8
=	0.0	-246.9	15.0	7.9
=	0.0	-246.2	15.0	7.9
=	0.0	-245.5	15.0	8.0
=	0.0	-244.8	15.0	8.0
=	0.0	-244.3	15.0	8.1
=	0.0	-243.8	15.0	8.1
=	0.0	-243.1	15.0	8.1
=	0.0	-242.4	15.0	8.2
=	0.0	-241.8	15.0	8.2
=	0.0	-241.1	15.0	8.3
=	0.0	-240.5	15.0	8.3
=	0.0	-239.9	15.0	8.3
=	0.0	-239.3	15.0	8.4
=	0.0	-238.8	15.0	8.4
=	0.0	-238.1	15.0	8.4
=	0.0	-237.4	15.0	8.5
=	0.0	-236.7	15.0	8.5
=	0.0	-236.1	15.0	8.6
=	0.0	-235.5	15.0	8.6
=	0.0	-235.0	15.0	8.6
=	0.0	-234.4	15.0	8.7
=	0.0	-233.7	15.0	8.7
=	0.0	-233.2	15.0	8.7
=	0.0	-232.5	15.0	8.8
=	0.0	-231.9	15.0	8.8
=	0.0	-231.2	15.0	8.9
=	0.0	-230.6	15.0	9.0
=	0.0	-230.1	15.0	9.0
=	0.0	-229.4	15.0	9.1
=	0.0	-228.7	15.0	9.2
=	0.0	-228.2	15.0	9.3
=	0.0	-227.6	15.0	9.3
=	0.0	-227.0	15.0	9.4
=	0.0	-226.4	15.0	9.5
=	0.0	-225.8	15.0	9.5
=	0.0	-225.1	15.0	9.6
=	0.0	-224.5	15.0	9.7
=	0.0	-223.7	15.0	9.8
=	0.0	-223.0	15.0	9.9
=	0.0	-222.3	15.0	10.0
=	0.0	-221.7	15.0	10.1
=	0.0	-221.1	15.0	10.2
=	0.0	-220.5	15.0	10.2
=	0.0	-219.9	15.0	10.3
=	0.0	-219.4	15.0	10.4
=	0.0	-218.8	15.0	10.5
=	0.0	-218.0	15.0	10.6
=	0.0	-217.2	15.0	10.8
=	0.0	-216.6	15.0	10.9
=	0.0	-216.1	15.0	11.0
=	0.0	-215.5	15.0	11.1
=	0.0	-214.9	15.0	11.2
=	0.0	-214.3	15.0	11.4
=	0.0	-213.8	15.0	11.6
=	0.0	-213.3	15.0	11.8
=	0.0	-212.6	15.0	11.9
=	0.0	-212.0	15.0	12.2
=	0.0	-211.4	15.0	12.5
=	0.0	-210.8	15.0	13.0
=	0.0	-210.3	15.0	13.4
=	0.0	-209.6	15.0	14.3
=	0.0	-209.0	15.0	15.2
=	0.0	-208.2	15.0	16.9
=	0.0	-207.6	15.0	18.9
=	0.0	-206.9	15.0	21.7
=	0.0	-206.3	15.0	24.8
=	0.0	-205.7	15.0	28.3
=	0.0	-205.0	15.0	33.1
=	0.0	-204.3	15.0	38.1
=	0.0	-203.7	15.0	43.3
=	0.0	-203.0	15.0	49.8
=	0.0	-202.3	15.0	55.9
=	0.0	-201.7	15.0	60.9
=	0.0	-201.2	15.0	65.7
=	0.0	-200.6	15.0	70.4
=	0.0	-200.1	15.0	74.2
=	0.0	-199.5	15.0	77.9
=	0.0	-198.9	15.0	81.3
=	0.0	-198.1	15.0	84.4
=	0.0	-197.5	15.0	86.3
=	0.0	-196.8	15.0	87.5
=	0.0	-196.2	15.0	88.5
=	0.0	-195.6	15.0	89.2
=	0.0	-194.8	15.0	90.0
=	0.0	-194.0	15.0	90.5
=	0.0	-193.5	15.0	90.9
=	0.0	-192.9	15.0	91.1
=	0.0	-192.1	15.0	91.3
=	0.0	-191.4	15.0	91.5
=	0.0	-190.8	15.0	91.7
=	0.0	-190.2	15.0	91.9
=	0.0	-189.5	15.0	92.1
=	0.0	-188.9	15.0	92.1
=	0.0	-188.4	15.0	92.2
=	0.0	-187.9	15.0	92.3
=	0.0	-187.4	15.0	92.4
=	0.0	-186.8	15.0	92.4
=	0.0	-186.2	15.0	92.6
=	0.0	-185.6	15.0	92.7
=	0.0	-185.0	15.0	92.8
=	0.0	-184.4	15.0	92.8
=	0.0	-183.7	15.0	92.9
=	0.0	-183.1	15.0	93.0
=	0.0	-182.6	15.0	93.1
=	0.0	-181.9	15.0	93.2
=	0.0	-181.4	15.0	93.2
=	0.0	-180.7	15.0	93.3
=	0.0	-179.9	15.0	93.3
=	0.0	-179.2	15.0	93.4
=	0.0	-178.6	15.0	93.5
=	0.0	-178.0	15.0	93.5
=	0.0	-177.4	15.0	93.7
=	0.0	-176.8	15.0	93.7
=	0.0	-176.3	15.0	93.8
=	0.0	-175.6	15.0	93.8
=	0.0	-175.0	15.0	93.9
=	0.0	-174.2	15.0	93.9
=	0.0	-173.5	15.0	94.0
=	0.0	-172.9	15.0	94.1
=	0.0	-172.3	15.0	94.1
=	0.0	-171.6	15.0	94.2
=	0.0	-171.0	15.0	94.3
=	0.0	-170.5	15.0	94.3
=	0.0	-169.9	15.0	94.4
=	0.0	-169.3	15.0	94.4
=	0.0	-168.7	15.0	94.5
=	0.0	-168.1	15.0	94.6
=	0.0	-167.5	15.0	94.7
=	0.0	-167.0	15.0	94.7
=	0.0	-166.3	15.0	94.8
=	0.0	-165.6	15.0	94.9
=	0.0	-165.0	15.0	94.9
=	0.0	-164.3	15.0	95.0
=	0.0	-163.7	15.0	95.1
=	0.0	-163.1	15.0	95.2
=	0.0	-162.5	15.0	95.2
=	0.0	-161.9	15.0	95.3
=	0.0	-161.2	15.0	95.3
=	0.0	-160.5	15.0	95.3
=	0.0	-159.9	15.0	95.4
=	0.0	-159.4	15.0	95.4
=	0.0	-158.9	15.0	95.5
=	0.0	-158.1	15.0	95.5
=	0.0	-157.5	15.0	95.6
=	0.0	-156.9	15.0	95.6
=	0.0	-156.3	15.0	95.7
=	0.0	-155.7	15.0	95.8
=	0.0	-155.2	15.0	95.8
=	0.0	-154.5	15.0	95.9
=	0.0	-153.8	15.0	95.9
=	0.0	-153.2	15.0	95.9
=	0.0	-152.6	15.0	96.0
=	0.0	-152.0	15.0	96.0
=	0.0	-151.4	15.0	96.1
=	0.0	-150.8	15.0	96.2
=	0.0	-150.2	15.0	96.2
=	0.0	-149.5	15.0	96.3
=	0.0	-148.9	15.0	96.3
=	0.0	-148.3	15.0	96.3
=	0.0	-147.6	15.0	96.3
=	0.0	-147.0	15.0	96.3
=	0.0	-146.5	15.0	96.4
=	0.0	-145.9	15.0	96.4
=	0.0	-145.3	15.0	96.5
=	0.0	-144.7	15.0	96.5
=	0.0	-143.9	15.0	96.6
=	0.0	-143.3	15.0	96.6
=	0.0	-142.8	15.0	96.6
=	0.0	-142.2	15.0	96.7
=	0.0	-141.7	15.0	96.8
=	0.0	-141.2	15.0	96.8
=	0.0	-140.6	15.0	96.8
=	0.0	-140.0	15.0	96.8
=	0.0	-139.3	15.0	96.9
=	0.0	-138.7	15.0	96.9
=	0.0	-138.1	15.0	97.0
=	0.0	-137.5	15.0	97.0
=	0.0	-137.0	15.0	97.0
=	0.0	-136.3	15.0	97.0
=	0.0	-135.7	15.0	97.1
=	0.0	-135.1	15.0	97.1
=	0.0	-134.5	15.0	97.2
=	0.0	-133.9	15.0	97.2
=	0.0	-133.2	15.0	97.2
=	0.0	-132.6	15.0	97.3
=	0.0	-132.1	15.0	97.3
=	0.0	-131.6	15.0	97.4
=	0.0	-131.0	15.0	97.4
=	0.0	-130.4	15.0	97.4
=	0.0	-129.8	15.0	97.4
=	0.0	-129.3	15.0	97.5
=	0.0	-128.6	15.0	97.5
=	0.0	-127.9	15.0	97.6
=	0.0	-127.4	15.0	97.6
=	0.0	-126.9	15.0	97.6
=	0.0	-126.2	15.0	97.7
=	0.0	-125.7	15.0	97.7
=	0.0	-125.2	15.0	97.8
=	0.0	-124.6	15.0	97.8
=	0.0	-123.9	15.0	97.9
=	0.0	-123.2	15.0	97.9
=	0.0	-122.6	15.0	97.9
=	0.0	-121.9	15.0	97.9
=	0.0	-121.2	15.0	97.9
=	0.0	-120.6	15.0	98.0
=	0.0	-119.9	15.0	98.1
=	0.0	-119.3	15.0	98.1
=	0.0	-118.8	15.0	98.1
=	0.0	-118.1	15.0	98.2
=	0.0	-117.3	15.0	98.2
=	0.0	-116.5	15.0	98.3
=	0.0	-116.0	15.0	98.4
=	0.0	-115.3	15.0	98.4
=	0.0	-114.7	15.0	98.5
=	0.0	-114.2	15.0	98.5
=	0.0	-113.7	15.0	98.5
=	0.0	-113.1	15.0	98.6
=	0.0	-112.4	15.0	98.6
=	0.0	-111.9	15.0	98.6
=	0.0	-111.3	15.0	98.7
=	0.0	-110.5	15.0	98.7
=	0.0	-109.9	15.0	98.8
=	0.0	-109.3	15.0	98.8
=	0.0	-108.7	15.0	98.8
=	0.0	-108.2	15.0	98.8
=	0.0	-107.6	15.0	98.9
=	0.0	-106.9	15.0	98.9
=	0.0	-106.4	15.0	98.9
=	0.0	-105.7	15.0	98.9
=	0.0	-105.2	15.0	98.9
=	0.0	-104.5	15.0	99.0
=	0.0	-104.0	15.0	99.0
=	0.0	-103.4	15.0	99.0
=	0.0	-102.8	15.0	99.1
=	0.0	-102.2	15.0	99.1
=	0.0	-101.5	15.0	99.1
=	0.0	-100.9	15.0	99.1
=	0.0	-100.2	15.0	99.2
=	0.0	-99.6	15.0	99.2
=	0.0	-98.9	15.0	99.2
=	0.0	-98.3	15.0	99.2
=	0.0	-97.5	15.0	99.3
=	0.0	-96.9	15.0	99.3
=	0.0	-96.2	15.0	99.3
=	0.0	-95.6	15.0	99.3
=	0.0	-95.0	15.0	99.3
=	0.0	-94.3	15.0	99.4
=	0.0	-93.8	15.0	99.4
=	0.0	-93.1	15.0	99.4
=	0.0	-92.6	15.0	99.5
=	0.0	-92.0	15.0	99.5
=	0.0	-91.5	15.0	99.6
=	0.0	-90.9	15.0	99.6
=	0.0	-90.4	15.0	99.6
=	0.0	-89.8	15.0	99.7
=	0.0	-89.2	15.0	99.7
=	0.0	-88.7	15.0	99.8
=	0.0	-88.2	15.0	99.8
=	0.0	-87.6	15.0	99.8
=	0.0	-86.9	15.0	99.8
=	0.0	-86.3	15.0	99.9
=	0.0	-85.7	15.0	99.9
=	0.0	-85.0	15.0	99.9
=	0.0	-84.4	15.0	99.9
=	0.0	-83.9	15.0	99.9
=	0.0	-83.4	15.0	100.0
=	0.0	-82.9	15.0	100.0
=	0.0	-82.3	15.0	100.0
=	0.0	-81.7	15.0	100.0
=	0.0	-80.9	15.0	100.0
=	0.0	-80.4	15.0	100.1
=	0.0	-79.8	15.0	100.1
=	0.0	-79.3	15.0	100.2
=	0.0	-78.7	15.0	100.2
=	0.0	-78.1	15.0	100.2
=	0.0	-77.6	15.0	100.2
=	0.0	-77.1	15.0	100.2
=	0.0	-76.5	15.0	100.2
=	0.0	-75.9	15.0	100.2
=	0.0	-75.4	15.0	100.2
=	0.0	-74.8	15.0	100.3
=	0.0	-74.3	15.0	100.3
=	0.0	-73.7	15.0	100.3
=	0.0	-73.3	15.0	100.3
=	0.0	-72.7	15.0	100.3
=	0.0	-72.1	15.0	100.3
=	0.0	-71.6	15.0	100.3
=	0.0	-70.9	15.0	100.3
=	0.0	-70.3	15.0	100.3
=	0.0	-69.6	15.0	100.4
=	0.0	-69.0	15.0	100.4
=	0.0	-68.3	15.0	100.4
=	0.0	-67.6	15.0	100.4
=	0.0	-66.9	15.0	100.4
=	0.0	-66.2	15.0	100.5
=	0.0	-65.6	15.0	100.5
=	0.0	-65.2	15.0	100.5
=	0.0	-64.6	15.0	100.5
=	0.0	-64.1	15.0	100.5
=	0.0	-63.6	15.0	100.6
=	0.0	-63.0	15.0	100.6
=	0.0	-62.4	15.0	100.6
=	0.0	-61.8	15.0	100.6
=	0.0	-61.0	15.0	100.7
=	0.0	-60.4	15.0	100.7
=	0.0	-59.8	15.0	100.7
=	0.0	-59.2	15.0	100.7
=	0.0	-58.6	15.0	100.7
=	0.0	-58.0	15.0	100.7
=	0.0	-57.4	15.0	100.7
=	0.0	-56.9	15.0	100.7
=	0.0	-56.4	15.0	100.7
=	0.0	-55.7	15.0	100.7
=	0.0	-55.1	15.0	100.7
=	0.0	-54.5	15.0	100.8
=	0.0	-53.8	15.0	100.8
=	0.0	-53.1	15.0	100.8
=	0.0	-52.6	15.0	100.9
=	0.0	-51.8	15.0	100.9
=	0.0	-51.1	15.0	100.9
=	0.0	-50.6	15.0	100.9
=	0.0	-50.0	15.0	100.9
=	0.0	-49.4	15.0	100.8
=	0.0	-48.8	15.0	100.8
=	0.0	-48.3	15.0	100.8
=	0.0	-47.8	15.0	100.8
=	0.0	-47.3	15.0	100.8
=	0.0	-46.7	15.0	100.7
=	0.0	-46.2	15.0	100.7
=	0.0	-45.5	15.0	100.7
=	0.0	-44.8	15.0	100.7
=	0.0	-44.3	15.0	100.7
=	0.0	-43.8	15.0	100.7
=	0.0	-43.1	15.0	100.7
=	0.0	-42.4	15.0	100.6
=	0.0	-41.9	15.0	100.6
=	0.0	-41.3	15.0	100.6
=	0.0	-40.6	15.0	100.5
=	0.0	-39.9	15.0	100.5
=	0.0	-39.4	15.0	100.5
=	0.0	-39.0	15.0	100.5
=	0.0	-38.5	15.0	100.5
=	0.0	-37.9	15.0	100.5
=	0.0	-37.3	15.0	100.5
=	0.0	-36.8	15.0	100.5
=	0.0	-36.2	15.0	100.4
=	0.0	-35.6	15.0	100.4
=	0.0	-34.9	15.0	100.4
=	0.0	-34.3	15.0	100.4
=	0.0	-33.8	15.0	100.4
=	0.0	-33.2	15.0	100.4
=	0.0	-32.6	15.0	100.5
=	0.0	-32.0	15.0	100.5
=	0.0	-31.5	15.0	100.5
=	0.0	-30.8	15.0	100.5
=	0.0	-30.3	15.0	100.5
=	0.0	-29.9	15.0	100.5
=	0.0	-29.4	15.0	100.5
=	0.0	-28.9	15.0	100.5
=	0.0	-28.2	15.0	100.5
=	0.0	-27.6	15.0	100.5
=	0.0	-27.0	15.0	100.4
=	0.0	-26.5	15.0	100.4
=	0.0	-25.9	15.0	100.4
=	0.0	-25.3	15.0	100.4
=	0.0	-24.7	15.0	100.5
=	0.0	-24.1	15.0	100.4
=	0.0	-23.5	15.0	100.5
=	0.0	-22.9	15.0	100.5
=	0.0	-22.2	15.0	100.5
=	0.0	-21.8	15.0	100.5
=	0.0	-21.2	15.0	100.5
=	0.0	-20.6	15.0	100.5
=	0.0	-20.0	15.0	100.5
=	0.0	-19.2	15.0	100.4
=	0.0	-18.7	15.0	100.4
=	0.0	-18.1	15.0	100.4
=	0.0	-17.4	15.0	100.4
=	0.0	-16.8	15.0	100.4
=	0.0	-16.1	15.0	100.4
=	0.0	-15.5	15.0	100.4
=	0.0	-14.9	15.0	100.4
=	0.0	-14.4	15.0	100.4
=	0.0	-13.9	15.0	100.3
=	0.0	-13.4	15.0	100.3
=	0.0	-12.8	15.0	100.3
=	0.0	-12.1	15.0	100.3
=	0.0	-11.5	15.0	100.3
=	0.0	-10.7	15.0	100.3
=	0.0	-10.1	15.0	100.3
=	0.0	-9.5	15.0	100.2
=	0.0	-8.8	15.0	100.2
=	0.0	-8.2	15.0	100.2
=	0.0	-7.7	15.0	100.1
=	0.0	-7.1	15.0	100.1
=	0.0	-6.6	15.0	100.1
=	0.0	-6.0	15.0	100.1
=	0.0	-5.4	15.0	100.0
=	0.0	-4.8	15.0	100.0
=	0.0	-4.2	15.0	100.0
=	0.0	-3.6	15.0	100.0
=	0.0	-3.0	15.0	100.0
=	0.0	-2.4	15.0	100.0
=	0.0	-1.8	15.0	100.0
=	0.0	-1.1	15.0	100.0
=	0.0	-0.6	15.0	100.0
=	0.0	-0.1	15.0	100.0
=	0.0	0.5	15.0	100.0
=	0.0	1.0	15.0	100.0
=	0.0	1.7	15.0	100.0
=	0.0	2.2	15.0	100.0
=	0.0	2.9	15.0	100.0
=	0.0	3.5	15.0	100.0
=	0.0	4.0	15.0	100.0
=	0.0	4.6	15.0	100.0
=	0.0	5.3	15.0	100.0
=	0.0	5.8	15.0	100.0
=	0.0	6.4	15.0	100.1
=	0.0	7.0	15.0	100.1
=	0.0	7.6	15.0	100.1
=	0.0	8.1	15.0	100.2
=	0.0	8.7	15.0	100.2
=	0.0	9.3	15.0	100.2
=	0.0	9.9	15.0	100.3
=	0.0	10.5	15.0	100.3
=	0.0	11.3	15.0	100.3
=	0.0	11.9	15.0	100.3
=	0.0	12.7	15.0	100.3
=	0.0	13.2	15.0	100.3
=	0.0	13.8	15.0	100.3
=	0.0	14.3	15.0	100.3
=	0.0	14.8	15.0	100.4
=	0.0	15.4	15.0	100.4
=	0.0	16.0	15.0	100.4
=	0.0	16.6	15.0	100.4
=	0.0	17.3	15.0	100.4
=	0.0	17.9	15.0	100.4
=	0.0	18.5	15.0	100.4
=	0.0	19.1	15.0	100.5
=	0.0	19.8	15.0	100.5
=	0.0	20.5	15.0	100.5
=	0.0	21.0	15.0	100.5
=	0.0	21.7	15.0	100.5
=	0.0	22.1	15.0	100.5
=	0.0	22.8	15.0	100.5
=	0.0	23.3	15.0	100.5
=	0.0	23.9	15.0	100.4
=	0.0	24.5	15.0	100.5
=	0.0	25.2	15.0	100.4
=	0.0	25.7	15.0	100.4
=	0.0	26.4	15.0	100.4
=	0.0	26.9	15.0	100.4
=	0.0	27.5	15.0	100.5
=	0.0	28.0	15.0	100.5
=	0.0	28.7	15.0	100.5
=	0.0	29.3	15.0	100.5
=	0.0	29.8	15.0	100.5
=	0.0	30.2	15.0	100.5
=	0.0	30.7	15.0	100.5
=	0.0	31.3	15.0	100.5
=	0.0	31.9	15.0	100.5
=	0.0	32.5	15.0	100.5
=	0.0	33.1	15.0	100.4
=	0.0	33.7	15.0	100.4
=	0.0	34.2	15.0	100.4
=	0.0	34.8	15.0	100.4
=	0.0	35.4	15.0	100.4
=	0.0	36.1	15.0	100.4
=	0.0	36.7	15.0	100.5
=	0.0	37.2	15.0	100.5
=	0.0	37.8	15.0	100.5
=	0.0	38.4	15.0	100.5
=	0.0	38.9	15.0	100.5
=	0.0	39.3	15.0	100.5
=	0.0	39.8	15.0	100.5
=	0.0	40.4	15.0	100.5
=	0.0	41.1	15.0	100.6
=	0.0	41.7	15.0	100.6
=	0.0	42.3	15.0	100.6
=	0.0	42.9	15.0	100.6
=	0.0	43.6	15.0	100.7
=	0.0	44.2	15.0	100.7
=	0.0	44.7	15.0	100.7
=	0.0	45.3	15.0	100.7
=	0.0	46.1	15.0	100.7
=	0.0	46.6	15.0	100.7
=	0.0	47.1	15.0	100.8
=	0.0	47.7	15.0	100.8
=	0.0	48.2	15.0	100.8
=	0.0	48.6	15.0	100.8
=	0.0	49.2	15.0	100.8
=	0.0	49.9	15.0	100.9
=	0.0	50.4	15.0	100.9
=	0.0	50.9	15.0	100.9
=	0.0	51.6	15.0	100.9
=	0.0	52.4	15.0	100.9
=	0.0	52.9	15.0	100.8
=	0.0	53.6	15.0	100.8
=	0.0	54.3	15.0	100.8
=	0.0	55.0	15.0	100.7
=	0.0	55.6	15.0	100.7
=	0.0	56.2	15.0	100.7
=	0.0	56.8	15.0	100.7
=	0.0	57.2	15.0	100.7
=	0.0	57.9	15.0	100.7
=	0.0	58.4	15.0	100.7
=	0.0	59.1	15.0	100.7
=	0.0	59.6	15.0	100.7
=	0.0	60.2	15.0	100.7
=	0.0	60.8	15.0	100.7
=	0.0	61.6	15.0	100.6
=	0.0	62.2	15.0	100.6
=	0.0	62.9	15.0	100.6
=	0.0	63.4	15.0	100.6
=	0.0	63.9	15.0	100.6
=	0.0	64.5	15.0	100.5
=	0.0	65.0	15.0	100.5
=	0.0	65.5	15.0	100.5
=	0.0	66.1	15.0	100.5
=	0.0	66.7	15.0	100.5
=	0.0	67.4	15.0	100.4
=	0.0	68.1	15.0	100.4
=	0.0	68.8	15.0	100.4
=	0.0	69.5	15.0	100.4
=	0.0	70.1	15.0	100.4
=	0.0	70.7	15.0	100.3
=	0.0	71.4	15.0	100.3
=	0.0	72.0	15.0	100.3
=	0.0	72.5	15.0	100.3
=	0.0	73.1	15.0	100.3
=	0.0	73.6	15.0	100.3
=	0.0	74.2	15.0	100.2
=	0.0	74.7	15.0	100.3
=	0.0	75.2	15.0	100.2
=	0.0	75.8	15.0	100.2
=	0.0	76.4	15.0	100.2
=	0.0	76.9	15.0	100.2
=	0.0	77.5	15.0	100.2
=	0.0	78.0	15.0	100.2
=	0.0	78.6	15.0	100.2
=	0.0	79.1	15.0	100.2
=	0.0	79.6	15.0	100.1
=	0.0	80.2	15.0	100.1
=	0.0	80.8	15.0	100.0
=	0.0	81.5	15.0	100.0
=	0.0	82.2	15.0	100.0
=	0.0	82.7	15.0	100.0
=	0.0	83.3	15.0	100.0
=	0.0	83.8	15.0	99.9
=	0.0	84.3	15.0	99.9
=	0.0	84.8	15.0	99.9
=	0.0	85.5	15.0	99.9
=	0.0	86.1	15.0	99.9
=	0.0	86.7	15.0	99.8
=	0.0	87.4	15.0	99.8
=	0.0	88.0	15.0	99.8
=	0.0	88.6	15.0	99.8
=	0.0	89.1	15.0	99.7
=	0.0	89.7	15.0	99.7
=	0.0	90.3	15.0	99.6
=	0.0	90.8	15.0	99.6
=	0.0	91.3	15.0	99.6
=	0.0	91.8	15.0	99.5
=	0.0	92.4	15.0	99.5
=	0.0	93.0	15.0	99.4
=	0.0	93.6	15.0	99.4
=	0.0	94.2	15.0	99.4
=	0.0	94.8	15.0	99.4
=	0.0	95.4	15.0	99.3
=	0.0	96.1	15.0	99.3
=	0.0	96.7	15.0	99.3
=	0.0	97.3	15.0	99.3
=	0.0	98.1	15.0	99.2
=	0.0	98.7	15.0	99.2
=	0.0	99.5	15.0	99.2
=	0.0	100.0	15.0	99.2
=	0.0	100.7	15.0	99.2
=	0.0	101.4	15.0	99.1
=	0.0	102.0	15.0	99.1
=	0.0	102.6	15.0	99.1
=	0.0	103.3	15.0	99.0
=	0.0	103.8	15.0	99.0
=	0.0	104.4	15.0	99.0
=	0.0	105.0	15.0	99.0
=	0.0	105.6	15.0	98.9
=	0.0	106.2	15.0	98.9
=	0.0	106.8	15.0	98.9
=	0.0	107.4	15.0	98.9
=	0.0	108.0	15.0	98.8
=	0.0	108.6	15.0	98.8
=	0.0	109.1	15.0	98.8
=	0.0	109.8	15.0	98.8
=	0.0	110.4	15.0	98.7
=	0.0	111.0	15.0	98.7
=	0.0	111.7	15.0	98.6
=	0.0	112.2	15.0	98.6
=	0.0	112.9	15.0	98.6
=	0.0	113.5	15.0	98.6
=	0.0	114.1	15.0	98.5
=	0.0	114.6	15.0	98.5
=	0.0	115.2	15.0	98.4
=	0.0	115.8	15.0	98.4
=	0.0	116.4	15.0	98.3
=	0.0	117.1	15.0	98.2
=	0.0	117.9	15.0	98.2
=	0.0	118.6	15.0	98.1
=	0.0	119.2	15.0	98.1
=	0.0	119.8	15.0	98.1
=	0.0	120.4	15.0	98.0
=	0.0	121.1	15.0	98.0
=	0.0	121.7	15.0	97.9
=	0.0	122.4	15.0	97.9
=	0.0	123.1	15.0	97.9
=	0.0	123.7	15.0	97.9
=	0.0	124.4	15.0	97.8
=	0.0	125.0	15.0	97.8
=	0.0	125.5	15.0	97.7
=	0.0	126.1	15.0	97.7
=	0.0	126.7	15.0	97.7
=	0.0	127.3	15.0	97.6
=	0.0	127.8	15.0	97.6
=	0.0	128.5	15.0	97.5
=	0.0	129.1	15.0	97.5
=	0.0	129.7	15.0	97.4
=	0.0	130.2	15.0	97.4
=	0.0	130.8	15.0	97.4
=	0.0	131.4	15.0	97.4
=	0.0	132.0	15.0	97.3
=	0.0	132.5	15.0	97.3
=	0.0	133.0	15.0	97.2
=	0.0	133.8	15.0	97.2
=	0.0	134.3	15.0	97.2
=	0.0	135.0	15.0	97.1
=	0.0	135.6	15.0	97.1
=	0.0	136.2	15.0	97.0
=	0.0	136.8	15.0	97.0
=	0.0	137.4	15.0	97.0
=	0.0	138.0	15.0	97.0
=	0.0	138.5	15.0	96.9
=	0.0	139.2	15.0	96.9
=	0.0	139.8	15.0	96.8
=	0.0	140.5	15.0	96.8
=	0.0	141.0	15.0	96.8
=	0.0	141.5	15.0	96.8
=	0.0	142.1	15.0	96.7
=	0.0	142.6	15.0	96.7
=	0.0	143.2	15.0	96.6
=	0.0	143.7	15.0	96.6
=	0.0	144.5	15.0	96.5
=	0.0	145.2	15.0	96.5
=	0.0	145.8	15.0	96.4
=	0.0	146.3	15.0	96.4
=	0.0	146.9	15.0	96.3
=	0.0	147.5	15.0	96.3
=	0.0	148.1	15.0	96.3
=	0.0	148.7	15.0	96.3
=	0.0	149.3	15.0	96.3
=	0.0	150.0	15.0	96.2
=	0.0	150.6	15.0	96.2
=	0.0	151.2	15.0	96.1
=	0.0	151.8	15.0	96.1
=	0.0	152.4	15.0	96.0
=	0.0	153.1	15.0	95.9
=	0.0	153.7	15.0	95.9
=	0.0	154.3	15.0	95.9
=	0.0	155.0	15.0	95.9
=	0.0	155.6	15.0	95.8
=	0.0	156.2	15.0	95.7
=	0.0	156.8	15.0	95.6
=	0.0	157.3	15.0	95.6
=	0.0	157.9	15.0	95.5
=	0.0	158.7	15.0	95.5
=	0.0	159.2	15.0	95.4
=	0.0	159.8	15.0	95.4
=	0.0	160.4	15.0	95.3
=	0.0	161.0	15.0	95.3
=	0.0	161.7	15.0	95.3
=	0.0	162.4	15.0	95.2
=	0.0	163.0	15.0	95.2
=	0.0	163.6	15.0	95.1
=	0.0	164.1	15.0	95.0
=	0.0	164.8	15.0	94.9
=	0.0	165.4	15.0	94.9
=	0.0	166.1	15.0	94.8
=	0.0	166.8	15.0	94.8
=	0.0	167.4	15.0	94.7
=	0.0	168.0	15.0	94.6
=	0.0	168.6	15.0	94.5
=	0.0	169.2	15.0	94.5
=	0.0	169.7	15.0	94.4
=	0.0	170.4	15.0	94.4
=	0.0	170.9	15.0	94.3
=	0.0	171.4	15.0	94.2
=	0.0	172.1	15.0	94.1
=	0.0	172.8	15.0	94.1
=	0.0	173.3	15.0	94.0
=	0.0	174.0	15.0	94.0
=	0.0	174.8	15.0	93.9
=	0.0	175.4	15.0	93.8
=	0.0	176.1	15.0	93.8
=	0.0	176.7	15.0	93.7
=	0.0	177.3	15.0	93.7
=	0.0	177.9	15.0	93.6
=	0.0	178.5	15.0	93.5
=	0.0	179.1	15.0	93.4
=	0.0	179.7	15.0	93.4
=	0.0	180.4	15.0	93.3
=	0.0	181.2	15.0	93.2
=	0.0	181.8	15.0	93.2
=	0.0	182.4	15.0	93.1
=	0.0	183.0	15.0	93.0
=	0.0	183.5	15.0	92.9
=	0.0	184.3	15.0	92.8
=	0.0	184.8	15.0	92.8
=	0.0	185.4	15.0	92.7
=	0.0	186.0	15.0	92.6
=	0.0	186.6	15.0	92.5
=	0.0	187.2	15.0	92.4
=	0.0	187.8	15.0	92.3
=	0.0	188.3	15.0	92.2
=	0.0	188.8	15.0	92.2
=	0.0	189.4	15.0	92.1
=	0.0	190.0	15.0	91.9
=	0.0	190.6	15.0	91.8
=	0.0	191.2	15.0	91.6
=	0.0	191.9	15.0	91.4
=	0.0	192.7	15.0	91.2
=	0.0	193.3	15.0	91.0
=	0.0	193.9	15.0	90.7
=	0.0	194.6	15.0	90.1
=	0.0	195.4	15.0	89.4
=	0.0	196.0	15.0	88.7
=	0.0	196.7	15.0	87.8
=	0.0	197.3	15.0	86.6
=	0.0	197.9	15.0	85.0
=	0.0	198.7	15.0	82.1
=	0.0	199.3	15.0	78.8
=	0.0	199.9	15.0	75.1
=	0.0	200.5	15.0	71.3
=	0.0	201.0	15.0	67.2
=	0.0	201.6	15.0	62.0
=	0.0	202.2	15.0	57.2
=	0.0	202.8	15.0	51.5
=	0.0	203.5	15.0	44.7
=	0.0	204.2	15.0	39.4
=	0.0	204.8	15.0	34.5
=	0.0	205.6	15.0	29.2
=	0.0	206.1	15.0	25.7
=	0.0	206.8	15.0	22.4
=	0.0	207.4	15.0	19.5
=	0.0	208.0	15.0	17.4
=	0.0	208.8	15.0	15.5
=	0.0	209.4	15.0	14.5
=	0.0	210.1	15.0	13.6
=	0.0	210.7	15.0	13.1
=	0.0	211.3	15.0	12.6
=	0.0	211.9	15.0	12.3
=	0.0	212.5	15.0	12.0
=	0.0	213.1	15.0	11.8
=	0.0	213.7	15.0	11.6
=	0.0	214.2	15.0	11.5
=	0.0	214.8	15.0	11.3
=	0.0	215.4	15.0	11.1
=	0.0	215.9	15.0	11.0
=	0.0	216.5	15.0	10.9
=	0.0	217.0	15.0	10.8
=	0.0	217.8	15.0	10.7
=	0.0	218.6	15.0	10.6
=	0.0	219.2	15.0	10.4
=	0.0	219.8	15.0	10.3
=	0.0	220.4	15.0	10.3
=	0.0	221.0	15.0	10.2
=	0.0	221.5	15.0	10.1
=	0.0	222.2	15.0	10.0
=	0.0	222.9	15.0	9.9
=	0.0	223.5	15.0	9.8
=	0.0	224.3	15.0	9.7
=	0.0	224.9	15.0	9.6
=	0.0	225.7	15.0	9.5
=	0.0	226.3	15.0	9.5
=	0.0	226.9	15.0	9.4
=	0.0	227.5	15.0	9.3
=	0.0	228.0	15.0	9.3
=	0.0	228.6	15.0	9.2
=	0.0	229.2	15.0	9.1
=	0.0	229.9	15.0	9.1
=	0.0	230.5	15.0	9.0
=	0.0	231.1	15.0	9.0
=	0.0	231.7	15.0	8.9
=	0.0	232.3	15.0	8.8
=	0.0	233.0	15.0	8.8
=	0.0	233.6	15.0	8.7
=	0.0	234.2	15.0	8.7
=	0.0	234.9	15.0	8.6
=	0.0	235.4	15.0	8.6
=	0.0	235.9	15.0	8.6
=	0.0	236.5	15.0	8.5
=	0.0	237.2	15.0	8.5
=	0.0	237.9	15.0	8.4
=	0.0	238.7	15.0	8.4
=	0.0	239.2	15.0	8.4
=	0.0	239.8	15.0	8.3
=	0.0	240.3	15.0	8.3
=	0.0	241.0	15.0	8.3
=	0.0	241.7	15.0	8.2
=	0.0	242.3	15.0	8.2
=	0.0	242.9	15.0	8.2
=	0.0	243.6	15.0	8.1
=	0.0	244.2	15.0	8.1
=	0.0	244.7	15.0	8.0
=	0.0	245.3	15.0	8.0
=	0.0	246.0	15.0	7.9
=	0.0	246.7	15.0	7.9
=	0.0	247.3	15.0	7.8
=	0.0	247.9	15.0	7.8
=	0.0	248.5	15.0	7.8
=	0.0	249.3	15.0	7.7
=	0.0	250.0	15.0	7.7
=	0.0	250.6	15.0	7.7
=	0.0	251.3	15.0	7.6
=	0.0	251.8	15.0	7.6
=	0.0	252.5	15.0	7.5
:EOM # End of Measurement
#
# RFA300 ASCII Measurement Dump ( BDS format )
#
# Measurement number 	2
#
%VNR 1.0
%MOD 	RAT
%TYP 	SCN
%SCN 	PRO
%FLD 	ION
%DAT 	10-14-2011
%TIM 	12:00:00
%FSZ 	400	200
%BMT 	PHO	   6.0
%SSD 	1000
%BUP 	0
%BRD 	1000
%FSH 	1
%ASC 	0
%WEG 	45
%GPO 	0
%CPO 	0
%MEA 	6
%PRD 	50,0
%PTS 	846
%STS 	    0.0	  -259.8	   50.0 # Start Scan values in mm ( X , Y , Z )
%EDS 	    0.0	   259.4	   50.0 # End Scan values in mm ( X , Y , Z )
#
#	  X      Y      Z     Dose
#
=	0.0	-259.8	50.0	7.9
=	0.0	-259.1	50.0	8.0
=	0.0	-258.5	50.0	8.0
=	0.0	-257.8	50.0	8.0
=	0.0	-257.0	50.0	8.1
=	0.0	-256.5	50.0	8.1
=	0.0	-255.8	50.0	8.2
=	0.0	-255.0	50.0	8.2
=	0.0	-254.4	50.0	8.3
=	0.0	-253.9	50.0	8.3
=	0.0	-253.3	50.0	8.4
=	0.0	-252.7	50.0	8.4
=	0.0	-252.0	50.0	8.5
=	0.0	-251.4	50.0	8.5
=	0.0	-250.8	50.0	8.5
=	0.0	-250.3	50.0	8.6
=	0.0	-249.8	50.0	8.6
=	0.0	-249.1	50.0	8.7
=	0.0	-248.4	50.0	8.7
=	0.0	-247.8	50.0	8.8
=	0.0	-247.2	50.0	8.8
=	0.0	-246.5	50.0	8.9
=	0.0	-245.8	50.0	9.0
=	0.0	-245.0	50.0	9.0
=	0.0	-244.3	50.0	9.1
=	0.0	-243.5	50.0	9.2
=	0.0	-242.9	50.0	9.2
=	0.0	-242.2	50.0	9.3
=	0.0	-241.5	50.0	9.3
=	0.0	-240.8	50.0	9.5
=	0.0	-240.2	50.0	9.5
=	0.0	-239.6	50.0	9.6
=	0.0	-239.0	50.0	9.7
=	0.0	-238.3	50.0	9.8
=	0.0	-237.7	50.0	9.9
=	0.0	-237.1	50.0	10.0
=	0.0	-236.6	50.0	10.0
=	0.0	-236.1	50.0	10.1
=	0.0	-235.5	50.0	10.2
=	0.0	-234.8	50.0	10.2
=	0.0	-234.3	50.0	10.3
=	0.0	-233.7	50.0	10.4
=	0.0	-233.1	50.0	10.5
=	0.0	-232.4	50.0	10.7
=	0.0	-231.8	50.0	10.7
=	0.0	-231.1	50.0	10.9
=	0.0	-230.4	50.0	11.0
=	0.0	-229.6	50.0	11.1
=	0.0	-229.1	50.0	11.2
=	0.0	-228.5	50.0	11.3
=	0.0	-227.9	50.0	11.4
=	0.0	-227.3	50.0	11.5
=	0.0	-226.7	50.0	11.7
=	0.0	-226.1	50.0	11.8
=	0.0	-225.6	50.0	11.9
=	0.0	-225.1	50.0	12.0
=	0.0	-224.6	50.0	12.1
=	0.0	-224.0	50.0	12.3
=	0.0	-223.5	50.0	12.4
=	0.0	-222.9	50.0	12.6
=	0.0	-222.2	50.0	12.8
=	0.0	-221.7	50.0	12.9
=	0.0	-221.1	50.0	13.1
=	0.0	-220.5	50.0	13.4
=	0.0	-219.8	50.0	13.6
=	0.0	-219.3	50.0	13.9
=	0.0	-218.7	50.0	14.3
=	0.0	-218.0	50.0	14.8
=	0.0	-217.3	50.0	15.4
=	0.0	-216.7	50.0	16.2
=	0.0	-216.2	50.0	17.0
=	0.0	-215.5	50.0	18.3
=	0.0	-215.0	50.0	19.7
=	0.0	-214.3	50.0	21.8
=	0.0	-213.6	50.0	24.6
=	0.0	-213.1	50.0	27.3
=	0.0	-212.5	50.0	30.6
=	0.0	-211.9	50.0	34.3
=	0.0	-211.4	50.0	37.7
=	0.0	-210.8	50.0	42.5
=	0.0	-209.9	50.0	48.8
=	0.0	-209.1	50.0	55.2
=	0.0	-208.4	50.0	61.0
=	0.0	-207.8	50.0	65.7
=	0.0	-207.1	50.0	70.7
=	0.0	-206.5	50.0	74.2
=	0.0	-206.0	50.0	77.1
=	0.0	-205.5	50.0	79.3
=	0.0	-204.9	50.0	81.3
=	0.0	-204.2	50.0	83.1
=	0.0	-203.7	50.0	84.4
=	0.0	-203.1	50.0	85.2
=	0.0	-202.5	50.0	86.2
=	0.0	-201.9	50.0	86.8
=	0.0	-201.3	50.0	87.4
=	0.0	-200.8	50.0	87.7
=	0.0	-200.1	50.0	88.0
=	0.0	-199.5	50.0	88.4
=	0.0	-199.0	50.0	88.8
=	0.0	-198.3	50.0	89.0
=	0.0	-197.6	50.0	89.2
=	0.0	-197.0	50.0	89.4
=	0.0	-196.3	50.0	89.6
=	0.0	-195.6	50.0	89.7
=	0.0	-195.0	50.0	90.0
=	0.0	-194.4	50.0	90.1
=	0.0	-193.8	50.0	90.4
=	0.0	-193.1	50.0	90.5
=	0.0	-192.5	50.0	90.7
=	0.0	-191.9	50.0	90.8
=	0.0	-191.2	50.0	90.9
=	0.0	-190.5	50.0	91.0
=	0.0	-189.8	50.0	91.1
=	0.0	-189.2	50.0	91.3
=	0.0	-188.6	50.0	91.4
=	0.0	-188.0	50.0	91.5
=	0.0	-187.4	50.0	91.6
=	0.0	-186.8	50.0	91.6
=	0.0	-186.2	50.0	91.7
=	0.0	-185.6	50.0	91.8
=	0.0	-185.0	50.0	91.9
=	0.0	-184.3	50.0	92.0
=	0.0	-183.6	50.0	92.1
=	0.0	-182.9	50.0	92.2
=	0.0	-182.1	50.0	92.3
=	0.0	-181.5	50.0	92.4
=	0.0	-180.9	50.0	92.5
=	0.0	-180.3	50.0	92.5
=	0.0	-179.7	50.0	92.7
=	0.0	-179.1	50.0	92.7
=	0.0	-178.5	50.0	92.9
=	0.0	-177.9	50.0	92.9
=	0.0	-177.1	50.0	93.0
=	0.0	-176.6	50.0	93.1
=	0.0	-176.0	50.0	93.2
=	0.0	-175.4	50.0	93.2
=	0.0	-174.8	50.0	93.3
=	0.0	-174.2	50.0	93.4
=	0.0	-173.5	50.0	93.5
=	0.0	-172.9	50.0	93.5
=	0.0	-172.3	50.0	93.6
=	0.0	-171.7	50.0	93.7
=	0.0	-171.1	50.0	93.8
=	0.0	-170.4	50.0	93.9
=	0.0	-169.8	50.0	93.9
=	0.0	-169.3	50.0	94.0
=	0.0	-168.8	50.0	94.1
=	0.0	-168.2	50.0	94.1
=	0.0	-167.5	50.0	94.2
=	0.0	-166.9	50.0	94.3
=	0.0	-166.4	50.0	94.3
=	0.0	-165.7	50.0	94.4
=	0.0	-165.1	50.0	94.5
=	0.0	-164.7	50.0	94.5
=	0.0	-164.1	50.0	94.5
=	0.0	-163.5	50.0	94.6
=	0.0	-163.0	50.0	94.6
=	0.0	-162.4	50.0	94.7
=	0.0	-161.8	50.0	94.8
=	0.0	-161.0	50.0	94.9
=	0.0	-160.3	50.0	94.9
=	0.0	-159.6	50.0	95.0
=	0.0	-158.9	50.0	95.1
=	0.0	-158.3	50.0	95.1
=	0.0	-157.8	50.0	95.1
=	0.0	-157.2	50.0	95.2
=	0.0	-156.6	50.0	95.3
=	0.0	-155.9	50.0	95.3
=	0.0	-155.3	50.0	95.4
=	0.0	-154.7	50.0	95.4
=	0.0	-154.2	50.0	95.5
=	0.0	-153.6	50.0	95.5
=	0.0	-153.0	50.0	95.5
=	0.0	-152.4	50.0	95.6
=	0.0	-151.8	50.0	95.6
=	0.0	-151.1	50.0	95.7
=	0.0	-150.4	50.0	95.7
=	0.0	-149.9	50.0	95.8
=	0.0	-149.4	50.0	95.8
=	0.0	-148.7	50.0	95.9
=	0.0	-148.2	50.0	95.9
=	0.0	-147.6	50.0	96.0
=	0.0	-147.0	50.0	96.0
=	0.0	-146.3	50.0	96.1
=	0.0	-145.6	50.0	96.1
=	0.0	-144.9	50.0	96.2
=	0.0	-144.2	50.0	96.3
=	0.0	-143.4	50.0	96.3
=	0.0	-142.8	50.0	96.4
=	0.0	-142.1	50.0	96.4
=	0.0	-141.6	50.0	96.4
=	0.0	-140.9	50.0	96.5
=	0.0	-140.3	50.0	96.5
=	0.0	-139.7	50.0	96.5
=	0.0	-139.1	50.0	96.5
=	0.0	-138.3	50.0	96.6
=	0.0	-137.7	50.0	96.7
=	0.0	-137.1	50.0	96.7
=	0.0	-136.4	50.0	96.7
=	0.0	-135.7	50.0	96.7
=	0.0	-135.0	50.0	96.8
=	0.0	-134.3	50.0	96.8
=	0.0	-133.7	50.0	96.9
=	0.0	-133.1	50.0	97.0
=	0.0	-132.4	50.0	97.0
=	0.0	-131.7	50.0	97.1
=	0.0	-131.1	50.0	97.1
=	0.0	-130.6	50.0	97.1
=	0.0	-130.0	50.0	97.2
=	0.0	-129.2	50.0	97.2
=	0.0	-128.6	50.0	97.3
=	0.0	-128.1	50.0	97.3
=	0.0	-127.5	50.0	97.4
=	0.0	-127.0	50.0	97.4
=	0.0	-126.5	50.0	97.5
=	0.0	-125.8	50.0	97.5
=	0.0	-125.3	50.0	97.6
=	0.0	-124.8	50.0	97.6
=	0.0	-124.2	50.0	97.6
=	0.0	-123.7	50.0	97.6
=	0.0	-123.1	50.0	97.6
=	0.0	-122.5	50.0	97.7
=	0.0	-121.7	50.0	97.7
=	0.0	-121.2	50.0	97.7
=	0.0	-120.6	50.0	97.8
=	0.0	-120.0	50.0	97.9
=	0.0	-119.5	50.0	97.9
=	0.0	-118.9	50.0	98.0
=	0.0	-118.3	50.0	98.0
=	0.0	-117.8	50.0	98.0
=	0.0	-117.3	50.0	98.0
=	0.0	-116.8	50.0	98.1
=	0.0	-116.2	50.0	98.0
=	0.0	-115.7	50.0	98.1
=	0.0	-115.1	50.0	98.1
=	0.0	-114.6	50.0	98.1
=	0.0	-114.1	50.0	98.2
=	0.0	-113.4	50.0	98.2
=	0.0	-112.8	50.0	98.2
=	0.0	-112.3	50.0	98.3
=	0.0	-111.7	50.0	98.3
=	0.0	-111.1	50.0	98.4
=	0.0	-110.5	50.0	98.4
=	0.0	-110.0	50.0	98.5
=	0.0	-109.5	50.0	98.5
=	0.0	-108.9	50.0	98.5
=	0.0	-108.4	50.0	98.6
=	0.0	-107.8	50.0	98.6
=	0.0	-107.1	50.0	98.6
=	0.0	-106.4	50.0	98.7
=	0.0	-105.7	50.0	98.7
=	0.0	-105.1	50.0	98.7
=	0.0	-104.6	50.0	98.8
=	0.0	-103.9	50.0	98.8
=	0.0	-103.2	50.0	98.8
=	0.0	-102.6	50.0	98.8
=	0.0	-102.1	50.0	98.8
=	0.0	-101.4	50.0	98.8
=	0.0	-100.6	50.0	98.9
=	0.0	-100.0	50.0	98.9
=	0.0	-99.2	50.0	99.0
=	0.0	-98.6	50.0	99.0
=	0.0	-97.8	50.0	99.1
=	0.0	-97.2	50.0	99.1
=	0.0	-96.4	50.0	99.2
=	0.0	-95.8	50.0	99.2
=	0.0	-95.2	50.0	99.2
=	0.0	-94.7	50.0	99.2
=	0.0	-94.2	50.0	99.2
=	0.0	-93.6	50.0	99.3
=	0.0	-92.9	50.0	99.3
=	0.0	-92.3	50.0	99.4
=	0.0	-91.7	50.0	99.4
=	0.0	-91.2	50.0	99.4
=	0.0	-90.6	50.0	99.4
=	0.0	-90.1	50.0	99.4
=	0.0	-89.5	50.0	99.5
=	0.0	-88.9	50.0	99.5
=	0.0	-88.3	50.0	99.6
=	0.0	-87.7	50.0	99.6
=	0.0	-87.0	50.0	99.6
=	0.0	-86.4	50.0	99.7
=	0.0	-85.8	50.0	99.8
=	0.0	-85.3	50.0	99.7
=	0.0	-84.6	50.0	99.8
=	0.0	-83.8	50.0	99.8
=	0.0	-83.2	50.0	99.8
=	0.0	-82.7	50.0	99.8
=	0.0	-82.0	50.0	99.8
=	0.0	-81.5	50.0	99.9
=	0.0	-80.9	50.0	99.9
=	0.0	-80.2	50.0	99.9
=	0.0	-79.7	50.0	99.9
=	0.0	-79.1	50.0	99.9
=	0.0	-78.4	50.0	99.9
=	0.0	-77.7	50.0	100.0
=	0.0	-77.0	50.0	100.0
=	0.0	-76.3	50.0	100.1
=	0.0	-75.6	50.0	100.1
=	0.0	-75.1	50.0	100.1
=	0.0	-74.6	50.0	100.1
=	0.0	-74.0	50.0	100.1
=	0.0	-73.4	50.0	100.1
=	0.0	-72.9	50.0	100.1
=	0.0	-72.3	50.0	100.2
=	0.0	-71.8	50.0	100.2
=	0.0	-71.1	50.0	100.2
=	0.0	-70.4	50.0	100.2
=	0.0	-69.8	50.0	100.2
=	0.0	-69.2	50.0	100.2
=	0.0	-68.6	50.0	100.2
=	0.0	-67.7	50.0	100.3
=	0.0	-67.1	50.0	100.3
=	0.0	-66.5	50.0	100.3
=	0.0	-65.8	50.0	100.3
=	0.0	-65.2	50.0	100.4
=	0.0	-64.7	50.0	100.4
=	0.0	-64.2	50.0	100.4
=	0.0	-63.6	50.0	100.4
=	0.0	-62.9	50.0	100.4
=	0.0	-62.2	50.0	100.5
=	0.0	-61.7	50.0	100.5
=	0.0	-61.1	50.0	100.5
=	0.0	-60.5	50.0	100.5
=	0.0	-59.8	50.0	100.5
=	0.0	-59.2	50.0	100.5
=	0.0	-58.5	50.0	100.5
=	0.0	-58.0	50.0	100.5
=	0.0	-57.4	50.0	100.5
=	0.0	-56.7	50.0	100.5
=	0.0	-56.2	50.0	100.5
=	0.0	-55.5	50.0	100.5
=	0.0	-54.9	50.0	100.5
=	0.0	-54.4	50.0	100.5
=	0.0	-53.9	50.0	100.6
=	0.0	-53.3	50.0	100.6
=	0.0	-52.6	50.0	100.5
=	0.0	-52.0	50.0	100.6
=	0.0	-51.5	50.0	100.6
=	0.0	-50.9	50.0	100.6
=	0.0	-50.3	50.0	100.6
=	0.0	-49.6	50.0	100.6
=	0.0	-48.9	50.0	100.6
=	0.0	-48.3	50.0	100.6
=	0.0	-47.8	50.0	100.6
=	0.0	-47.2	50.0	100.6
=	0.0	-46.6	50.0	100.5
=	0.0	-46.1	50.0	100.5
=	0.0	-45.5	50.0	100.5
=	0.0	-44.7	50.0	100.5
=	0.0	-44.0	50.0	100.5
=	0.0	-43.4	50.0	100.5
=	0.0	-42.9	50.0	100.5
=	0.0	-42.3	50.0	100.5
=	0.0	-41.6	50.0	100.5
=	0.0	-40.9	50.0	100.4
=	0.0	-40.2	50.0	100.4
=	0.0	-39.4	50.0	100.4
=	0.0	-38.7	50.0	100.4
=	0.0	-38.3	50.0	100.4
=	0.0	-37.6	50.0	100.4
=	0.0	-37.0	50.0	100.4
=	0.0	-36.5	50.0	100.4
=	0.0	-35.9	50.0	100.4
=	0.0	-35.3	50.0	100.4
=	0.0	-34.7	50.0	100.4
=	0.0	-34.1	50.0	100.4
=	0.0	-33.4	50.0	100.3
=	0.0	-32.7	50.0	100.3
=	0.0	-32.2	50.0	100.3
=	0.0	-31.7	50.0	100.4
=	0.0	-31.1	50.0	100.3
=	0.0	-30.6	50.0	100.3
=	0.0	-30.1	50.0	100.3
=	0.0	-29.5	50.0	100.3
=	0.0	-28.8	50.0	100.3
=	0.0	-28.2	50.0	100.3
=	0.0	-27.7	50.0	100.4
=	0.0	-27.1	50.0	100.4
=	0.0	-26.3	50.0	100.4
=	0.0	-25.7	50.0	100.4
=	0.0	-24.9	50.0	100.4
=	0.0	-24.3	50.0	100.4
=	0.0	-23.6	50.0	100.4
=	0.0	-23.0	50.0	100.4
=	0.0	-22.3	50.0	100.3
=	0.0	-21.7	50.0	100.3
=	0.0	-21.1	50.0	100.3
=	0.0	-20.5	50.0	100.4
=	0.0	-19.9	50.0	100.4
=	0.0	-19.3	50.0	100.4
=	0.0	-18.7	50.0	100.4
=	0.0	-18.1	50.0	100.4
=	0.0	-17.5	50.0	100.4
=	0.0	-17.0	50.0	100.4
=	0.0	-16.3	50.0	100.3
=	0.0	-15.7	50.0	100.3
=	0.0	-15.1	50.0	100.4
=	0.0	-14.5	50.0	100.3
=	0.0	-13.7	50.0	100.3
=	0.0	-13.1	50.0	100.2
=	0.0	-12.4	50.0	100.2
=	0.0	-11.8	50.0	100.2
=	0.0	-11.2	50.0	100.1
=	0.0	-10.6	50.0	100.1
=	0.0	-9.9	50.0	100.1
=	0.0	-9.3	50.0	100.0
=	0.0	-8.7	50.0	100.1
=	0.0	-8.1	50.0	100.1
=	0.0	-7.5	50.0	100.1
=	0.0	-7.0	50.0	100.0
=	0.0	-6.5	50.0	100.1
=	0.0	-5.9	50.0	100.1
=	0.0	-5.3	50.0	100.0
=	0.0	-4.8	50.0	100.0
=	0.0	-4.3	50.0	100.0
=	0.0	-3.7	50.0	100.0
=	0.0	-3.1	50.0	100.0
=	0.0	-2.6	50.0	100.0
=	0.0	-2.0	50.0	100.0
=	0.0	-1.5	50.0	100.0
=	0.0	-0.8	50.0	100.0
=	0.0	-0.2	50.0	100.0
=	0.0	0.0	50.0	100.0
=	0.0	0.5	50.0	100.0
=	0.0	1.2	50.0	100.0
=	0.0	1.8	50.0	100.0
=	0.0	2.3	50.0	100.0
=	0.0	2.9	50.0	100.0
=	0.0	3.4	50.0	100.0
=	0.0	4.0	50.0	100.0
=	0.0	4.5	50.0	100.0
=	0.0	5.1	50.0	100.0
=	0.0	5.6	50.0	100.0
=	0.0	6.2	50.0	100.1
=	0.0	6.8	50.0	100.0
=	0.0	7.3	50.0	100.0
=	0.0	7.8	50.0	100.1
=	0.0	8.4	50.0	100.1
=	0.0	9.0	50.0	100.1
=	0.0	9.6	50.0	100.0
=	0.0	10.2	50.0	100.1
=	0.0	10.9	50.0	100.1
=	0.0	11.5	50.0	100.1
=	0.0	12.1	50.0	100.2
=	0.0	12.8	50.0	100.2
=	0.0	13.4	50.0	100.3
=	0.0	14.1	50.0	100.3
=	0.0	14.8	50.0	100.3
=	0.0	15.4	50.0	100.3
=	0.0	16.0	50.0	100.3
=	0.0	16.7	50.0	100.4
=	0.0	17.3	50.0	100.4
=	0.0	17.8	50.0	100.4
=	0.0	18.4	50.0	100.4
=	0.0	19.0	50.0	100.4
=	0.0	19.5	50.0	100.4
=	0.0	20.2	50.0	100.4
=	0.0	20.8	50.0	100.3
=	0.0	21.4	50.0	100.3
