:MSR 	5	 # No. of measurement in file
:SYS BDS 0   # Beam Data Scanner System
#
# RFA300 ASCII Measurement Dump ( BDS format )
#
# Measurement number 	1
#
%VNR 1.0
%MOD 	RAT
%TYP 	SCN
%SCN 	PRO
%FLD 	ION
%DAT 	10-14-2011
%TIM 	12:00:00
%FSZ 	400	200
%BMT 	PHO	   6.0
%SSD 	1000
%BUP 	0
%BRD 	1000
%FSH 	1
%ASC 	0
%WEG 	45
%GPO 	0
%CPO 	0
%MEA 	6
%PRD 	15,0
%PTS 	831
%STS 	    -252.7	  0.0	   15.0 # Start Scan values in mm ( X , Y , Z )
%EDS 	    252.5	   0.0	   15.0 # End Scan values in mm ( X , Y , Z )
#
#	  X      Y      Z     Dose
#
=	-252.7	0.0	15.0	7.5
=	-251.9	0.0	15.0	7.6
=	-251.4	0.0	15.0	7.6
=	-250.7	0.0	15.0	7.7
=	-250.2	0.0	15.0	7.7
=	-249.5	0.0	15.0	7.7
=	-248.7	0.0	15.0	7.8
=	-248.0	0.0	15.0	7.8
=	-247.5	0.0	15.0	7.8
=	-246.9	0.0	15.0	7.9
=	-246.2	0.0	15.0	7.9
=	-245.5	0.0	15.0	8.0
=	-244.8	0.0	15.0	8.0
=	-244.3	0.0	15.0	8.1
=	-243.8	0.0	15.0	8.1
=	-243.1	0.0	15.0	8.1
=	-242.4	0.0	15.0	8.2
=	-241.8	0.0	15.0	8.2
=	-241.1	0.0	15.0	8.3
=	-240.5	0.0	15.0	8.3
=	-239.9	0.0	15.0	8.3
=	-239.3	0.0	15.0	8.4
=	-238.8	0.0	15.0	8.4
=	-238.1	0.0	15.0	8.4
=	-237.4	0.0	15.0	8.5
=	-236.7	0.0	15.0	8.5
=	-236.1	0.0	15.0	8.6
=	-235.5	0.0	15.0	8.6
=	-235.0	0.0	15.0	8.6
=	-234.4	0.0	15.0	8.7
=	-233.7	0.0	15.0	8.7
=	-233.2	0.0	15.0	8.7
=	-232.5	0.0	15.0	8.8
=	-231.9	0.0	15.0	8.8
=	-231.2	0.0	15.0	8.9
=	-230.6	0.0	15.0	9.0
=	-230.1	0.0	15.0	9.0
=	-229.4	0.0	15.0	9.1
=	-228.7	0.0	15.0	9.2
=	-228.2	0.0	15.0	9.3
=	-227.6	0.0	15.0	9.3
=	-227.0	0.0	15.0	9.4
=	-226.4	0.0	15.0	9.5
=	-225.8	0.0	15.0	9.5
=	-225.1	0.0	15.0	9.6
=	-224.5	0.0	15.0	9.7
=	-223.7	0.0	15.0	9.8
=	-223.0	0.0	15.0	9.9
=	-222.3	0.0	15.0	10.0
=	-221.7	0.0	15.0	10.1
=	-221.1	0.0	15.0	10.2
=	-220.5	0.0	15.0	10.2
=	-219.9	0.0	15.0	10.3
=	-219.4	0.0	15.0	10.4
=	-218.8	0.0	15.0	10.5
=	-218.0	0.0	15.0	10.6
=	-217.2	0.0	15.0	10.8
=	-216.6	0.0	15.0	10.9
=	-216.1	0.0	15.0	11.0
=	-215.5	0.0	15.0	11.1
=	-214.9	0.0	15.0	11.2
=	-214.3	0.0	15.0	11.4
=	-213.8	0.0	15.0	11.6
=	-213.3	0.0	15.0	11.8
=	-212.6	0.0	15.0	11.9
=	-212.0	0.0	15.0	12.2
=	-211.4	0.0	15.0	12.5
=	-210.8	0.0	15.0	13.0
=	-210.3	0.0	15.0	13.4
=	-209.6	0.0	15.0	14.3
=	-209.0	0.0	15.0	15.2
=	-208.2	0.0	15.0	16.9
=	-207.6	0.0	15.0	18.9
=	-206.9	0.0	15.0	21.7
=	-206.3	0.0	15.0	24.8
=	-205.7	0.0	15.0	28.3
=	-205.0	0.0	15.0	33.1
=	-204.3	0.0	15.0	38.1
=	-203.7	0.0	15.0	43.3
=	-203.0	0.0	15.0	49.8
=	-202.3	0.0	15.0	55.9
=	-201.7	0.0	15.0	60.9
=	-201.2	0.0	15.0	65.7
=	-200.6	0.0	15.0	70.4
=	-200.1	0.0	15.0	74.2
=	-199.5	0.0	15.0	77.9
=	-198.9	0.0	15.0	81.3
=	-198.1	0.0	15.0	84.4
=	-197.5	0.0	15.0	86.3
=	-196.8	0.0	15.0	87.5
=	-196.2	0.0	15.0	88.5
=	-195.6	0.0	15.0	89.2
=	-194.8	0.0	15.0	90.0
=	-194.0	0.0	15.0	90.5
=	-193.5	0.0	15.0	90.9
=	-192.9	0.0	15.0	91.1
=	-192.1	0.0	15.0	91.3
=	-191.4	0.0	15.0	91.5
=	-190.8	0.0	15.0	91.7
=	-190.2	0.0	15.0	91.9
=	-189.5	0.0	15.0	92.1
=	-188.9	0.0	15.0	92.1
=	-188.4	0.0	15.0	92.2
=	-187.9	0.0	15.0	92.3
=	-187.4	0.0	15.0	92.4
=	-186.8	0.0	15.0	92.4
=	-186.2	0.0	15.0	92.6
=	-185.6	0.0	15.0	92.7
=	-185.0	0.0	15.0	92.8
=	-184.4	0.0	15.0	92.8
=	-183.7	0.0	15.0	92.9
=	-183.1	0.0	15.0	93.0
=	-182.6	0.0	15.0	93.1
=	-181.9	0.0	15.0	93.2
=	-181.4	0.0	15.0	93.2
=	-180.7	0.0	15.0	93.3
=	-179.9	0.0	15.0	93.3
=	-179.2	0.0	15.0	93.4
=	-178.6	0.0	15.0	93.5
=	-178.0	0.0	15.0	93.5
=	-177.4	0.0	15.0	93.7
=	-176.8	0.0	15.0	93.7
=	-176.3	0.0	15.0	93.8
=	-175.6	0.0	15.0	93.8
=	-175.0	0.0	15.0	93.9
=	-174.2	0.0	15.0	93.9
=	-173.5	0.0	15.0	94.0
=	-172.9	0.0	15.0	94.1
=	-172.3	0.0	15.0	94.1
=	-171.6	0.0	15.0	94.2
=	-171.0	0.0	15.0	94.3
=	-170.5	0.0	15.0	94.3
=	-169.9	0.0	15.0	94.4
=	-169.3	0.0	15.0	94.4
=	-168.7	0.0	15.0	94.5
=	-168.1	0.0	15.0	94.6
=	-167.5	0.0	15.0	94.7
=	-167.0	0.0	15.0	94.7
=	-166.3	0.0	15.0	94.8
=	-165.6	0.0	15.0	94.9
=	-165.0	0.0	15.0	94.9
=	-164.3	0.0	15.0	95.0
=	-163.7	0.0	15.0	95.1
=	-163.1	0.0	15.0	95.2
=	-162.5	0.0	15.0	95.2
=	-161.9	0.0	15.0	95.3
=	-161.2	0.0	15.0	95.3
=	-160.5	0.0	15.0	95.3
=	-159.9	0.0	15.0	95.4
=	-159.4	0.0	15.0	95.4
=	-158.9	0.0	15.0	95.5
=	-158.1	0.0	15.0	95.5
=	-157.5	0.0	15.0	95.6
=	-156.9	0.0	15.0	95.6
=	-156.3	0.0	15.0	95.7
=	-155.7	0.0	15.0	95.8
=	-155.2	0.0	15.0	95.8
=	-154.5	0.0	15.0	95.9
=	-153.8	0.0	15.0	95.9
=	-153.2	0.0	15.0	95.9
=	-152.6	0.0	15.0	96.0
=	-152.0	0.0	15.0	96.0
=	-151.4	0.0	15.0	96.1
=	-150.8	0.0	15.0	96.2
=	-150.2	0.0	15.0	96.2
=	-149.5	0.0	15.0	96.3
=	-148.9	0.0	15.0	96.3
=	-148.3	0.0	15.0	96.3
=	-147.6	0.0	15.0	96.3
=	-147.0	0.0	15.0	96.3
=	-146.5	0.0	15.0	96.4
=	-145.9	0.0	15.0	96.4
=	-145.3	0.0	15.0	96.5
=	-144.7	0.0	15.0	96.5
=	-143.9	0.0	15.0	96.6
=	-143.3	0.0	15.0	96.6
=	-142.8	0.0	15.0	96.6
=	-142.2	0.0	15.0	96.7
=	-141.7	0.0	15.0	96.8
=	-141.2	0.0	15.0	96.8
=	-140.6	0.0	15.0	96.8
=	-140.0	0.0	15.0	96.8
=	-139.3	0.0	15.0	96.9
=	-138.7	0.0	15.0	96.9
=	-138.1	0.0	15.0	97.0
=	-137.5	0.0	15.0	97.0
=	-137.0	0.0	15.0	97.0
=	-136.3	0.0	15.0	97.0
=	-135.7	0.0	15.0	97.1
=	-135.1	0.0	15.0	97.1
=	-134.5	0.0	15.0	97.2
=	-133.9	0.0	15.0	97.2
=	-133.2	0.0	15.0	97.2
=	-132.6	0.0	15.0	97.3
=	-132.1	0.0	15.0	97.3
=	-131.6	0.0	15.0	97.4
=	-131.0	0.0	15.0	97.4
=	-130.4	0.0	15.0	97.4
=	-129.8	0.0	15.0	97.4
=	-129.3	0.0	15.0	97.5
=	-128.6	0.0	15.0	97.5
=	-127.9	0.0	15.0	97.6
=	-127.4	0.0	15.0	97.6
=	-126.9	0.0	15.0	97.6
=	-126.2	0.0	15.0	97.7
=	-125.7	0.0	15.0	97.7
=	-125.2	0.0	15.0	97.8
=	-124.6	0.0	15.0	97.8
=	-123.9	0.0	15.0	97.9
=	-123.2	0.0	15.0	97.9
=	-122.6	0.0	15.0	97.9
=	-121.9	0.0	15.0	97.9
=	-121.2	0.0	15.0	97.9
=	-120.6	0.0	15.0	98.0
=	-119.9	0.0	15.0	98.1
=	-119.3	0.0	15.0	98.1
=	-118.8	0.0	15.0	98.1
=	-118.1	0.0	15.0	98.2
=	-117.3	0.0	15.0	98.2
=	-116.5	0.0	15.0	98.3
=	-116.0	0.0	15.0	98.4
=	-115.3	0.0	15.0	98.4
=	-114.7	0.0	15.0	98.5
=	-114.2	0.0	15.0	98.5
=	-113.7	0.0	15.0	98.5
=	-113.1	0.0	15.0	98.6
=	-112.4	0.0	15.0	98.6
=	-111.9	0.0	15.0	98.6
=	-111.3	0.0	15.0	98.7
=	-110.5	0.0	15.0	98.7
=	-109.9	0.0	15.0	98.8
=	-109.3	0.0	15.0	98.8
=	-108.7	0.0	15.0	98.8
=	-108.2	0.0	15.0	98.8
=	-107.6	0.0	15.0	98.9
=	-106.9	0.0	15.0	98.9
=	-106.4	0.0	15.0	98.9
=	-105.7	0.0	15.0	98.9
=	-105.2	0.0	15.0	98.9
=	-104.5	0.0	15.0	99.0
=	-104.0	0.0	15.0	99.0
=	-103.4	0.0	15.0	99.0
=	-102.8	0.0	15.0	99.1
=	-102.2	0.0	15.0	99.1
=	-101.5	0.0	15.0	99.1
=	-100.9	0.0	15.0	99.1
=	-100.2	0.0	15.0	99.2
=	-99.6	0.0	15.0	99.2
=	-98.9	0.0	15.0	99.2
=	-98.3	0.0	15.0	99.2
=	-97.5	0.0	15.0	99.3
=	-96.9	0.0	15.0	99.3
=	-96.2	0.0	15.0	99.3
=	-95.6	0.0	15.0	99.3
=	-95.0	0.0	15.0	99.3
=	-94.3	0.0	15.0	99.4
=	-93.8	0.0	15.0	99.4
=	-93.1	0.0	15.0	99.4
=	-92.6	0.0	15.0	99.5
=	-92.0	0.0	15.0	99.5
=	-91.5	0.0	15.0	99.6
=	-90.9	0.0	15.0	99.6
=	-90.4	0.0	15.0	99.6
=	-89.8	0.0	15.0	99.7
=	-89.2	0.0	15.0	99.7
=	-88.7	0.0	15.0	99.8
=	-88.2	0.0	15.0	99.8
=	-87.6	0.0	15.0	99.8
=	-86.9	0.0	15.0	99.8
=	-86.3	0.0	15.0	99.9
=	-85.7	0.0	15.0	99.9
=	-85.0	0.0	15.0	99.9
=	-84.4	0.0	15.0	99.9
=	-83.9	0.0	15.0	99.9
=	-83.4	0.0	15.0	100.0
=	-82.9	0.0	15.0	100.0
=	-82.3	0.0	15.0	100.0
=	-81.7	0.0	15.0	100.0
=	-80.9	0.0	15.0	100.0
=	-80.4	0.0	15.0	100.1
=	-79.8	0.0	15.0	100.1
=	-79.3	0.0	15.0	100.2
=	-78.7	0.0	15.0	100.2
=	-78.1	0.0	15.0	100.2
=	-77.6	0.0	15.0	100.2
=	-77.1	0.0	15.0	100.2
=	-76.5	0.0	15.0	100.2
=	-75.9	0.0	15.0	100.2
=	-75.4	0.0	15.0	100.2
=	-74.8	0.0	15.0	100.3
=	-74.3	0.0	15.0	100.3
=	-73.7	0.0	15.0	100.3
=	-73.3	0.0	15.0	100.3
=	-72.7	0.0	15.0	100.3
=	-72.1	0.0	15.0	100.3
=	-71.6	0.0	15.0	100.3
=	-70.9	0.0	15.0	100.3
=	-70.3	0.0	15.0	100.3
=	-69.6	0.0	15.0	100.4
=	-69.0	0.0	15.0	100.4
=	-68.3	0.0	15.0	100.4
=	-67.6	0.0	15.0	100.4
=	-66.9	0.0	15.0	100.4
=	-66.2	0.0	15.0	100.5
=	-65.6	0.0	15.0	100.5
=	-65.2	0.0	15.0	100.5
=	-64.6	0.0	15.0	100.5
=	-64.1	0.0	15.0	100.5
=	-63.6	0.0	15.0	100.6
=	-63.0	0.0	15.0	100.6
=	-62.4	0.0	15.0	100.6
=	-61.8	0.0	15.0	100.6
=	-61.0	0.0	15.0	100.7
=	-60.4	0.0	15.0	100.7
=	-59.8	0.0	15.0	100.7
=	-59.2	0.0	15.0	100.7
=	-58.6	0.0	15.0	100.7
=	-58.0	0.0	15.0	100.7
=	-57.4	0.0	15.0	100.7
=	-56.9	0.0	15.0	100.7
=	-56.4	0.0	15.0	100.7
=	-55.7	0.0	15.0	100.7
=	-55.1	0.0	15.0	100.7
=	-54.5	0.0	15.0	100.8
=	-53.8	0.0	15.0	100.8
=	-53.1	0.0	15.0	100.8
=	-52.6	0.0	15.0	100.9
=	-51.8	0.0	15.0	100.9
=	-51.1	0.0	15.0	100.9
=	-50.6	0.0	15.0	100.9
=	-50.0	0.0	15.0	100.9
=	-49.4	0.0	15.0	100.8
=	-48.8	0.0	15.0	100.8
=	-48.3	0.0	15.0	100.8
=	-47.8	0.0	15.0	100.8
=	-47.3	0.0	15.0	100.8
=	-46.7	0.0	15.0	100.7
=	-46.2	0.0	15.0	100.7
=	-45.5	0.0	15.0	100.7
=	-44.8	0.0	15.0	100.7
=	-44.3	0.0	15.0	100.7
=	-43.8	0.0	15.0	100.7
=	-43.1	0.0	15.0	100.7
=	-42.4	0.0	15.0	100.6
=	-41.9	0.0	15.0	100.6
=	-41.3	0.0	15.0	100.6
=	-40.6	0.0	15.0	100.5
=	-39.9	0.0	15.0	100.5
=	-39.4	0.0	15.0	100.5
=	-39.0	0.0	15.0	100.5
=	-38.5	0.0	15.0	100.5
=	-37.9	0.0	15.0	100.5
=	-37.3	0.0	15.0	100.5
=	-36.8	0.0	15.0	100.5
=	-36.2	0.0	15.0	100.4
=	-35.6	0.0	15.0	100.4
=	-34.9	0.0	15.0	100.4
=	-34.3	0.0	15.0	100.4
=	-33.8	0.0	15.0	100.4
=	-33.2	0.0	15.0	100.4
=	-32.6	0.0	15.0	100.5
=	-32.0	0.0	15.0	100.5
=	-31.5	0.0	15.0	100.5
=	-30.8	0.0	15.0	100.5
=	-30.3	0.0	15.0	100.5
=	-29.9	0.0	15.0	100.5
=	-29.4	0.0	15.0	100.5
=	-28.9	0.0	15.0	100.5
=	-28.2	0.0	15.0	100.5
=	-27.6	0.0	15.0	100.5
=	-27.0	0.0	15.0	100.4
=	-26.5	0.0	15.0	100.4
=	-25.9	0.0	15.0	100.4
=	-25.3	0.0	15.0	100.4
=	-24.7	0.0	15.0	100.5
=	-24.1	0.0	15.0	100.4
=	-23.5	0.0	15.0	100.5
=	-22.9	0.0	15.0	100.5
=	-22.2	0.0	15.0	100.5
=	-21.8	0.0	15.0	100.5
=	-21.2	0.0	15.0	100.5
=	-20.6	0.0	15.0	100.5
=	-20.0	0.0	15.0	100.5
=	-19.2	0.0	15.0	100.4
=	-18.7	0.0	15.0	100.4
=	-18.1	0.0	15.0	100.4
=	-17.4	0.0	15.0	100.4
=	-16.8	0.0	15.0	100.4
=	-16.1	0.0	15.0	100.4
=	-15.5	0.0	15.0	100.4
=	-14.9	0.0	15.0	100.4
=	-14.4	0.0	15.0	100.4
=	-13.9	0.0	15.0	100.3
=	-13.4	0.0	15.0	100.3
=	-12.8	0.0	15.0	100.3
=	-12.1	0.0	15.0	100.3
=	-11.5	0.0	15.0	100.3
=	-10.7	0.0	15.0	100.3
=	-10.1	0.0	15.0	100.3
=	-9.5	0.0	15.0	100.2
=	-8.8	0.0	15.0	100.2
=	-8.2	0.0	15.0	100.2
=	-7.7	0.0	15.0	100.1
=	-7.1	0.0	15.0	100.1
=	-6.6	0.0	15.0	100.1
=	-6.0	0.0	15.0	100.1
=	-5.4	0.0	15.0	100.0
=	-4.8	0.0	15.0	100.0
=	-4.2	0.0	15.0	100.0
=	-3.6	0.0	15.0	100.0
=	-3.0	0.0	15.0	100.0
=	-2.4	0.0	15.0	100.0
=	-1.8	0.0	15.0	100.0
=	-1.1	0.0	15.0	100.0
=	-0.6	0.0	15.0	100.0
=	-0.1	0.0	15.0	100.0
=	0.5	0.0	15.0	100.0
=	1.0	0.0	15.0	100.0
=	1.7	0.0	15.0	100.0
=	2.2	0.0	15.0	100.0
=	2.9	0.0	15.0	100.0
=	3.5	0.0	15.0	100.0
=	4.0	0.0	15.0	100.0
=	4.6	0.0	15.0	100.0
=	5.3	0.0	15.0	100.0
=	5.8	0.0	15.0	100.0
=	6.4	0.0	15.0	100.1
=	7.0	0.0	15.0	100.1
=	7.6	0.0	15.0	100.1
=	8.1	0.0	15.0	100.2
=	8.7	0.0	15.0	100.2
=	9.3	0.0	15.0	100.2
=	9.9	0.0	15.0	100.3
=	10.5	0.0	15.0	100.3
=	11.3	0.0	15.0	100.3
=	11.9	0.0	15.0	100.3
=	12.7	0.0	15.0	100.3
=	13.2	0.0	15.0	100.3
=	13.8	0.0	15.0	100.3
=	14.3	0.0	15.0	100.3
=	14.8	0.0	15.0	100.4
=	15.4	0.0	15.0	100.4
=	16.0	0.0	15.0	100.4
=	16.6	0.0	15.0	100.4
=	17.3	0.0	15.0	100.4
=	17.9	0.0	15.0	100.4
=	18.5	0.0	15.0	100.4
=	19.1	0.0	15.0	100.5
=	19.8	0.0	15.0	100.5
=	20.5	0.0	15.0	100.5
=	21.0	0.0	15.0	100.5
=	21.7	0.0	15.0	100.5
=	22.1	0.0	15.0	100.5
=	22.8	0.0	15.0	100.5
=	23.3	0.0	15.0	100.5
=	23.9	0.0	15.0	100.4
=	24.5	0.0	15.0	100.5
=	25.2	0.0	15.0	100.4
=	25.7	0.0	15.0	100.4
=	26.4	0.0	15.0	100.4
=	26.9	0.0	15.0	100.4
=	27.5	0.0	15.0	100.5
=	28.0	0.0	15.0	100.5
=	28.7	0.0	15.0	100.5
=	29.3	0.0	15.0	100.5
=	29.8	0.0	15.0	100.5
=	30.2	0.0	15.0	100.5
=	30.7	0.0	15.0	100.5
=	31.3	0.0	15.0	100.5
=	31.9	0.0	15.0	100.5
=	32.5	0.0	15.0	100.5
=	33.1	0.0	15.0	100.4
=	33.7	0.0	15.0	100.4
=	34.2	0.0	15.0	100.4
=	34.8	0.0	15.0	100.4
=	35.4	0.0	15.0	100.4
=	36.1	0.0	15.0	100.4
=	36.7	0.0	15.0	100.5
=	37.2	0.0	15.0	100.5
=	37.8	0.0	15.0	100.5
=	38.4	0.0	15.0	100.5
=	38.9	0.0	15.0	100.5
=	39.3	0.0	15.0	100.5
=	39.8	0.0	15.0	100.5
=	40.4	0.0	15.0	100.5
=	41.1	0.0	15.0	100.6
=	41.7	0.0	15.0	100.6
=	42.3	0.0	15.0	100.6
=	42.9	0.0	15.0	100.6
=	43.6	0.0	15.0	100.7
=	44.2	0.0	15.0	100.7
=	44.7	0.0	15.0	100.7
=	45.3	0.0	15.0	100.7
=	46.1	0.0	15.0	100.7
=	46.6	0.0	15.0	100.7
=	47.1	0.0	15.0	100.8
=	47.7	0.0	15.0	100.8
=	48.2	0.0	15.0	100.8
=	48.6	0.0	15.0	100.8
=	49.2	0.0	15.0	100.8
=	49.9	0.0	15.0	100.9
=	50.4	0.0	15.0	100.9
=	50.9	0.0	15.0	100.9
=	51.6	0.0	15.0	100.9
=	52.4	0.0	15.0	100.9
=	52.9	0.0	15.0	100.8
=	53.6	0.0	15.0	100.8
=	54.3	0.0	15.0	100.8
=	55.0	0.0	15.0	100.7
=	55.6	0.0	15.0	100.7
=	56.2	0.0	15.0	100.7
=	56.8	0.0	15.0	100.7
=	57.2	0.0	15.0	100.7
=	57.9	0.0	15.0	100.7
=	58.4	0.0	15.0	100.7
=	59.1	0.0	15.0	100.7
=	59.6	0.0	15.0	100.7
=	60.2	0.0	15.0	100.7
=	60.8	0.0	15.0	100.7
=	61.6	0.0	15.0	100.6
=	62.2	0.0	15.0	100.6
=	62.9	0.0	15.0	100.6
=	63.4	0.0	15.0	100.6
=	63.9	0.0	15.0	100.6
=	64.5	0.0	15.0	100.5
=	65.0	0.0	15.0	100.5
=	65.5	0.0	15.0	100.5
=	66.1	0.0	15.0	100.5
=	66.7	0.0	15.0	100.5
=	67.4	0.0	15.0	100.4
=	68.1	0.0	15.0	100.4
=	68.8	0.0	15.0	100.4
=	69.5	0.0	15.0	100.4
=	70.1	0.0	15.0	100.4
=	70.7	0.0	15.0	100.3
=	71.4	0.0	15.0	100.3
=	72.0	0.0	15.0	100.3
=	72.5	0.0	15.0	100.3
=	73.1	0.0	15.0	100.3
=	73.6	0.0	15.0	100.3
=	74.2	0.0	15.0	100.2
=	74.7	0.0	15.0	100.3
=	75.2	0.0	15.0	100.2
=	75.8	0.0	15.0	100.2
=	76.4	0.0	15.0	100.2
=	76.9	0.0	15.0	100.2
=	77.5	0.0	15.0	100.2
=	78.0	0.0	15.0	100.2
=	78.6	0.0	15.0	100.2
=	79.1	0.0	15.0	100.2
=	79.6	0.0	15.0	100.1
=	80.2	0.0	15.0	100.1
=	80.8	0.0	15.0	100.0
=	81.5	0.0	15.0	100.0
=	82.2	0.0	15.0	100.0
=	82.7	0.0	15.0	100.0
=	83.3	0.0	15.0	100.0
=	83.8	0.0	15.0	99.9
=	84.3	0.0	15.0	99.9
=	84.8	0.0	15.0	99.9
=	85.5	0.0	15.0	99.9
=	86.1	0.0	15.0	99.9
=	86.7	0.0	15.0	99.8
=	87.4	0.0	15.0	99.8
=	88.0	0.0	15.0	99.8
=	88.6	0.0	15.0	99.8
=	89.1	0.0	15.0	99.7
=	89.7	0.0	15.0	99.7
=	90.3	0.0	15.0	99.6
=	90.8	0.0	15.0	99.6
=	91.3	0.0	15.0	99.6
=	91.8	0.0	15.0	99.5
=	92.4	0.0	15.0	99.5
=	93.0	0.0	15.0	99.4
=	93.6	0.0	15.0	99.4
=	94.2	0.0	15.0	99.4
=	94.8	0.0	15.0	99.4
=	95.4	0.0	15.0	99.3
=	96.1	0.0	15.0	99.3
=	96.7	0.0	15.0	99.3
=	97.3	0.0	15.0	99.3
=	98.1	0.0	15.0	99.2
=	98.7	0.0	15.0	99.2
=	99.5	0.0	15.0	99.2
=	100.0	0.0	15.0	99.2
=	100.7	0.0	15.0	99.2
=	101.4	0.0	15.0	99.1
=	102.0	0.0	15.0	99.1
=	102.6	0.0	15.0	99.1
=	103.3	0.0	15.0	99.0
=	103.8	0.0	15.0	99.0
=	104.4	0.0	15.0	99.0
=	105.0	0.0	15.0	99.0
=	105.6	0.0	15.0	98.9
=	106.2	0.0	15.0	98.9
=	106.8	0.0	15.0	98.9
=	107.4	0.0	15.0	98.9
=	108.0	0.0	15.0	98.8
=	108.6	0.0	15.0	98.8
=	109.1	0.0	15.0	98.8
=	109.8	0.0	15.0	98.8
=	110.4	0.0	15.0	98.7
=	111.0	0.0	15.0	98.7
=	111.7	0.0	15.0	98.6
=	112.2	0.0	15.0	98.6
=	112.9	0.0	15.0	98.6
=	113.5	0.0	15.0	98.6
=	114.1	0.0	15.0	98.5
=	114.6	0.0	15.0	98.5
=	115.2	0.0	15.0	98.4
=	115.8	0.0	15.0	98.4
=	116.4	0.0	15.0	98.3
=	117.1	0.0	15.0	98.2
=	117.9	0.0	15.0	98.2
=	118.6	0.0	15.0	98.1
=	119.2	0.0	15.0	98.1
=	119.8	0.0	15.0	98.1
=	120.4	0.0	15.0	98.0
=	121.1	0.0	15.0	98.0
=	121.7	0.0	15.0	97.9
=	122.4	0.0	15.0	97.9
=	123.1	0.0	15.0	97.9
=	123.7	0.0	15.0	97.9
=	124.4	0.0	15.0	97.8
=	125.0	0.0	15.0	97.8
=	125.5	0.0	15.0	97.7
=	126.1	0.0	15.0	97.7
=	126.7	0.0	15.0	97.7
=	127.3	0.0	15.0	97.6
=	127.8	0.0	15.0	97.6
=	128.5	0.0	15.0	97.5
=	129.1	0.0	15.0	97.5
=	129.7	0.0	15.0	97.4
=	130.2	0.0	15.0	97.4
=	130.8	0.0	15.0	97.4
=	131.4	0.0	15.0	97.4
=	132.0	0.0	15.0	97.3
=	132.5	0.0	15.0	97.3
=	133.0	0.0	15.0	97.2
=	133.8	0.0	15.0	97.2
=	134.3	0.0	15.0	97.2
=	135.0	0.0	15.0	97.1
=	135.6	0.0	15.0	97.1
=	136.2	0.0	15.0	97.0
=	136.8	0.0	15.0	97.0
=	137.4	0.0	15.0	97.0
=	138.0	0.0	15.0	97.0
=	138.5	0.0	15.0	96.9
=	139.2	0.0	15.0	96.9
=	139.8	0.0	15.0	96.8
=	140.5	0.0	15.0	96.8
=	141.0	0.0	15.0	96.8
=	141.5	0.0	15.0	96.8
=	142.1	0.0	15.0	96.7
=	142.6	0.0	15.0	96.7
=	143.2	0.0	15.0	96.6
=	143.7	0.0	15.0	96.6
=	144.5	0.0	15.0	96.5
=	145.2	0.0	15.0	96.5
=	145.8	0.0	15.0	96.4
=	146.3	0.0	15.0	96.4
=	146.9	0.0	15.0	96.3
=	147.5	0.0	15.0	96.3
=	148.1	0.0	15.0	96.3
=	148.7	0.0	15.0	96.3
=	149.3	0.0	15.0	96.3
=	150.0	0.0	15.0	96.2
=	150.6	0.0	15.0	96.2
=	151.2	0.0	15.0	96.1
=	151.8	0.0	15.0	96.1
=	152.4	0.0	15.0	96.0
=	153.1	0.0	15.0	95.9
=	153.7	0.0	15.0	95.9
=	154.3	0.0	15.0	95.9
=	155.0	0.0	15.0	95.9
=	155.6	0.0	15.0	95.8
=	156.2	0.0	15.0	95.7
=	156.8	0.0	15.0	95.6
=	157.3	0.0	15.0	95.6
=	157.9	0.0	15.0	95.5
=	158.7	0.0	15.0	95.5
=	159.2	0.0	15.0	95.4
=	159.8	0.0	15.0	95.4
=	160.4	0.0	15.0	95.3
=	161.0	0.0	15.0	95.3
=	161.7	0.0	15.0	95.3
=	162.4	0.0	15.0	95.2
=	163.0	0.0	15.0	95.2
=	163.6	0.0	15.0	95.1
=	164.1	0.0	15.0	95.0
=	164.8	0.0	15.0	94.9
=	165.4	0.0	15.0	94.9
=	166.1	0.0	15.0	94.8
=	166.8	0.0	15.0	94.8
=	167.4	0.0	15.0	94.7
=	168.0	0.0	15.0	94.6
=	168.6	0.0	15.0	94.5
=	169.2	0.0	15.0	94.5
=	169.7	0.0	15.0	94.4
=	170.4	0.0	15.0	94.4
=	170.9	0.0	15.0	94.3
=	171.4	0.0	15.0	94.2
=	172.1	0.0	15.0	94.1
=	172.8	0.0	15.0	94.1
=	173.3	0.0	15.0	94.0
=	174.0	0.0	15.0	94.0
=	174.8	0.0	15.0	93.9
=	175.4	0.0	15.0	93.8
=	176.1	0.0	15.0	93.8
=	176.7	0.0	15.0	93.7
=	177.3	0.0	15.0	93.7
=	177.9	0.0	15.0	93.6
=	178.5	0.0	15.0	93.5
=	179.1	0.0	15.0	93.4
=	179.7	0.0	15.0	93.4
=	180.4	0.0	15.0	93.3
=	181.2	0.0	15.0	93.2
=	181.8	0.0	15.0	93.2
=	182.4	0.0	15.0	93.1
=	183.0	0.0	15.0	93.0
=	183.5	0.0	15.0	92.9
=	184.3	0.0	15.0	92.8
=	184.8	0.0	15.0	92.8
=	185.4	0.0	15.0	92.7
=	186.0	0.0	15.0	92.6
=	186.6	0.0	15.0	92.5
=	187.2	0.0	15.0	92.4
=	187.8	0.0	15.0	92.3
=	188.3	0.0	15.0	92.2
=	188.8	0.0	15.0	92.2
=	189.4	0.0	15.0	92.1
=	190.0	0.0	15.0	91.9
=	190.6	0.0	15.0	91.8
=	191.2	0.0	15.0	91.6
=	191.9	0.0	15.0	91.4
=	192.7	0.0	15.0	91.2
=	193.3	0.0	15.0	91.0
=	193.9	0.0	15.0	90.7
=	194.6	0.0	15.0	90.1
=	195.4	0.0	15.0	89.4
=	196.0	0.0	15.0	88.7
=	196.7	0.0	15.0	87.8
=	197.3	0.0	15.0	86.6
=	197.9	0.0	15.0	85.0
=	198.7	0.0	15.0	82.1
=	199.3	0.0	15.0	78.8
=	199.9	0.0	15.0	75.1
=	200.5	0.0	15.0	71.3
=	201.0	0.0	15.0	67.2
=	201.6	0.0	15.0	62.0
=	202.2	0.0	15.0	57.2
=	202.8	0.0	15.0	51.5
=	203.5	0.0	15.0	44.7
=	204.2	0.0	15.0	39.4
=	204.8	0.0	15.0	34.5
=	205.6	0.0	15.0	29.2
=	206.1	0.0	15.0	25.7
=	206.8	0.0	15.0	22.4
=	207.4	0.0	15.0	19.5
=	208.0	0.0	15.0	17.4
=	208.8	0.0	15.0	15.5
=	209.4	0.0	15.0	14.5
=	210.1	0.0	15.0	13.6
=	210.7	0.0	15.0	13.1
=	211.3	0.0	15.0	12.6
=	211.9	0.0	15.0	12.3
=	212.5	0.0	15.0	12.0
=	213.1	0.0	15.0	11.8
=	213.7	0.0	15.0	11.6
=	214.2	0.0	15.0	11.5
=	214.8	0.0	15.0	11.3
=	215.4	0.0	15.0	11.1
=	215.9	0.0	15.0	11.0
=	216.5	0.0	15.0	10.9
=	217.0	0.0	15.0	10.8
=	217.8	0.0	15.0	10.7
=	218.6	0.0	15.0	10.6
=	219.2	0.0	15.0	10.4
=	219.8	0.0	15.0	10.3
=	220.4	0.0	15.0	10.3
=	221.0	0.0	15.0	10.2
=	221.5	0.0	15.0	10.1
=	222.2	0.0	15.0	10.0
=	222.9	0.0	15.0	9.9
=	223.5	0.0	15.0	9.8
=	224.3	0.0	15.0	9.7
=	224.9	0.0	15.0	9.6
=	225.7	0.0	15.0	9.5
=	226.3	0.0	15.0	9.5
=	226.9	0.0	15.0	9.4
=	227.5	0.0	15.0	9.3
=	228.0	0.0	15.0	9.3
=	228.6	0.0	15.0	9.2
=	229.2	0.0	15.0	9.1
=	229.9	0.0	15.0	9.1
=	230.5	0.0	15.0	9.0
=	231.1	0.0	15.0	9.0
=	231.7	0.0	15.0	8.9
=	232.3	0.0	15.0	8.8
=	233.0	0.0	15.0	8.8
=	233.6	0.0	15.0	8.7
=	234.2	0.0	15.0	8.7
=	234.9	0.0	15.0	8.6
=	235.4	0.0	15.0	8.6
=	235.9	0.0	15.0	8.6
=	236.5	0.0	15.0	8.5
=	237.2	0.0	15.0	8.5
=	237.9	0.0	15.0	8.4
=	238.7	0.0	15.0	8.4
=	239.2	0.0	15.0	8.4
=	239.8	0.0	15.0	8.3
=	240.3	0.0	15.0	8.3
=	241.0	0.0	15.0	8.3
=	241.7	0.0	15.0	8.2
=	242.3	0.0	15.0	8.2
=	242.9	0.0	15.0	8.2
=	243.6	0.0	15.0	8.1
=	244.2	0.0	15.0	8.1
=	244.7	0.0	15.0	8.0
=	245.3	0.0	15.0	8.0
=	246.0	0.0	15.0	7.9
=	246.7	0.0	15.0	7.9
=	247.3	0.0	15.0	7.8
=	247.9	0.0	15.0	7.8
=	248.5	0.0	15.0	7.8
=	249.3	0.0	15.0	7.7
=	250.0	0.0	15.0	7.7
=	250.6	0.0	15.0	7.7
=	251.3	0.0	15.0	7.6
=	251.8	0.0	15.0	7.6
=	252.5	0.0	15.0	7.5
:EOM # End of Measurement
#
# RFA300 ASCII Measurement Dump ( BDS format )
#
# Measurement number 	2
#
%VNR 1.0
%MOD 	RAT
%TYP 	SCN
%SCN 	PRO
%FLD 	ION
%DAT 	10-14-2011
%TIM 	12:00:00
%FSZ 	400	200
%BMT 	PHO	   6.0
%SSD 	1000
%BUP 	0
%BRD 	1000
%FSH 	1
%ASC 	0
%WEG 	45
%GPO 	0
%CPO 	0
%MEA 	6
%PRD 	50,0
%PTS 	846
%STS 	    -259.8	  0.0	   50.0 # Start Scan values in mm ( X , Y , Z )
%EDS 	    259.4	   0.0	   50.0 # End Scan values in mm ( X , Y , Z )
#
#	  X      Y      Z     Dose
#
=	-259.8	0.0	50.0	7.9
=	-259.1	0.0	50.0	8.0
=	-258.5	0.0	50.0	8.0
=	-257.8	0.0	50.0	8.0
=	-257.0	0.0	50.0	8.1
=	-256.5	0.0	50.0	8.1
=	-255.8	0.0	50.0	8.2
=	-255.0	0.0	50.0	8.2
=	-254.4	0.0	50.0	8.3
=	-253.9	0.0	50.0	8.3
=	-253.3	0.0	50.0	8.4
=	-252.7	0.0	50.0	8.4
=	-252.0	0.0	50.0	8.5
=	-251.4	0.0	50.0	8.5
=	-250.8	0.0	50.0	8.5
=	-250.3	0.0	50.0	8.6
=	-249.8	0.0	50.0	8.6
=	-249.1	0.0	50.0	8.7
=	-248.4	0.0	50.0	8.7
=	-247.8	0.0	50.0	8.8
=	-247.2	0.0	50.0	8.8
=	-246.5	0.0	50.0	8.9
=	-245.8	0.0	50.0	9.0
=	-245.0	0.0	50.0	9.0
=	-244.3	0.0	50.0	9.1
=	-243.5	0.0	50.0	9.2
=	-242.9	0.0	50.0	9.2
=	-242.2	0.0	50.0	9.3
=	-241.5	0.0	50.0	9.3
=	-240.8	0.0	50.0	9.5
=	-240.2	0.0	50.0	9.5
=	-239.6	0.0	50.0	9.6
=	-239.0	0.0	50.0	9.7
=	-238.3	0.0	50.0	9.8
=	-237.7	0.0	50.0	9.9
=	-237.1	0.0	50.0	10.0
=	-236.6	0.0	50.0	10.0
=	-236.1	0.0	50.0	10.1
=	-235.5	0.0	50.0	10.2
=	-234.8	0.0	50.0	10.2
=	-234.3	0.0	50.0	10.3
=	-233.7	0.0	50.0	10.4
=	-233.1	0.0	50.0	10.5
=	-232.4	0.0	50.0	10.7
=	-231.8	0.0	50.0	10.7
=	-231.1	0.0	50.0	10.9
=	-230.4	0.0	50.0	11.0
=	-229.6	0.0	50.0	11.1
=	-229.1	0.0	50.0	11.2
=	-228.5	0.0	50.0	11.3
=	-227.9	0.0	50.0	11.4
=	-227.3	0.0	50.0	11.5
=	-226.7	0.0	50.0	11.7
=	-226.1	0.0	50.0	11.8
=	-225.6	0.0	50.0	11.9
=	-225.1	0.0	50.0	12.0
=	-224.6	0.0	50.0	12.1
=	-224.0	0.0	50.0	12.3
=	-223.5	0.0	50.0	12.4
=	-222.9	0.0	50.0	12.6
=	-222.2	0.0	50.0	12.8
=	-221.7	0.0	50.0	12.9
=	-221.1	0.0	50.0	13.1
=	-220.5	0.0	50.0	13.4
=	-219.8	0.0	50.0	13.6
=	-219.3	0.0	50.0	13.9
=	-218.7	0.0	50.0	14.3
=	-218.0	0.0	50.0	14.8
=	-217.3	0.0	50.0	15.4
=	-216.7	0.0	50.0	16.2
=	-216.2	0.0	50.0	17.0
=	-215.5	0.0	50.0	18.3
=	-215.0	0.0	50.0	19.7
=	-214.3	0.0	50.0	21.8
=	-213.6	0.0	50.0	24.6
=	-213.1	0.0	50.0	27.3
=	-212.5	0.0	50.0	30.6
=	-211.9	0.0	50.0	34.3
=	-211.4	0.0	50.0	37.7
=	-210.8	0.0	50.0	42.5
=	-209.9	0.0	50.0	48.8
=	-209.1	0.0	50.0	55.2
=	-208.4	0.0	50.0	61.0
=	-207.8	0.0	50.0	65.7
=	-207.1	0.0	50.0	70.7
=	-206.5	0.0	50.0	74.2
=	-206.0	0.0	50.0	77.1
=	-205.5	0.0	50.0	79.3
=	-204.9	0.0	50.0	81.3
=	-204.2	0.0	50.0	83.1
=	-203.7	0.0	50.0	84.4
=	-203.1	0.0	50.0	85.2
=	-202.5	0.0	50.0	86.2
=	-201.9	0.0	50.0	86.8
=	-201.3	0.0	50.0	87.4
=	-200.8	0.0	50.0	87.7
=	-200.1	0.0	50.0	88.0
=	-199.5	0.0	50.0	88.4
=	-199.0	0.0	50.0	88.8
=	-198.3	0.0	50.0	89.0
=	-197.6	0.0	50.0	89.2
=	-197.0	0.0	50.0	89.4
=	-196.3	0.0	50.0	89.6
=	-195.6	0.0	50.0	89.7
=	-195.0	0.0	50.0	90.0
=	-194.4	0.0	50.0	90.1
=	-193.8	0.0	50.0	90.4
=	-193.1	0.0	50.0	90.5
=	-192.5	0.0	50.0	90.7
=	-191.9	0.0	50.0	90.8
=	-191.2	0.0	50.0	90.9
=	-190.5	0.0	50.0	91.0
=	-189.8	0.0	50.0	91.1
=	-189.2	0.0	50.0	91.3
=	-188.6	0.0	50.0	91.4
=	-188.0	0.0	50.0	91.5
=	-187.4	0.0	50.0	91.6
=	-186.8	0.0	50.0	91.6
=	-186.2	0.0	50.0	91.7
=	-185.6	0.0	50.0	91.8
=	-185.0	0.0	50.0	91.9
=	-184.3	0.0	50.0	92.0
=	-183.6	0.0	50.0	92.1
=	-182.9	0.0	50.0	92.2
=	-182.1	0.0	50.0	92.3
=	-181.5	0.0	50.0	92.4
=	-180.9	0.0	50.0	92.5
=	-180.3	0.0	50.0	92.5
=	-179.7	0.0	50.0	92.7
=	-179.1	0.0	50.0	92.7
=	-178.5	0.0	50.0	92.9
=	-177.9	0.0	50.0	92.9
=	-177.1	0.0	50.0	93.0
=	-176.6	0.0	50.0	93.1
=	-176.0	0.0	50.0	93.2
=	-175.4	0.0	50.0	93.2
=	-174.8	0.0	50.0	93.3
=	-174.2	0.0	50.0	93.4
=	-173.5	0.0	50.0	93.5
=	-172.9	0.0	50.0	93.5
=	-172.3	0.0	50.0	93.6
=	-171.7	0.0	50.0	93.7
=	-171.1	0.0	50.0	93.8
=	-170.4	0.0	50.0	93.9
=	-169.8	0.0	50.0	93.9
=	-169.3	0.0	50.0	94.0
=	-168.8	0.0	50.0	94.1
=	-168.2	0.0	50.0	94.1
=	-167.5	0.0	50.0	94.2
=	-166.9	0.0	50.0	94.3
=	-166.4	0.0	50.0	94.3
=	-165.7	0.0	50.0	94.4
=	-165.1	0.0	50.0	94.5
=	-164.7	0.0	50.0	94.5
=	-164.1	0.0	50.0	94.5
=	-163.5	0.0	50.0	94.6
=	-163.0	0.0	50.0	94.6
=	-162.4	0.0	50.0	94.7
=	-161.8	0.0	50.0	94.8
=	-161.0	0.0	50.0	94.9
=	-160.3	0.0	50.0	94.9
=	-159.6	0.0	50.0	95.0
=	-158.9	0.0	50.0	95.1
=	-158.3	0.0	50.0	95.1
=	-157.8	0.0	50.0	95.1
=	-157.2	0.0	50.0	95.2
=	-156.6	0.0	50.0	95.3
=	-155.9	0.0	50.0	95.3
=	-155.3	0.0	50.0	95.4
=	-154.7	0.0	50.0	95.4
=	-154.2	0.0	50.0	95.5
=	-153.6	0.0	50.0	95.5
=	-153.0	0.0	50.0	95.5
=	-152.4	0.0	50.0	95.6
=	-151.8	0.0	50.0	95.6
=	-151.1	0.0	50.0	95.7
=	-150.4	0.0	50.0	95.7
=	-149.9	0.0	50.0	95.8
=	-149.4	0.0	50.0	95.8
=	-148.7	0.0	50.0	95.9
=	-148.2	0.0	50.0	95.9
=	-147.6	0.0	50.0	96.0
=	-147.0	0.0	50.0	96.0
=	-146.3	0.0	50.0	96.1
=	-145.6	0.0	50.0	96.1
=	-144.9	0.0	50.0	96.2
=	-144.2	0.0	50.0	96.3
=	-143.4	0.0	50.0	96.3
=	-142.8	0.0	50.0	96.4
=	-142.1	0.0	50.0	96.4
=	-141.6	0.0	50.0	96.4
=	-140.9	0.0	50.0	96.5
=	-140.3	0.0	50.0	96.5
=	-139.7	0.0	50.0	96.5
=	-139.1	0.0	50.0	96.5
=	-138.3	0.0	50.0	96.6
=	-137.7	0.0	50.0	96.7
=	-137.1	0.0	50.0	96.7
=	-136.4	0.0	50.0	96.7
=	-135.7	0.0	50.0	96.7
=	-135.0	0.0	50.0	96.8
=	-134.3	0.0	50.0	96.8
=	-133.7	0.0	50.0	96.9
=	-133.1	0.0	50.0	97.0
=	-132.4	0.0	50.0	97.0
=	-131.7	0.0	50.0	97.1
=	-131.1	0.0	50.0	97.1
=	-130.6	0.0	50.0	97.1
=	-130.0	0.0	50.0	97.2
=	-129.2	0.0	50.0	97.2
=	-128.6	0.0	50.0	97.3
=	-128.1	0.0	50.0	97.3
=	-127.5	0.0	50.0	97.4
=	-127.0	0.0	50.0	97.4
=	-126.5	0.0	50.0	97.5
=	-125.8	0.0	50.0	97.5
=	-125.3	0.0	50.0	97.6
=	-124.8	0.0	50.0	97.6
=	-124.2	0.0	50.0	97.6
=	-123.7	0.0	50.0	97.6
=	-123.1	0.0	50.0	97.6
=	-122.5	0.0	50.0	97.7
=	-121.7	0.0	50.0	97.7
=	-121.2	0.0	50.0	97.7
=	-120.6	0.0	50.0	97.8
=	-120.0	0.0	50.0	97.9
=	-119.5	0.0	50.0	97.9
=	-118.9	0.0	50.0	98.0
=	-118.3	0.0	50.0	98.0
=	-117.8	0.0	50.0	98.0
=	-117.3	0.0	50.0	98.0
=	-116.8	0.0	50.0	98.1
=	-116.2	0.0	50.0	98.0
=	-115.7	0.0	50.0	98.1
=	-115.1	0.0	50.0	98.1
=	-114.6	0.0	50.0	98.1
=	-114.1	0.0	50.0	98.2
=	-113.4	0.0	50.0	98.2
=	-112.8	0.0	50.0	98.2
=	-112.3	0.0	50.0	98.3
=	-111.7	0.0	50.0	98.3
=	-111.1	0.0	50.0	98.4
=	-110.5	0.0	50.0	98.4
=	-110.0	0.0	50.0	98.5
=	-109.5	0.0	50.0	98.5
=	-108.9	0.0	50.0	98.5
=	-108.4	0.0	50.0	98.6
=	-107.8	0.0	50.0	98.6
=	-107.1	0.0	50.0	98.6
=	-106.4	0.0	50.0	98.7
=	-105.7	0.0	50.0	98.7
=	-105.1	0.0	50.0	98.7
=	-104.6	0.0	50.0	98.8
=	-103.9	0.0	50.0	98.8
=	-103.2	0.0	50.0	98.8
=	-102.6	0.0	50.0	98.8
=	-102.1	0.0	50.0	98.8
=	-101.4	0.0	50.0	98.8
=	-100.6	0.0	50.0	98.9
=	-100.0	0.0	50.0	98.9
=	-99.2	0.0	50.0	99.0
=	-98.6	0.0	50.0	99.0
=	-97.8	0.0	50.0	99.1
=	-97.2	0.0	50.0	99.1
=	-96.4	0.0	50.0	99.2
=	-95.8	0.0	50.0	99.2
=	-95.2	0.0	50.0	99.2
=	-94.7	0.0	50.0	99.2
=	-94.2	0.0	50.0	99.2
=	-93.6	0.0	50.0	99.3
=	-92.9	0.0	50.0	99.3
=	-92.3	0.0	50.0	99.4
=	-91.7	0.0	50.0	99.4
=	-91.2	0.0	50.0	99.4
=	-90.6	0.0	50.0	99.4
=	-90.1	0.0	50.0	99.4
=	-89.5	0.0	50.0	99.5
=	-88.9	0.0	50.0	99.5
=	-88.3	0.0	50.0	99.6
=	-87.7	0.0	50.0	99.6
=	-87.0	0.0	50.0	99.6
=	-86.4	0.0	50.0	99.7
=	-85.8	0.0	50.0	99.8
=	-85.3	0.0	50.0	99.7
=	-84.6	0.0	50.0	99.8
=	-83.8	0.0	50.0	99.8
=	-83.2	0.0	50.0	99.8
=	-82.7	0.0	50.0	99.8
=	-82.0	0.0	50.0	99.8
=	-81.5	0.0	50.0	99.9
=	-80.9	0.0	50.0	99.9
=	-80.2	0.0	50.0	99.9
=	-79.7	0.0	50.0	99.9
=	-79.1	0.0	50.0	99.9
=	-78.4	0.0	50.0	99.9
=	-77.7	0.0	50.0	100.0
=	-77.0	0.0	50.0	100.0
=	-76.3	0.0	50.0	100.1
=	-75.6	0.0	50.0	100.1
=	-75.1	0.0	50.0	100.1
=	-74.6	0.0	50.0	100.1
=	-74.0	0.0	50.0	100.1
=	-73.4	0.0	50.0	100.1
=	-72.9	0.0	50.0	100.1
=	-72.3	0.0	50.0	100.2
=	-71.8	0.0	50.0	100.2
=	-71.1	0.0	50.0	100.2
=	-70.4	0.0	50.0	100.2
=	-69.8	0.0	50.0	100.2
=	-69.2	0.0	50.0	100.2
=	-68.6	0.0	50.0	100.2
=	-67.7	0.0	50.0	100.3
=	-67.1	0.0	50.0	100.3
=	-66.5	0.0	50.0	100.3
=	-65.8	0.0	50.0	100.3
=	-65.2	0.0	50.0	100.4
=	-64.7	0.0	50.0	100.4
=	-64.2	0.0	50.0	100.4
=	-63.6	0.0	50.0	100.4
=	-62.9	0.0	50.0	100.4
=	-62.2	0.0	50.0	100.5
=	-61.7	0.0	50.0	100.5
=	-61.1	0.0	50.0	100.5
=	-60.5	0.0	50.0	100.5
=	-59.8	0.0	50.0	100.5
=	-59.2	0.0	50.0	100.5
=	-58.5	0.0	50.0	100.5
=	-58.0	0.0	50.0	100.5
=	-57.4	0.0	50.0	100.5
=	-56.7	0.0	50.0	100.5
=	-56.2	0.0	50.0	100.5
=	-55.5	0.0	50.0	100.5
=	-54.9	0.0	50.0	100.5
=	-54.4	0.0	50.0	100.5
=	-53.9	0.0	50.0	100.6
=	-53.3	0.0	50.0	100.6
=	-52.6	0.0	50.0	100.5
=	-52.0	0.0	50.0	100.6
=	-51.5	0.0	50.0	100.6
=	-50.9	0.0	50.0	100.6
=	-50.3	0.0	50.0	100.6
=	-49.6	0.0	50.0	100.6
=	-48.9	0.0	50.0	100.6
=	-48.3	0.0	50.0	100.6
=	-47.8	0.0	50.0	100.6
=	-47.2	0.0	50.0	100.6
=	-46.6	0.0	50.0	100.5
=	-46.1	0.0	50.0	100.5
=	-45.5	0.0	50.0	100.5
=	-44.7	0.0	50.0	100.5
=	-44.0	0.0	50.0	100.5
=	-43.4	0.0	50.0	100.5
=	-42.9	0.0	50.0	100.5
=	-42.3	0.0	50.0	100.5
=	-41.6	0.0	50.0	100.5
=	-40.9	0.0	50.0	100.4
=	-40.2	0.0	50.0	100.4
=	-39.4	0.0	50.0	100.4
=	-38.7	0.0	50.0	100.4
=	-38.3	0.0	50.0	100.4
=	-37.6	0.0	50.0	100.4
=	-37.0	0.0	50.0	100.4
=	-36.5	0.0	50.0	100.4
=	-35.9	0.0	50.0	100.4
=	-35.3	0.0	50.0	100.4
=	-34.7	0.0	50.0	100.4
=	-34.1	0.0	50.0	100.4
=	-33.4	0.0	50.0	100.3
=	-32.7	0.0	50.0	100.3
=	-32.2	0.0	50.0	100.3
=	-31.7	0.0	50.0	100.4
=	-31.1	0.0	50.0	100.3
=	-30.6	0.0	50.0	100.3
=	-30.1	0.0	50.0	100.3
=	-29.5	0.0	50.0	100.3
=	-28.8	0.0	50.0	100.3
=	-28.2	0.0	50.0	100.3
=	-27.7	0.0	50.0	100.4
=	-27.1	0.0	50.0	100.4
=	-26.3	0.0	50.0	100.4
=	-25.7	0.0	50.0	100.4
=	-24.9	0.0	50.0	100.4
=	-24.3	0.0	50.0	100.4
=	-23.6	0.0	50.0	100.4
=	-23.0	0.0	50.0	100.4
=	-22.3	0.0	50.0	100.3
=	-21.7	0.0	50.0	100.3
=	-21.1	0.0	50.0	100.3
=	-20.5	0.0	50.0	100.4
=	-19.9	0.0	50.0	100.4
=	-19.3	0.0	50.0	100.4
=	-18.7	0.0	50.0	100.4
=	-18.1	0.0	50.0	100.4
=	-17.5	0.0	50.0	100.4
=	-17.0	0.0	50.0	100.4
=	-16.3	0.0	50.0	100.3
=	-15.7	0.0	50.0	100.3
=	-15.1	0.0	50.0	100.4
=	-14.5	0.0	50.0	100.3
=	-13.7	0.0	50.0	100.3
=	-13.1	0.0	50.0	100.2
=	-12.4	0.0	50.0	100.2
=	-11.8	0.0	50.0	100.2
=	-11.2	0.0	50.0	100.1
=	-10.6	0.0	50.0	100.1
=	-9.9	0.0	50.0	100.1
=	-9.3	0.0	50.0	100.0
=	-8.7	0.0	50.0	100.1
=	-8.1	0.0	50.0	100.1
=	-7.5	0.0	50.0	100.1
=	-7.0	0.0	50.0	100.0
=	-6.5	0.0	50.0	100.1
=	-5.9	0.0	50.0	100.1
=	-5.3	0.0	50.0	100.0
=	-4.8	0.0	50.0	100.0
=	-4.3	0.0	50.0	100.0
=	-3.7	0.0	50.0	100.0
=	-3.1	0.0	50.0	100.0
=	-2.6	0.0	50.0	100.0
=	-2.0	0.0	50.0	100.0
=	-1.5	0.0	50.0	100.0
=	-0.8	0.0	50.0	100.0
=	-0.2	0.0	50.0	100.0
=	0.0	0.0	50.0	100.0
=	0.5	0.0	50.0	100.0
=	1.2	0.0	50.0	100.0
=	1.8	0.0	50.0	100.0
=	2.3	0.0	50.0	100.0
=	2.9	0.0	50.0	100.0
=	3.4	0.0	50.0	100.0
=	4.0	0.0	50.0	100.0
=	4.5	0.0	50.0	100.0
=	5.1	0.0	50.0	100.0
=	5.6	0.0	50.0	100.0
=	6.2	0.0	50.0	100.1
=	6.8	0.0	50.0	100.0
=	7.3	0.0	50.0	100.0
=	7.8	0.0	50.0	100.1
=	8.4	0.0	50.0	100.1
=	9.0	0.0	50.0	100.1
=	9.6	0.0	50.0	100.0
=	10.2	0.0	50.0	100.1
=	10.9	0.0	50.0	100.1
=	11.5	0.0	50.0	100.1
=	12.1	0.0	50.0	100.2
=	12.8	0.0	50.0	100.2
=	13.4	0.0	50.0	100.3
=	14.1	0.0	50.0	100.3
=	14.8	0.0	50.0	100.3
=	15.4	0.0	50.0	100.3
=	16.0	0.0	50.0	100.3
=	16.7	0.0	50.0	100.4
=	17.3	0.0	50.0	100.4
=	17.8	0.0	50.0	100.4
=	18.4	0.0	50.0	100.4
=	19.0	0.0	50.0	100.4
=	19.5	0.0	50.0	100.4
=	20.2	0.0	50.0	100.4
=	20.8	0.0	50.0	100.3
=	21.4	0.0	50.0	100.3
