:MSR 	4	 # No. of measurement in file
:SYS BDS 0   # Beam Data Scanner System
#
# RFA300 ASCII Measurement Dump ( BDS format )
#
# Measurement number 	1
#
%VNR 1.0
%MOD 	RAT
%TYP 	SCN
%SCN 	DPT
%FLD 	ION
%DAT 	09-23-2011
%TIM 	12:00:00
%FSZ 	040	040
%BMT 	PHO	   6.0
%SSD 	1000
%BUP 	0
%BRD 	1000
%FSH 	1
%ASC 	0
%WEG 	45
%GPO 	0
%CPO 	0
%MEA 	5
%PRD 	0,0
%PTS 	736
%STS 	    0.0	  0.0	   0.0 # Start Scan values in mm ( X , Y , Z )
%EDS 	    0.0	   0.0	   347.8 # End Scan values in mm ( X , Y , Z )
#
#	  X      Y      Z     Dose
#
=	0.0	0.0	0.0	40.5
=	0.0	0.0	0.4	42.5
=	0.0	0.0	0.8	45.1
=	0.0	0.0	1.4	48.9
=	0.0	0.0	1.9	54.2
=	0.0	0.0	2.6	61.3
=	0.0	0.0	3.0	66.3
=	0.0	0.0	3.5	70.3
=	0.0	0.0	3.9	73.9
=	0.0	0.0	4.4	77.4
=	0.0	0.0	4.8	80.7
=	0.0	0.0	5.2	83.0
=	0.0	0.0	5.6	84.7
=	0.0	0.0	6.1	86.9
=	0.0	0.0	6.5	88.7
=	0.0	0.0	6.9	90.1
=	0.0	0.0	7.2	91.3
=	0.0	0.0	7.7	92.5
=	0.0	0.0	8.2	94.1
=	0.0	0.0	8.7	95.2
=	0.0	0.0	9.1	96.0
=	0.0	0.0	9.5	96.5
=	0.0	0.0	9.9	97.1
=	0.0	0.0	10.5	98.0
=	0.0	0.0	11.1	98.5
=	0.0	0.0	11.6	98.9
=	0.0	0.0	12.2	99.2
=	0.0	0.0	12.7	99.6
=	0.0	0.0	13.2	99.7
=	0.0	0.0	13.6	99.9
=	0.0	0.0	14.2	100.0
=	0.0	0.0	14.6	100.0
=	0.0	0.0	15.2	100.0
=	0.0	0.0	15.8	100.0
=	0.0	0.0	16.5	99.9
=	0.0	0.0	17.0	99.8
=	0.0	0.0	17.5	99.7
=	0.0	0.0	17.9	99.6
=	0.0	0.0	18.3	99.5
=	0.0	0.0	18.9	99.3
=	0.0	0.0	19.5	99.1
=	0.0	0.0	20.1	99.0
=	0.0	0.0	20.7	98.7
=	0.0	0.0	21.1	98.5
=	0.0	0.0	21.5	98.4
=	0.0	0.0	21.9	98.4
=	0.0	0.0	22.2	98.2
=	0.0	0.0	22.7	97.8
=	0.0	0.0	23.2	97.6
=	0.0	0.0	23.6	97.3
=	0.0	0.0	24.1	97.1
=	0.0	0.0	24.5	97.0
=	0.0	0.0	24.9	96.8
=	0.0	0.0	25.4	96.5
=	0.0	0.0	25.8	96.3
=	0.0	0.0	26.2	96.1
=	0.0	0.0	26.6	95.9
=	0.0	0.0	26.9	95.7
=	0.0	0.0	27.4	95.5
=	0.0	0.0	27.8	95.4
=	0.0	0.0	28.2	95.2
=	0.0	0.0	28.8	94.8
=	0.0	0.0	29.3	94.7
=	0.0	0.0	29.8	94.4
=	0.0	0.0	30.2	94.2
=	0.0	0.0	30.5	94.0
=	0.0	0.0	31.1	93.9
=	0.0	0.0	31.6	93.5
=	0.0	0.0	32.0	93.2
=	0.0	0.0	32.4	93.0
=	0.0	0.0	32.8	92.9
=	0.0	0.0	33.2	92.9
=	0.0	0.0	33.7	92.6
=	0.0	0.0	34.0	92.4
=	0.0	0.0	34.4	92.3
=	0.0	0.0	34.8	92.1
=	0.0	0.0	35.2	91.7
=	0.0	0.0	35.8	91.5
=	0.0	0.0	36.2	91.4
=	0.0	0.0	36.6	91.1
=	0.0	0.0	37.0	91.0
=	0.0	0.0	37.6	90.7
=	0.0	0.0	38.0	90.5
=	0.0	0.0	38.5	90.2
=	0.0	0.0	39.0	90.0
=	0.0	0.0	39.4	89.9
=	0.0	0.0	39.7	89.7
=	0.0	0.0	40.2	89.5
=	0.0	0.0	40.8	89.1
=	0.0	0.0	41.3	88.9
=	0.0	0.0	41.7	88.6
=	0.0	0.0	42.1	88.4
=	0.0	0.0	42.5	88.2
=	0.0	0.0	42.9	88.1
=	0.0	0.0	43.4	87.9
=	0.0	0.0	43.8	87.7
=	0.0	0.0	44.1	87.6
=	0.0	0.0	44.6	87.3
=	0.0	0.0	45.0	87.1
=	0.0	0.0	45.4	86.9
=	0.0	0.0	45.9	86.7
=	0.0	0.0	46.3	86.6
=	0.0	0.0	46.8	86.5
=	0.0	0.0	47.2	86.2
=	0.0	0.0	47.6	86.1
=	0.0	0.0	48.0	85.8
=	0.0	0.0	48.3	85.6
=	0.0	0.0	48.7	85.3
=	0.0	0.0	49.1	85.1
=	0.0	0.0	49.5	84.9
=	0.0	0.0	50.0	84.7
=	0.0	0.0	50.5	84.4
=	0.0	0.0	51.1	84.2
=	0.0	0.0	51.6	84.1
=	0.0	0.0	52.1	83.9
=	0.0	0.0	52.6	83.6
=	0.0	0.0	53.1	83.3
=	0.0	0.0	53.6	83.1
=	0.0	0.0	54.0	83.0
=	0.0	0.0	54.5	82.8
=	0.0	0.0	54.9	82.7
=	0.0	0.0	55.2	82.5
=	0.0	0.0	55.5	82.2
=	0.0	0.0	56.0	82.0
=	0.0	0.0	56.4	81.9
=	0.0	0.0	56.9	81.7
=	0.0	0.0	57.5	81.4
=	0.0	0.0	58.0	81.0
=	0.0	0.0	58.4	80.9
=	0.0	0.0	58.8	80.7
=	0.0	0.0	59.2	80.6
=	0.0	0.0	59.8	80.3
=	0.0	0.0	60.3	80.0
=	0.0	0.0	60.9	79.8
=	0.0	0.0	61.6	79.4
=	0.0	0.0	62.2	79.1
=	0.0	0.0	62.7	79.0
=	0.0	0.0	63.2	78.9
=	0.0	0.0	63.7	78.6
=	0.0	0.0	64.3	78.4
=	0.0	0.0	64.7	78.2
=	0.0	0.0	65.2	77.9
=	0.0	0.0	65.6	77.7
=	0.0	0.0	66.1	77.4
=	0.0	0.0	66.6	77.2
=	0.0	0.0	67.1	77.1
=	0.0	0.0	67.5	76.9
=	0.0	0.0	67.9	76.7
=	0.0	0.0	68.5	76.6
=	0.0	0.0	68.9	76.3
=	0.0	0.0	69.3	76.2
=	0.0	0.0	69.6	76.0
=	0.0	0.0	70.0	75.8
=	0.0	0.0	70.5	75.6
=	0.0	0.0	71.0	75.3
=	0.0	0.0	71.7	75.0
=	0.0	0.0	72.3	74.9
=	0.0	0.0	72.8	74.6
=	0.0	0.0	73.3	74.4
=	0.0	0.0	73.8	74.1
=	0.0	0.0	74.4	73.9
=	0.0	0.0	74.8	73.7
=	0.0	0.0	75.3	73.6
=	0.0	0.0	75.8	73.4
=	0.0	0.0	76.4	73.1
=	0.0	0.0	76.8	72.9
=	0.0	0.0	77.3	72.8
=	0.0	0.0	77.7	72.7
=	0.0	0.0	78.2	72.4
=	0.0	0.0	78.6	72.2
=	0.0	0.0	79.1	72.0
=	0.0	0.0	79.5	71.8
=	0.0	0.0	80.0	71.6
=	0.0	0.0	80.6	71.3
=	0.0	0.0	81.1	71.1
=	0.0	0.0	81.6	71.0
=	0.0	0.0	82.0	70.8
=	0.0	0.0	82.4	70.7
=	0.0	0.0	82.8	70.5
=	0.0	0.0	83.3	70.3
=	0.0	0.0	83.7	70.1
=	0.0	0.0	84.2	69.9
=	0.0	0.0	84.7	69.7
=	0.0	0.0	85.1	69.6
=	0.0	0.0	85.6	69.5
=	0.0	0.0	86.0	69.3
=	0.0	0.0	86.5	69.0
=	0.0	0.0	87.2	68.8
=	0.0	0.0	87.8	68.5
=	0.0	0.0	88.2	68.3
=	0.0	0.0	88.6	68.1
=	0.0	0.0	89.1	67.9
=	0.0	0.0	89.7	67.7
=	0.0	0.0	90.2	67.4
=	0.0	0.0	90.7	67.3
=	0.0	0.0	91.1	67.2
=	0.0	0.0	91.7	66.9
=	0.0	0.0	92.1	66.7
=	0.0	0.0	92.5	66.6
=	0.0	0.0	92.9	66.5
=	0.0	0.0	93.3	66.3
=	0.0	0.0	93.7	66.1
=	0.0	0.0	94.1	65.9
=	0.0	0.0	94.5	65.7
=	0.0	0.0	94.9	65.5
=	0.0	0.0	95.3	65.5
=	0.0	0.0	95.7	65.3
=	0.0	0.0	96.1	65.2
=	0.0	0.0	96.7	65.0
=	0.0	0.0	97.3	64.8
=	0.0	0.0	97.8	64.6
=	0.0	0.0	98.2	64.4
=	0.0	0.0	98.6	64.2
=	0.0	0.0	99.1	64.1
=	0.0	0.0	99.6	63.9
=	0.0	0.0	100.2	63.6
=	0.0	0.0	100.8	63.3
=	0.0	0.0	101.2	63.2
=	0.0	0.0	101.6	63.1
=	0.0	0.0	102.0	62.9
=	0.0	0.0	102.6	62.7
=	0.0	0.0	103.2	62.5
=	0.0	0.0	103.6	62.3
=	0.0	0.0	103.9	62.2
=	0.0	0.0	104.3	62.1
=	0.0	0.0	104.7	62.0
=	0.0	0.0	105.0	61.9
=	0.0	0.0	105.4	61.7
=	0.0	0.0	106.0	61.4
=	0.0	0.0	106.4	61.3
=	0.0	0.0	106.7	61.2
=	0.0	0.0	107.1	61.1
=	0.0	0.0	107.5	61.0
=	0.0	0.0	108.1	60.8
=	0.0	0.0	108.7	60.6
=	0.0	0.0	109.3	60.4
=	0.0	0.0	109.8	60.2
=	0.0	0.0	110.3	60.0
=	0.0	0.0	110.7	59.8
=	0.0	0.0	111.1	59.6
=	0.0	0.0	111.7	59.5
=	0.0	0.0	112.3	59.4
=	0.0	0.0	112.9	59.2
=	0.0	0.0	113.4	59.0
=	0.0	0.0	113.8	58.8
=	0.0	0.0	114.3	58.6
=	0.0	0.0	114.8	58.5
=	0.0	0.0	115.4	58.2
=	0.0	0.0	115.8	58.1
=	0.0	0.0	116.4	57.9
=	0.0	0.0	116.9	57.7
=	0.0	0.0	117.3	57.6
=	0.0	0.0	117.7	57.5
=	0.0	0.0	118.1	57.3
=	0.0	0.0	118.6	57.0
=	0.0	0.0	119.3	56.8
=	0.0	0.0	119.8	56.8
=	0.0	0.0	120.2	56.7
=	0.0	0.0	120.7	56.4
=	0.0	0.0	121.1	56.3
=	0.0	0.0	121.5	56.1
=	0.0	0.0	122.0	56.0
=	0.0	0.0	122.5	55.9
=	0.0	0.0	122.9	55.7
=	0.0	0.0	123.5	55.5
=	0.0	0.0	124.0	55.3
=	0.0	0.0	124.6	55.2
=	0.0	0.0	125.2	55.0
=	0.0	0.0	125.8	54.8
=	0.0	0.0	126.2	54.6
=	0.0	0.0	126.6	54.5
=	0.0	0.0	127.1	54.3
=	0.0	0.0	127.5	54.2
=	0.0	0.0	127.9	54.1
=	0.0	0.0	128.5	54.0
=	0.0	0.0	128.9	53.8
=	0.0	0.0	129.5	53.6
=	0.0	0.0	129.9	53.5
=	0.0	0.0	130.5	53.4
=	0.0	0.0	131.1	53.2
=	0.0	0.0	131.7	53.0
=	0.0	0.0	132.2	52.8
=	0.0	0.0	132.6	52.7
=	0.0	0.0	133.2	52.5
=	0.0	0.0	133.6	52.3
=	0.0	0.0	134.2	52.2
=	0.0	0.0	134.6	52.1
=	0.0	0.0	135.1	52.0
=	0.0	0.0	135.6	51.8
=	0.0	0.0	136.1	51.7
=	0.0	0.0	136.4	51.6
=	0.0	0.0	137.0	51.4
=	0.0	0.0	137.5	51.2
=	0.0	0.0	137.8	51.1
=	0.0	0.0	138.2	51.0
=	0.0	0.0	138.6	50.9
=	0.0	0.0	139.1	50.7
=	0.0	0.0	139.7	50.6
=	0.0	0.0	140.3	50.4
=	0.0	0.0	140.8	50.2
=	0.0	0.0	141.2	50.1
=	0.0	0.0	141.7	50.0
=	0.0	0.0	142.2	49.8
=	0.0	0.0	142.6	49.7
=	0.0	0.0	143.2	49.5
=	0.0	0.0	143.6	49.4
=	0.0	0.0	144.1	49.3
=	0.0	0.0	144.5	49.1
=	0.0	0.0	144.9	49.0
=	0.0	0.0	145.4	48.9
=	0.0	0.0	145.8	48.7
=	0.0	0.0	146.2	48.5
=	0.0	0.0	146.7	48.4
=	0.0	0.0	147.2	48.2
=	0.0	0.0	147.6	48.2
=	0.0	0.0	148.0	48.1
=	0.0	0.0	148.5	48.0
=	0.0	0.0	148.9	47.9
=	0.0	0.0	149.3	47.8
=	0.0	0.0	149.7	47.7
=	0.0	0.0	150.1	47.5
=	0.0	0.0	150.6	47.4
=	0.0	0.0	151.0	47.3
=	0.0	0.0	151.4	47.2
=	0.0	0.0	151.8	47.1
=	0.0	0.0	152.3	47.0
=	0.0	0.0	152.8	46.8
=	0.0	0.0	153.3	46.7
=	0.0	0.0	153.7	46.5
=	0.0	0.0	154.2	46.4
=	0.0	0.0	154.6	46.3
=	0.0	0.0	155.0	46.3
=	0.0	0.0	155.4	46.1
=	0.0	0.0	155.8	46.0
=	0.0	0.0	156.3	45.9
=	0.0	0.0	156.9	45.7
=	0.0	0.0	157.3	45.6
=	0.0	0.0	157.8	45.4
=	0.0	0.0	158.2	45.4
=	0.0	0.0	158.6	45.3
=	0.0	0.0	159.0	45.2
=	0.0	0.0	159.3	45.1
=	0.0	0.0	159.7	45.0
=	0.0	0.0	160.3	44.8
=	0.0	0.0	160.7	44.7
=	0.0	0.0	161.2	44.7
=	0.0	0.0	161.6	44.6
=	0.0	0.0	162.0	44.5
=	0.0	0.0	162.4	44.2
=	0.0	0.0	162.9	44.1
=	0.0	0.0	163.4	44.0
=	0.0	0.0	164.0	43.9
=	0.0	0.0	164.4	43.8
=	0.0	0.0	164.8	43.6
=	0.0	0.0	165.2	43.6
=	0.0	0.0	165.7	43.5
=	0.0	0.0	166.1	43.4
=	0.0	0.0	166.5	43.3
=	0.0	0.0	166.9	43.2
=	0.0	0.0	167.3	43.1
=	0.0	0.0	168.0	42.9
=	0.0	0.0	168.5	42.8
=	0.0	0.0	169.0	42.6
=	0.0	0.0	169.4	42.5
=	0.0	0.0	169.8	42.5
=	0.0	0.0	170.4	42.2
=	0.0	0.0	171.0	42.1
=	0.0	0.0	171.5	42.0
=	0.0	0.0	172.0	41.9
=	0.0	0.0	172.4	41.8
=	0.0	0.0	172.9	41.7
=	0.0	0.0	173.4	41.6
=	0.0	0.0	173.9	41.5
=	0.0	0.0	174.3	41.3
=	0.0	0.0	174.7	41.2
=	0.0	0.0	175.3	41.1
=	0.0	0.0	175.8	41.0
=	0.0	0.0	176.2	40.9
=	0.0	0.0	176.6	40.8
=	0.0	0.0	177.1	40.7
=	0.0	0.0	177.6	40.6
=	0.0	0.0	178.2	40.4
=	0.0	0.0	178.8	40.3
=	0.0	0.0	179.5	40.2
=	0.0	0.0	180.1	40.1
=	0.0	0.0	180.6	39.9
=	0.0	0.0	181.2	39.8
=	0.0	0.0	181.7	39.6
=	0.0	0.0	182.3	39.5
=	0.0	0.0	183.0	39.3
=	0.0	0.0	183.5	39.2
=	0.0	0.0	183.9	39.1
=	0.0	0.0	184.3	39.1
=	0.0	0.0	184.6	39.0
=	0.0	0.0	185.2	38.8
=	0.0	0.0	185.7	38.7
=	0.0	0.0	186.1	38.6
=	0.0	0.0	186.6	38.5
=	0.0	0.0	187.0	38.4
=	0.0	0.0	187.4	38.3
=	0.0	0.0	187.8	38.2
=	0.0	0.0	188.2	38.1
=	0.0	0.0	188.6	38.0
=	0.0	0.0	188.9	37.9
=	0.0	0.0	189.2	37.9
=	0.0	0.0	189.7	37.8
=	0.0	0.0	190.3	37.7
=	0.0	0.0	190.8	37.6
=	0.0	0.0	191.2	37.5
=	0.0	0.0	191.6	37.4
=	0.0	0.0	192.1	37.3
=	0.0	0.0	192.6	37.2
=	0.0	0.0	193.1	37.0
=	0.0	0.0	193.6	37.0
=	0.0	0.0	194.2	36.9
=	0.0	0.0	194.8	36.7
=	0.0	0.0	195.3	36.6
=	0.0	0.0	195.7	36.5
=	0.0	0.0	196.1	36.4
=	0.0	0.0	196.5	36.3
=	0.0	0.0	196.9	36.3
=	0.0	0.0	197.4	36.2
=	0.0	0.0	197.8	36.0
=	0.0	0.0	198.2	36.0
=	0.0	0.0	198.6	35.9
=	0.0	0.0	199.1	35.8
=	0.0	0.0	199.5	35.7
=	0.0	0.0	199.9	35.6
=	0.0	0.0	200.4	35.5
=	0.0	0.0	200.9	35.4
=	0.0	0.0	201.4	35.4
=	0.0	0.0	201.9	35.3
=	0.0	0.0	202.3	35.2
=	0.0	0.0	202.8	35.1
=	0.0	0.0	203.4	34.9
=	0.0	0.0	203.9	34.8
=	0.0	0.0	204.4	34.8
=	0.0	0.0	204.8	34.7
=	0.0	0.0	205.2	34.7
=	0.0	0.0	205.7	34.5
=	0.0	0.0	206.2	34.4
=	0.0	0.0	206.6	34.4
=	0.0	0.0	206.9	34.3
=	0.0	0.0	207.3	34.2
=	0.0	0.0	207.8	34.2
=	0.0	0.0	208.2	34.1
=	0.0	0.0	208.7	33.9
=	0.0	0.0	209.4	33.8
=	0.0	0.0	209.9	33.7
=	0.0	0.0	210.4	33.6
=	0.0	0.0	211.0	33.5
=	0.0	0.0	211.4	33.4
=	0.0	0.0	212.1	33.3
=	0.0	0.0	212.6	33.1
=	0.0	0.0	213.2	33.0
=	0.0	0.0	213.7	33.0
=	0.0	0.0	214.1	32.9
=	0.0	0.0	214.6	32.8
=	0.0	0.0	215.0	32.8
=	0.0	0.0	215.4	32.7
=	0.0	0.0	215.9	32.6
=	0.0	0.0	216.5	32.5
=	0.0	0.0	217.1	32.4
=	0.0	0.0	217.7	32.3
=	0.0	0.0	218.1	32.1
=	0.0	0.0	218.6	32.1
=	0.0	0.0	219.1	32.0
=	0.0	0.0	219.6	31.9
=	0.0	0.0	220.0	31.8
=	0.0	0.0	220.5	31.7
=	0.0	0.0	220.9	31.6
=	0.0	0.0	221.4	31.6
=	0.0	0.0	221.9	31.5
=	0.0	0.0	222.4	31.4
=	0.0	0.0	222.8	31.3
=	0.0	0.0	223.2	31.3
=	0.0	0.0	223.6	31.2
=	0.0	0.0	224.1	31.1
=	0.0	0.0	224.6	31.1
=	0.0	0.0	225.1	30.9
=	0.0	0.0	225.6	30.8
=	0.0	0.0	226.1	30.8
=	0.0	0.0	226.6	30.7
=	0.0	0.0	227.0	30.6
=	0.0	0.0	227.6	30.5
=	0.0	0.0	228.1	30.4
=	0.0	0.0	228.5	30.3
=	0.0	0.0	229.0	30.2
=	0.0	0.0	229.5	30.2
=	0.0	0.0	229.9	30.1
=	0.0	0.0	230.5	30.1
=	0.0	0.0	230.9	30.0
=	0.0	0.0	231.4	29.9
=	0.0	0.0	231.9	29.7
=	0.0	0.0	232.3	29.6
=	0.0	0.0	232.7	29.6
=	0.0	0.0	233.1	29.5
=	0.0	0.0	233.5	29.4
=	0.0	0.0	234.1	29.3
=	0.0	0.0	234.6	29.3
=	0.0	0.0	235.1	29.2
=	0.0	0.0	235.7	29.1
=	0.0	0.0	236.2	29.0
=	0.0	0.0	236.8	28.9
=	0.0	0.0	237.2	28.9
=	0.0	0.0	237.8	28.7
=	0.0	0.0	238.3	28.7
=	0.0	0.0	238.7	28.6
=	0.0	0.0	239.1	28.6
=	0.0	0.0	239.6	28.5
=	0.0	0.0	240.0	28.4
=	0.0	0.0	240.4	28.3
=	0.0	0.0	240.9	28.2
=	0.0	0.0	241.4	28.1
=	0.0	0.0	241.8	28.1
=	0.0	0.0	242.3	28.0
=	0.0	0.0	242.8	27.9
=	0.0	0.0	243.2	27.8
=	0.0	0.0	243.7	27.8
=	0.0	0.0	244.1	27.7
=	0.0	0.0	244.6	27.6
=	0.0	0.0	245.0	27.6
=	0.0	0.0	245.5	27.5
=	0.0	0.0	246.0	27.4
=	0.0	0.0	246.5	27.4
=	0.0	0.0	247.0	27.3
=	0.0	0.0	247.4	27.2
=	0.0	0.0	247.8	27.1
=	0.0	0.0	248.2	27.1
=	0.0	0.0	248.8	27.0
=	0.0	0.0	249.3	27.0
=	0.0	0.0	249.8	26.9
=	0.0	0.0	250.3	26.8
=	0.0	0.0	250.7	26.7
=	0.0	0.0	251.1	26.6
=	0.0	0.0	251.5	26.6
=	0.0	0.0	251.9	26.5
=	0.0	0.0	252.5	26.4
=	0.0	0.0	253.0	26.4
=	0.0	0.0	253.3	26.4
=	0.0	0.0	253.7	26.3
=	0.0	0.0	254.1	26.2
=	0.0	0.0	254.6	26.2
=	0.0	0.0	255.0	26.1
=	0.0	0.0	255.6	26.0
=	0.0	0.0	256.0	25.9
=	0.0	0.0	256.5	25.8
=	0.0	0.0	257.1	25.8
=	0.0	0.0	257.6	25.7
=	0.0	0.0	258.1	25.7
=	0.0	0.0	258.6	25.6
=	0.0	0.0	259.1	25.5
=	0.0	0.0	259.6	25.4
=	0.0	0.0	260.1	25.4
=	0.0	0.0	260.7	25.2
=	0.0	0.0	261.2	25.2
=	0.0	0.0	261.5	25.2
=	0.0	0.0	262.0	25.1
=	0.0	0.0	262.5	25.0
=	0.0	0.0	262.9	24.9
=	0.0	0.0	263.4	24.8
=	0.0	0.0	263.8	24.8
=	0.0	0.0	264.4	24.7
=	0.0	0.0	264.8	24.7
=	0.0	0.0	265.2	24.7
=	0.0	0.0	265.7	24.6
=	0.0	0.0	266.3	24.5
=	0.0	0.0	266.8	24.4
=	0.0	0.0	267.3	24.4
=	0.0	0.0	267.8	24.3
=	0.0	0.0	268.2	24.2
=	0.0	0.0	268.7	24.2
=	0.0	0.0	269.2	24.1
=	0.0	0.0	269.7	24.0
=	0.0	0.0	270.4	24.0
=	0.0	0.0	270.8	23.9
=	0.0	0.0	271.2	23.8
=	0.0	0.0	271.8	23.8
=	0.0	0.0	272.4	23.7
=	0.0	0.0	273.0	23.6
=	0.0	0.0	273.3	23.6
=	0.0	0.0	273.8	23.5
=	0.0	0.0	274.2	23.5
=	0.0	0.0	274.5	23.4
=	0.0	0.0	275.0	23.3
=	0.0	0.0	275.4	23.3
=	0.0	0.0	275.8	23.2
=	0.0	0.0	276.3	23.1
=	0.0	0.0	276.7	23.1
=	0.0	0.0	277.1	23.1
=	0.0	0.0	277.7	23.0
=	0.0	0.0	278.2	22.9
=	0.0	0.0	278.6	22.9
=	0.0	0.0	279.2	22.8
=	0.0	0.0	279.9	22.7
=	0.0	0.0	280.3	22.6
=	0.0	0.0	280.9	22.6
=	0.0	0.0	281.3	22.6
=	0.0	0.0	281.7	22.5
=	0.0	0.0	282.2	22.5
=	0.0	0.0	282.7	22.4
=	0.0	0.0	283.3	22.3
=	0.0	0.0	283.9	22.2
=	0.0	0.0	284.5	22.2
=	0.0	0.0	285.0	22.1
=	0.0	0.0	285.5	22.0
=	0.0	0.0	285.9	22.0
=	0.0	0.0	286.4	21.9
=	0.0	0.0	287.0	21.9
=	0.0	0.0	287.5	21.8
=	0.0	0.0	288.0	21.7
=	0.0	0.0	288.6	21.7
=	0.0	0.0	289.1	21.6
=	0.0	0.0	289.5	21.5
=	0.0	0.0	290.0	21.5
=	0.0	0.0	290.5	21.4
=	0.0	0.0	291.0	21.3
=	0.0	0.0	291.4	21.3
=	0.0	0.0	291.9	21.2
=	0.0	0.0	292.4	21.2
=	0.0	0.0	292.9	21.1
=	0.0	0.0	293.3	21.1
=	0.0	0.0	293.7	21.0
=	0.0	0.0	294.2	21.0
=	0.0	0.0	294.7	20.9
=	0.0	0.0	295.3	20.8
=	0.0	0.0	295.8	20.8
=	0.0	0.0	296.2	20.8
=	0.0	0.0	296.6	20.7
=	0.0	0.0	297.1	20.7
=	0.0	0.0	297.7	20.6
=	0.0	0.0	298.1	20.6
=	0.0	0.0	298.6	20.5
=	0.0	0.0	299.1	20.4
=	0.0	0.0	299.5	20.4
=	0.0	0.0	299.9	20.3
=	0.0	0.0	300.3	20.3
=	0.0	0.0	300.8	20.2
=	0.0	0.0	301.3	20.1
=	0.0	0.0	301.7	20.1
=	0.0	0.0	302.1	20.0
=	0.0	0.0	302.6	20.0
=	0.0	0.0	303.2	19.9
=	0.0	0.0	303.6	19.9
=	0.0	0.0	304.2	19.8
=	0.0	0.0	304.8	19.7
=	0.0	0.0	305.3	19.7
=	0.0	0.0	305.8	19.6
=	0.0	0.0	306.2	19.6
=	0.0	0.0	306.9	19.5
=	0.0	0.0	307.4	19.5
=	0.0	0.0	307.8	19.5
=	0.0	0.0	308.2	19.4
=	0.0	0.0	308.7	19.4
=	0.0	0.0	309.1	19.3
=	0.0	0.0	309.5	19.3
=	0.0	0.0	310.0	19.2
=	0.0	0.0	310.7	19.2
=	0.0	0.0	311.3	19.1
=	0.0	0.0	311.9	19.0
=	0.0	0.0	312.4	19.0
=	0.0	0.0	312.8	18.9
=	0.0	0.0	313.2	18.9
=	0.0	0.0	313.6	18.8
=	0.0	0.0	314.2	18.8
=	0.0	0.0	314.6	18.7
=	0.0	0.0	315.1	18.7
=	0.0	0.0	315.6	18.6
=	0.0	0.0	316.1	18.6
=	0.0	0.0	316.7	18.5
=	0.0	0.0	317.3	18.5
=	0.0	0.0	317.7	18.5
=	0.0	0.0	318.2	18.4
=	0.0	0.0	318.8	18.3
=	0.0	0.0	319.3	18.3
=	0.0	0.0	319.7	18.3
=	0.0	0.0	320.2	18.2
=	0.0	0.0	320.6	18.1
=	0.0	0.0	321.1	18.1
=	0.0	0.0	321.5	18.0
=	0.0	0.0	322.0	18.0
=	0.0	0.0	322.5	17.9
=	0.0	0.0	323.0	17.9
=	0.0	0.0	323.4	17.9
=	0.0	0.0	323.8	17.8
=	0.0	0.0	324.2	17.8
=	0.0	0.0	324.6	17.8
=	0.0	0.0	325.0	17.7
=	0.0	0.0	325.5	17.7
=	0.0	0.0	326.1	17.6
=	0.0	0.0	326.6	17.6
=	0.0	0.0	327.1	17.5
=	0.0	0.0	327.6	17.5
=	0.0	0.0	328.0	17.5
=	0.0	0.0	328.5	17.4
=	0.0	0.0	329.1	17.3
=	0.0	0.0	329.7	17.3
=	0.0	0.0	330.1	17.2
=	0.0	0.0	330.6	17.2
=	0.0	0.0	331.1	17.2
=	0.0	0.0	331.6	17.1
=	0.0	0.0	332.1	17.1
=	0.0	0.0	332.5	17.0
=	0.0	0.0	332.9	17.0
=	0.0	0.0	333.3	16.9
=	0.0	0.0	333.8	16.9
=	0.0	0.0	334.3	16.9
=	0.0	0.0	334.7	16.8
=	0.0	0.0	335.3	16.8
=	0.0	0.0	335.8	16.7
=	0.0	0.0	336.3	16.6
=	0.0	0.0	336.7	16.6
=	0.0	0.0	337.2	16.6
=	0.0	0.0	337.7	16.5
=	0.0	0.0	338.0	16.5
=	0.0	0.0	338.3	16.5
=	0.0	0.0	338.9	16.5
=	0.0	0.0	339.3	16.5
=	0.0	0.0	339.8	16.4
=	0.0	0.0	340.2	16.3
=	0.0	0.0	340.6	16.3
=	0.0	0.0	341.2	16.3
=	0.0	0.0	341.7	16.2
=	0.0	0.0	342.1	16.2
=	0.0	0.0	342.7	16.1
=	0.0	0.0	343.3	16.0
=	0.0	0.0	343.8	16.0
=	0.0	0.0	344.2	16.0
=	0.0	0.0	344.6	15.9
=	0.0	0.0	345.1	15.9
=	0.0	0.0	345.5	15.8
=	0.0	0.0	345.8	15.8
=	0.0	0.0	346.4	15.8
=	0.0	0.0	347.0	15.7
=	0.0	0.0	347.4	15.7
=	0.0	0.0	347.8	15.6
:EOM # End of Measurement
#
# RFA300 ASCII Measurement Dump ( BDS format )
#
# Measurement number 	2
#
%VNR 1.0
%MOD 	RAT
%TYP 	SCN
%SCN 	DPT
%FLD 	ION
%DAT 	09-23-2011
%TIM 	12:00:00
%FSZ 	100	100
%BMT 	PHO	   6.0
%SSD 	1000
%BUP 	0
%BRD 	1000
%FSH 	1
%ASC 	0
%WEG 	45
%GPO 	0
%CPO 	0
%MEA 	5
%PRD 	0,0
%PTS 	733
%STS 	    0.0	  0.0	   0.0 # Start Scan values in mm ( X , Y , Z )
%EDS 	    0.0	   0.0	   347.8 # End Scan values in mm ( X , Y , Z )
#
#	  X      Y      Z     Dose
#
=	0.0	0.0	0.0	46.0
=	0.0	0.0	0.3	47.4
=	0.0	0.0	0.7	49.7
=	0.0	0.0	1.2	52.3
=	0.0	0.0	1.6	56.0
=	0.0	0.0	2.3	62.5
=	0.0	0.0	2.8	67.6
=	0.0	0.0	3.2	71.8
=	0.0	0.0	3.7	75.5
=	0.0	0.0	4.2	79.0
=	0.0	0.0	4.6	81.8
=	0.0	0.0	5.1	84.3
=	0.0	0.0	5.5	86.4
=	0.0	0.0	6.0	88.4
=	0.0	0.0	6.4	89.9
=	0.0	0.0	6.9	91.5
=	0.0	0.0	7.2	92.6
=	0.0	0.0	7.7	93.9
=	0.0	0.0	8.1	94.7
=	0.0	0.0	8.5	95.4
=	0.0	0.0	8.9	96.2
=	0.0	0.0	9.4	96.9
=	0.0	0.0	9.7	97.4
=	0.0	0.0	10.2	97.9
=	0.0	0.0	10.7	98.3
=	0.0	0.0	11.3	98.9
=	0.0	0.0	11.8	99.3
=	0.0	0.0	12.2	99.5
=	0.0	0.0	12.6	99.7
=	0.0	0.0	12.9	99.8
=	0.0	0.0	13.3	99.9
=	0.0	0.0	13.7	99.9
=	0.0	0.0	14.0	99.9
=	0.0	0.0	14.4	100.0
=	0.0	0.0	14.8	100.0
=	0.0	0.0	15.3	100.0
=	0.0	0.0	15.9	100.0
=	0.0	0.0	16.4	99.9
=	0.0	0.0	16.9	99.9
=	0.0	0.0	17.3	99.8
=	0.0	0.0	17.8	99.8
=	0.0	0.0	18.2	99.6
=	0.0	0.0	18.6	99.5
=	0.0	0.0	19.2	99.3
=	0.0	0.0	19.8	99.1
=	0.0	0.0	20.4	99.0
=	0.0	0.0	20.8	98.8
=	0.0	0.0	21.2	98.7
=	0.0	0.0	21.7	98.5
=	0.0	0.0	22.2	98.2
=	0.0	0.0	22.7	98.0
=	0.0	0.0	23.0	97.9
=	0.0	0.0	23.4	97.7
=	0.0	0.0	23.7	97.5
=	0.0	0.0	24.2	97.4
=	0.0	0.0	24.6	97.3
=	0.0	0.0	25.1	97.1
=	0.0	0.0	25.7	96.9
=	0.0	0.0	26.1	96.7
=	0.0	0.0	26.4	96.5
=	0.0	0.0	26.8	96.4
=	0.0	0.0	27.4	96.2
=	0.0	0.0	27.8	95.9
=	0.0	0.0	28.2	95.8
=	0.0	0.0	28.6	95.7
=	0.0	0.0	29.0	95.6
=	0.0	0.0	29.4	95.4
=	0.0	0.0	29.7	95.3
=	0.0	0.0	30.1	95.0
=	0.0	0.0	30.5	94.9
=	0.0	0.0	30.9	94.8
=	0.0	0.0	31.4	94.6
=	0.0	0.0	32.0	94.3
=	0.0	0.0	32.6	94.1
=	0.0	0.0	33.1	93.9
=	0.0	0.0	33.5	93.8
=	0.0	0.0	34.0	93.5
=	0.0	0.0	34.4	93.3
=	0.0	0.0	34.8	93.1
=	0.0	0.0	35.3	92.8
=	0.0	0.0	35.7	92.7
=	0.0	0.0	36.2	92.5
=	0.0	0.0	36.7	92.3
=	0.0	0.0	37.1	92.1
=	0.0	0.0	37.5	92.0
=	0.0	0.0	37.9	91.8
=	0.0	0.0	38.5	91.6
=	0.0	0.0	38.9	91.4
=	0.0	0.0	39.3	91.2
=	0.0	0.0	39.8	91.1
=	0.0	0.0	40.3	91.0
=	0.0	0.0	40.8	90.8
=	0.0	0.0	41.3	90.4
=	0.0	0.0	41.7	90.3
=	0.0	0.0	42.1	90.2
=	0.0	0.0	42.5	90.0
=	0.0	0.0	42.9	89.9
=	0.0	0.0	43.3	89.7
=	0.0	0.0	43.8	89.5
=	0.0	0.0	44.2	89.3
=	0.0	0.0	44.6	89.1
=	0.0	0.0	45.0	88.9
=	0.0	0.0	45.6	88.6
=	0.0	0.0	46.1	88.4
=	0.0	0.0	46.5	88.2
=	0.0	0.0	46.9	88.1
=	0.0	0.0	47.2	88.0
=	0.0	0.0	47.7	87.9
=	0.0	0.0	48.1	87.8
=	0.0	0.0	48.5	87.6
=	0.0	0.0	48.8	87.5
=	0.0	0.0	49.2	87.4
=	0.0	0.0	49.7	87.1
=	0.0	0.0	50.1	87.0
=	0.0	0.0	50.5	86.7
=	0.0	0.0	50.9	86.5
=	0.0	0.0	51.5	86.3
=	0.0	0.0	52.0	86.1
=	0.0	0.0	52.4	86.0
=	0.0	0.0	52.8	85.8
=	0.0	0.0	53.4	85.6
=	0.0	0.0	53.8	85.4
=	0.0	0.0	54.3	85.3
=	0.0	0.0	54.7	85.1
=	0.0	0.0	55.2	84.9
=	0.0	0.0	55.6	84.7
=	0.0	0.0	56.1	84.6
=	0.0	0.0	56.7	84.3
=	0.0	0.0	57.1	84.1
=	0.0	0.0	57.5	84.0
=	0.0	0.0	57.9	83.8
=	0.0	0.0	58.3	83.6
=	0.0	0.0	58.8	83.4
=	0.0	0.0	59.3	83.2
=	0.0	0.0	59.7	83.0
=	0.0	0.0	60.1	82.9
=	0.0	0.0	60.5	82.7
=	0.0	0.0	60.9	82.5
=	0.0	0.0	61.4	82.4
=	0.0	0.0	61.8	82.3
=	0.0	0.0	62.2	82.2
=	0.0	0.0	62.7	82.0
=	0.0	0.0	63.1	81.8
=	0.0	0.0	63.6	81.7
=	0.0	0.0	64.0	81.5
=	0.0	0.0	64.4	81.3
=	0.0	0.0	65.0	81.1
=	0.0	0.0	65.4	80.9
=	0.0	0.0	66.0	80.6
=	0.0	0.0	66.3	80.5
=	0.0	0.0	66.9	80.3
=	0.0	0.0	67.4	80.1
=	0.0	0.0	67.8	79.9
=	0.0	0.0	68.2	79.8
=	0.0	0.0	68.7	79.7
=	0.0	0.0	69.2	79.4
=	0.0	0.0	69.6	79.3
=	0.0	0.0	70.0	79.2
=	0.0	0.0	70.4	79.0
=	0.0	0.0	70.8	78.8
=	0.0	0.0	71.1	78.6
=	0.0	0.0	71.6	78.4
=	0.0	0.0	72.0	78.2
=	0.0	0.0	72.5	78.0
=	0.0	0.0	72.9	77.9
=	0.0	0.0	73.5	77.8
=	0.0	0.0	74.0	77.6
=	0.0	0.0	74.5	77.4
=	0.0	0.0	74.9	77.2
=	0.0	0.0	75.5	77.0
=	0.0	0.0	76.1	76.8
=	0.0	0.0	76.5	76.6
=	0.0	0.0	76.9	76.4
=	0.0	0.0	77.5	76.1
=	0.0	0.0	78.1	76.0
=	0.0	0.0	78.5	75.9
=	0.0	0.0	78.9	75.7
=	0.0	0.0	79.3	75.6
=	0.0	0.0	79.7	75.5
=	0.0	0.0	80.2	75.3
=	0.0	0.0	80.8	75.1
=	0.0	0.0	81.3	74.8
=	0.0	0.0	81.7	74.6
=	0.0	0.0	82.2	74.4
=	0.0	0.0	82.7	74.3
=	0.0	0.0	83.1	74.1
=	0.0	0.0	83.7	73.9
=	0.0	0.0	84.2	73.7
=	0.0	0.0	84.8	73.5
=	0.0	0.0	85.2	73.4
=	0.0	0.0	85.6	73.2
=	0.0	0.0	86.0	73.0
=	0.0	0.0	86.5	72.9
=	0.0	0.0	87.0	72.7
=	0.0	0.0	87.4	72.6
=	0.0	0.0	87.8	72.4
=	0.0	0.0	88.2	72.3
=	0.0	0.0	88.9	72.1
=	0.0	0.0	89.4	71.9
=	0.0	0.0	89.8	71.8
=	0.0	0.0	90.3	71.6
=	0.0	0.0	90.7	71.5
=	0.0	0.0	91.1	71.3
=	0.0	0.0	91.5	71.1
=	0.0	0.0	92.0	71.0
=	0.0	0.0	92.5	70.9
=	0.0	0.0	92.9	70.6
=	0.0	0.0	93.3	70.4
=	0.0	0.0	93.7	70.2
=	0.0	0.0	94.2	70.1
=	0.0	0.0	94.6	70.0
=	0.0	0.0	95.0	69.9
=	0.0	0.0	95.4	69.7
=	0.0	0.0	95.9	69.6
=	0.0	0.0	96.4	69.4
=	0.0	0.0	96.8	69.3
=	0.0	0.0	97.3	69.1
=	0.0	0.0	97.9	68.9
=	0.0	0.0	98.3	68.7
=	0.0	0.0	98.7	68.5
=	0.0	0.0	99.1	68.3
=	0.0	0.0	99.5	68.2
=	0.0	0.0	100.0	68.0
=	0.0	0.0	100.6	67.8
=	0.0	0.0	101.2	67.7
=	0.0	0.0	101.7	67.6
=	0.0	0.0	102.1	67.4
=	0.0	0.0	102.5	67.3
=	0.0	0.0	103.1	67.1
=	0.0	0.0	103.6	66.9
=	0.0	0.0	104.0	66.8
=	0.0	0.0	104.4	66.6
=	0.0	0.0	104.8	66.5
=	0.0	0.0	105.4	66.3
=	0.0	0.0	105.9	66.1
=	0.0	0.0	106.3	66.0
=	0.0	0.0	106.8	65.8
=	0.0	0.0	107.2	65.7
=	0.0	0.0	107.6	65.5
=	0.0	0.0	108.0	65.4
=	0.0	0.0	108.4	65.3
=	0.0	0.0	108.8	65.2
=	0.0	0.0	109.2	65.0
=	0.0	0.0	109.6	64.8
=	0.0	0.0	110.1	64.7
=	0.0	0.0	110.5	64.6
=	0.0	0.0	111.0	64.4
=	0.0	0.0	111.6	64.2
=	0.0	0.0	112.1	64.0
=	0.0	0.0	112.7	63.9
=	0.0	0.0	113.2	63.6
=	0.0	0.0	113.7	63.5
=	0.0	0.0	114.3	63.3
=	0.0	0.0	114.7	63.2
=	0.0	0.0	115.3	63.0
=	0.0	0.0	115.7	62.9
=	0.0	0.0	116.1	62.7
=	0.0	0.0	116.7	62.6
=	0.0	0.0	117.2	62.5
=	0.0	0.0	117.8	62.3
=	0.0	0.0	118.4	62.1
=	0.0	0.0	118.9	61.9
=	0.0	0.0	119.4	61.7
=	0.0	0.0	119.8	61.6
=	0.0	0.0	120.3	61.4
=	0.0	0.0	120.7	61.3
=	0.0	0.0	121.1	61.1
=	0.0	0.0	121.5	61.0
=	0.0	0.0	121.9	60.9
=	0.0	0.0	122.4	60.7
=	0.0	0.0	122.9	60.6
=	0.0	0.0	123.3	60.4
=	0.0	0.0	123.8	60.2
=	0.0	0.0	124.2	60.1
=	0.0	0.0	124.8	59.9
=	0.0	0.0	125.4	59.8
=	0.0	0.0	125.9	59.6
=	0.0	0.0	126.3	59.5
=	0.0	0.0	126.9	59.3
=	0.0	0.0	127.5	59.1
=	0.0	0.0	128.0	58.9
=	0.0	0.0	128.3	58.8
=	0.0	0.0	128.8	58.6
=	0.0	0.0	129.4	58.5
=	0.0	0.0	129.9	58.4
=	0.0	0.0	130.4	58.2
=	0.0	0.0	130.8	58.1
=	0.0	0.0	131.3	58.0
=	0.0	0.0	131.8	57.8
=	0.0	0.0	132.4	57.7
=	0.0	0.0	132.9	57.5
=	0.0	0.0	133.3	57.4
=	0.0	0.0	133.7	57.2
=	0.0	0.0	134.3	57.0
=	0.0	0.0	134.7	56.8
=	0.0	0.0	135.2	56.7
=	0.0	0.0	135.8	56.6
=	0.0	0.0	136.3	56.4
=	0.0	0.0	136.9	56.3
=	0.0	0.0	137.4	56.2
=	0.0	0.0	137.8	56.1
=	0.0	0.0	138.3	55.9
=	0.0	0.0	138.7	55.7
=	0.0	0.0	139.1	55.6
=	0.0	0.0	139.5	55.5
=	0.0	0.0	140.1	55.3
=	0.0	0.0	140.6	55.1
=	0.0	0.0	141.2	54.9
=	0.0	0.0	141.8	54.8
=	0.0	0.0	142.3	54.7
=	0.0	0.0	142.8	54.6
=	0.0	0.0	143.4	54.5
=	0.0	0.0	143.9	54.3
=	0.0	0.0	144.4	54.1
=	0.0	0.0	144.9	54.0
=	0.0	0.0	145.4	53.8
=	0.0	0.0	145.9	53.7
=	0.0	0.0	146.5	53.5
=	0.0	0.0	147.1	53.3
=	0.0	0.0	147.7	53.1
=	0.0	0.0	148.1	53.0
=	0.0	0.0	148.5	52.9
=	0.0	0.0	148.9	52.8
=	0.0	0.0	149.4	52.7
=	0.0	0.0	149.9	52.5
=	0.0	0.0	150.3	52.4
=	0.0	0.0	150.7	52.3
=	0.0	0.0	151.4	52.2
=	0.0	0.0	151.9	52.0
=	0.0	0.0	152.3	51.8
=	0.0	0.0	152.8	51.7
=	0.0	0.0	153.4	51.6
=	0.0	0.0	153.8	51.5
=	0.0	0.0	154.2	51.3
=	0.0	0.0	154.6	51.3
=	0.0	0.0	155.0	51.2
=	0.0	0.0	155.5	51.1
=	0.0	0.0	155.8	51.0
=	0.0	0.0	156.3	50.8
=	0.0	0.0	156.9	50.7
=	0.0	0.0	157.3	50.6
=	0.0	0.0	157.7	50.5
=	0.0	0.0	158.2	50.3
=	0.0	0.0	158.7	50.2
=	0.0	0.0	159.4	50.0
=	0.0	0.0	160.0	49.9
=	0.0	0.0	160.6	49.8
=	0.0	0.0	161.0	49.7
=	0.0	0.0	161.4	49.5
=	0.0	0.0	161.8	49.4
=	0.0	0.0	162.3	49.3
=	0.0	0.0	162.9	49.1
=	0.0	0.0	163.5	49.0
=	0.0	0.0	164.0	48.8
=	0.0	0.0	164.6	48.7
=	0.0	0.0	165.1	48.5
=	0.0	0.0	165.5	48.4
=	0.0	0.0	166.1	48.2
=	0.0	0.0	166.8	48.1
=	0.0	0.0	167.2	48.0
=	0.0	0.0	167.7	47.9
=	0.0	0.0	168.3	47.7
=	0.0	0.0	168.8	47.6
=	0.0	0.0	169.3	47.5
=	0.0	0.0	169.7	47.4
=	0.0	0.0	170.2	47.3
=	0.0	0.0	170.7	47.2
=	0.0	0.0	171.1	47.1
=	0.0	0.0	171.6	47.0
=	0.0	0.0	172.0	46.8
=	0.0	0.0	172.4	46.7
=	0.0	0.0	172.8	46.6
=	0.0	0.0	173.5	46.4
=	0.0	0.0	174.0	46.2
=	0.0	0.0	174.4	46.1
=	0.0	0.0	175.0	46.1
=	0.0	0.0	175.5	46.0
=	0.0	0.0	176.1	45.8
=	0.0	0.0	176.7	45.6
=	0.0	0.0	177.3	45.5
=	0.0	0.0	177.9	45.4
=	0.0	0.0	178.5	45.2
=	0.0	0.0	179.1	45.1
=	0.0	0.0	179.6	44.9
=	0.0	0.0	180.0	44.9
=	0.0	0.0	180.5	44.8
=	0.0	0.0	180.9	44.7
=	0.0	0.0	181.4	44.6
=	0.0	0.0	182.0	44.4
=	0.0	0.0	182.5	44.3
=	0.0	0.0	182.9	44.2
=	0.0	0.0	183.3	44.1
=	0.0	0.0	183.9	43.9
=	0.0	0.0	184.4	43.8
=	0.0	0.0	184.9	43.7
=	0.0	0.0	185.3	43.6
=	0.0	0.0	185.8	43.5
=	0.0	0.0	186.2	43.4
=	0.0	0.0	186.8	43.3
=	0.0	0.0	187.3	43.1
=	0.0	0.0	187.7	43.1
=	0.0	0.0	188.1	43.0
=	0.0	0.0	188.7	42.8
=	0.0	0.0	189.2	42.7
=	0.0	0.0	189.6	42.6
=	0.0	0.0	190.0	42.5
=	0.0	0.0	190.4	42.4
=	0.0	0.0	190.9	42.3
=	0.0	0.0	191.4	42.1
=	0.0	0.0	191.8	42.0
=	0.0	0.0	192.3	41.9
=	0.0	0.0	192.8	41.8
=	0.0	0.0	193.2	41.7
=	0.0	0.0	193.7	41.6
=	0.0	0.0	194.3	41.5
=	0.0	0.0	194.8	41.4
=	0.0	0.0	195.3	41.3
=	0.0	0.0	195.8	41.2
=	0.0	0.0	196.3	41.1
=	0.0	0.0	196.7	41.0
=	0.0	0.0	197.2	40.9
=	0.0	0.0	197.6	40.8
=	0.0	0.0	198.2	40.7
=	0.0	0.0	198.8	40.6
=	0.0	0.0	199.2	40.5
=	0.0	0.0	199.7	40.4
=	0.0	0.0	200.2	40.2
=	0.0	0.0	200.8	40.2
=	0.0	0.0	201.3	40.1
=	0.0	0.0	201.8	40.0
=	0.0	0.0	202.3	39.9
=	0.0	0.0	202.9	39.7
=	0.0	0.0	203.4	39.5
=	0.0	0.0	203.8	39.5
=	0.0	0.0	204.4	39.4
=	0.0	0.0	205.0	39.3
=	0.0	0.0	205.4	39.2
=	0.0	0.0	206.0	39.1
=	0.0	0.0	206.4	39.0
=	0.0	0.0	206.9	38.9
=	0.0	0.0	207.4	38.8
=	0.0	0.0	207.7	38.7
=	0.0	0.0	208.2	38.6
=	0.0	0.0	208.7	38.5
=	0.0	0.0	209.3	38.4
=	0.0	0.0	209.8	38.2
=	0.0	0.0	210.2	38.1
=	0.0	0.0	210.6	38.1
=	0.0	0.0	211.2	38.0
=	0.0	0.0	211.6	37.9
=	0.0	0.0	212.1	37.8
=	0.0	0.0	212.5	37.7
=	0.0	0.0	213.0	37.6
=	0.0	0.0	213.5	37.5
=	0.0	0.0	214.0	37.4
=	0.0	0.0	214.4	37.4
=	0.0	0.0	214.9	37.3
=	0.0	0.0	215.4	37.2
=	0.0	0.0	215.8	37.1
=	0.0	0.0	216.2	37.1
=	0.0	0.0	216.7	37.0
=	0.0	0.0	217.1	36.8
=	0.0	0.0	217.7	36.7
=	0.0	0.0	218.2	36.6
=	0.0	0.0	218.8	36.5
=	0.0	0.0	219.2	36.4
=	0.0	0.0	219.8	36.4
=	0.0	0.0	220.3	36.3
=	0.0	0.0	220.7	36.2
=	0.0	0.0	221.1	36.0
=	0.0	0.0	221.5	36.0
=	0.0	0.0	222.0	35.9
=	0.0	0.0	222.6	35.8
=	0.0	0.0	223.1	35.7
=	0.0	0.0	223.7	35.6
=	0.0	0.0	224.1	35.5
=	0.0	0.0	224.5	35.4
=	0.0	0.0	225.0	35.3
=	0.0	0.0	225.4	35.2
=	0.0	0.0	225.8	35.2
=	0.0	0.0	226.2	35.1
=	0.0	0.0	226.6	35.0
=	0.0	0.0	227.1	34.9
=	0.0	0.0	227.6	34.8
=	0.0	0.0	228.2	34.7
=	0.0	0.0	228.8	34.6
=	0.0	0.0	229.4	34.5
=	0.0	0.0	229.9	34.4
=	0.0	0.0	230.3	34.4
=	0.0	0.0	230.7	34.3
=	0.0	0.0	231.1	34.2
=	0.0	0.0	231.6	34.1
=	0.0	0.0	232.0	34.0
=	0.0	0.0	232.6	34.0
=	0.0	0.0	233.1	33.8
=	0.0	0.0	233.7	33.8
=	0.0	0.0	234.4	33.7
=	0.0	0.0	234.8	33.6
=	0.0	0.0	235.4	33.5
=	0.0	0.0	235.8	33.5
=	0.0	0.0	236.2	33.4
=	0.0	0.0	236.6	33.3
=	0.0	0.0	236.9	33.2
=	0.0	0.0	237.3	33.2
=	0.0	0.0	237.9	33.0
=	0.0	0.0	238.4	32.9
=	0.0	0.0	238.9	32.8
=	0.0	0.0	239.4	32.8
=	0.0	0.0	239.8	32.7
=	0.0	0.0	240.2	32.6
=	0.0	0.0	240.7	32.5
=	0.0	0.0	241.2	32.4
=	0.0	0.0	241.6	32.3
=	0.0	0.0	242.1	32.3
=	0.0	0.0	242.6	32.2
=	0.0	0.0	243.0	32.1
=	0.0	0.0	243.5	32.0
=	0.0	0.0	243.9	31.9
=	0.0	0.0	244.4	31.8
=	0.0	0.0	244.8	31.7
=	0.0	0.0	245.3	31.7
=	0.0	0.0	245.8	31.6
=	0.0	0.0	246.3	31.5
=	0.0	0.0	246.7	31.5
=	0.0	0.0	247.2	31.4
=	0.0	0.0	247.8	31.3
=	0.0	0.0	248.4	31.2
=	0.0	0.0	249.0	31.1
=	0.0	0.0	249.5	31.1
=	0.0	0.0	249.9	31.0
=	0.0	0.0	250.4	31.0
=	0.0	0.0	250.8	30.9
=	0.0	0.0	251.2	30.8
=	0.0	0.0	251.7	30.7
=	0.0	0.0	252.2	30.6
=	0.0	0.0	252.7	30.5
=	0.0	0.0	253.1	30.5
=	0.0	0.0	253.7	30.3
=	0.0	0.0	254.1	30.3
=	0.0	0.0	254.5	30.2
=	0.0	0.0	254.9	30.2
=	0.0	0.0	255.4	30.1
=	0.0	0.0	256.0	30.0
=	0.0	0.0	256.4	29.9
=	0.0	0.0	256.8	29.9
=	0.0	0.0	257.4	29.8
=	0.0	0.0	257.8	29.8
=	0.0	0.0	258.2	29.7
=	0.0	0.0	258.6	29.7
=	0.0	0.0	259.0	29.6
=	0.0	0.0	259.4	29.5
=	0.0	0.0	259.8	29.5
=	0.0	0.0	260.2	29.4
=	0.0	0.0	260.6	29.3
=	0.0	0.0	261.0	29.2
=	0.0	0.0	261.5	29.2
=	0.0	0.0	261.9	29.1
=	0.0	0.0	262.3	29.0
=	0.0	0.0	262.8	29.0
=	0.0	0.0	263.3	28.9
=	0.0	0.0	263.9	28.8
=	0.0	0.0	264.4	28.8
=	0.0	0.0	264.8	28.7
=	0.0	0.0	265.3	28.6
=	0.0	0.0	265.8	28.5
=	0.0	0.0	266.4	28.5
=	0.0	0.0	266.9	28.4
=	0.0	0.0	267.4	28.3
=	0.0	0.0	268.0	28.1
=	0.0	0.0	268.6	28.1
=	0.0	0.0	269.1	28.0
=	0.0	0.0	269.6	27.9
=	0.0	0.0	270.2	27.9
=	0.0	0.0	270.8	27.8
=	0.0	0.0	271.4	27.7
=	0.0	0.0	271.9	27.6
=	0.0	0.0	272.5	27.5
=	0.0	0.0	273.1	27.4
=	0.0	0.0	273.7	27.4
=	0.0	0.0	274.2	27.3
=	0.0	0.0	274.8	27.1
=	0.0	0.0	275.3	27.0
=	0.0	0.0	275.8	27.0
=	0.0	0.0	276.2	26.9
=	0.0	0.0	276.6	26.9
=	0.0	0.0	277.1	26.8
=	0.0	0.0	277.5	26.8
=	0.0	0.0	278.0	26.7
=	0.0	0.0	278.6	26.6
=	0.0	0.0	279.2	26.5
=	0.0	0.0	279.6	26.5
=	0.0	0.0	280.0	26.4
=	0.0	0.0	280.5	26.4
=	0.0	0.0	281.1	26.3
=	0.0	0.0	281.7	26.2
=	0.0	0.0	282.3	26.1
=	0.0	0.0	282.8	26.1
=	0.0	0.0	283.2	26.0
=	0.0	0.0	283.8	26.0
=	0.0	0.0	284.2	25.9
=	0.0	0.0	284.7	25.8
=	0.0	0.0	285.2	25.7
=	0.0	0.0	285.7	25.6
=	0.0	0.0	286.1	25.6
=	0.0	0.0	286.6	25.5
=	0.0	0.0	287.0	25.5
=	0.0	0.0	287.4	25.4
=	0.0	0.0	288.0	25.3
=	0.0	0.0	288.6	25.3
=	0.0	0.0	289.1	25.2
=	0.0	0.0	289.7	25.1
=	0.0	0.0	290.2	25.1
=	0.0	0.0	290.7	25.0
=	0.0	0.0	291.1	24.9
=	0.0	0.0	291.7	24.9
=	0.0	0.0	292.2	24.8
=	0.0	0.0	292.7	24.7
=	0.0	0.0	293.2	24.7
=	0.0	0.0	293.6	24.6
=	0.0	0.0	294.0	24.6
=	0.0	0.0	294.4	24.6
=	0.0	0.0	294.8	24.5
=	0.0	0.0	295.1	24.5
=	0.0	0.0	295.6	24.4
=	0.0	0.0	296.0	24.3
=	0.0	0.0	296.3	24.3
=	0.0	0.0	296.7	24.3
=	0.0	0.0	297.1	24.2
=	0.0	0.0	297.5	24.2
=	0.0	0.0	297.9	24.1
=	0.0	0.0	298.3	24.1
=	0.0	0.0	298.7	24.0
=	0.0	0.0	299.2	24.0
=	0.0	0.0	299.7	23.9
=	0.0	0.0	300.3	23.8
=	0.0	0.0	300.8	23.7
=	0.0	0.0	301.3	23.7
=	0.0	0.0	301.9	23.6
=	0.0	0.0	302.4	23.5
=	0.0	0.0	302.9	23.5
=	0.0	0.0	303.4	23.4
=	0.0	0.0	304.0	23.4
=	0.0	0.0	304.6	23.3
=	0.0	0.0	305.2	23.2
=	0.0	0.0	305.6	23.1
=	0.0	0.0	306.1	23.1
=	0.0	0.0	306.5	23.0
=	0.0	0.0	307.0	23.0
=	0.0	0.0	307.4	22.9
=	0.0	0.0	307.9	22.9
=	0.0	0.0	308.5	22.8
=	0.0	0.0	309.0	22.7
=	0.0	0.0	309.5	22.7
=	0.0	0.0	310.1	22.6
=	0.0	0.0	310.7	22.5
=	0.0	0.0	311.2	22.5
=	0.0	0.0	311.6	22.4
=	0.0	0.0	312.1	22.4
=	0.0	0.0	312.6	22.3
=	0.0	0.0	313.2	22.3
=	0.0	0.0	313.8	22.2
=	0.0	0.0	314.2	22.1
=	0.0	0.0	314.6	22.1
=	0.0	0.0	315.1	22.1
=	0.0	0.0	315.6	22.0
=	0.0	0.0	316.0	22.0
