:MSR 	4	 # No. of measurement in file
:SYS BDS 0   # Beam Data Scanner System
#
# RFA300 ASCII Measurement Dump ( BDS format )
#
# Measurement number 	1
#
%VNR 1.0
%MOD 	RAT
%TYP 	SCN
%SCN 	DPT
%FLD 	ION
%DAT 	09-29-2011
%TIM 	12:00:00
%FSZ 	040	040
%BMT 	PHO	   6.0
%SSD 	0800
%BUP 	0
%BRD 	0800
%FSH 	1
%ASC 	0
%WEG 	60
%GPO 	0
%CPO 	0
%MEA 	5
%PRD 	0,0
%PTS 	831
%STS 	    0.0	  0.0	   0.0 # Start Scan values in mm ( X , Y , Z )
%EDS 	    0.0	   0.0	   347.7 # End Scan values in mm ( X , Y , Z )
#
#	  X      Y      Z     Dose
#
=	0.0	0.0	0.0	38.0
=	0.0	0.0	0.4	39.5
=	0.0	0.0	0.8	41.6
=	0.0	0.0	1.2	43.7
=	0.0	0.0	1.6	45.8
=	0.0	0.0	2.0	48.5
=	0.0	0.0	2.4	52.5
=	0.0	0.0	2.8	56.6
=	0.0	0.0	3.2	61.1
=	0.0	0.0	3.6	65.1
=	0.0	0.0	4.0	68.4
=	0.0	0.0	4.4	72.1
=	0.0	0.0	4.8	75.6
=	0.0	0.0	5.2	78.6
=	0.0	0.0	5.6	81.2
=	0.0	0.0	6.1	83.5
=	0.0	0.0	6.5	85.7
=	0.0	0.0	6.9	87.6
=	0.0	0.0	7.3	89.1
=	0.0	0.0	7.7	90.6
=	0.0	0.0	8.1	92.1
=	0.0	0.0	8.5	93.1
=	0.0	0.0	8.9	94.2
=	0.0	0.0	9.3	95.2
=	0.0	0.0	9.7	95.9
=	0.0	0.0	10.1	96.5
=	0.0	0.0	10.5	97.2
=	0.0	0.0	10.9	97.8
=	0.0	0.0	11.3	98.3
=	0.0	0.0	11.7	98.7
=	0.0	0.0	12.1	99.0
=	0.0	0.0	12.5	99.2
=	0.0	0.0	12.9	99.5
=	0.0	0.0	13.3	99.7
=	0.0	0.0	13.7	99.8
=	0.0	0.0	14.1	99.9
=	0.0	0.0	14.5	99.9
=	0.0	0.0	14.7	100.0
=	0.0	0.0	15.1	100.0
=	0.0	0.0	15.5	100.0
=	0.0	0.0	15.9	100.0
=	0.0	0.0	16.3	100.0
=	0.0	0.0	16.7	99.9
=	0.0	0.0	17.0	99.8
=	0.0	0.0	17.3	99.7
=	0.0	0.0	17.7	99.7
=	0.0	0.0	18.1	99.5
=	0.0	0.0	18.5	99.5
=	0.0	0.0	18.9	99.4
=	0.0	0.0	19.5	99.0
=	0.0	0.0	19.9	98.8
=	0.0	0.0	20.7	98.5
=	0.0	0.0	21.1	98.3
=	0.0	0.0	21.6	98.1
=	0.0	0.0	22.3	97.8
=	0.0	0.0	22.8	97.6
=	0.0	0.0	23.2	97.4
=	0.0	0.0	23.6	97.1
=	0.0	0.0	24.0	96.9
=	0.0	0.0	24.4	96.8
=	0.0	0.0	24.8	96.6
=	0.0	0.0	25.2	96.3
=	0.0	0.0	25.6	96.0
=	0.0	0.0	26.0	95.8
=	0.0	0.0	26.4	95.6
=	0.0	0.0	26.8	95.4
=	0.0	0.0	27.2	95.3
=	0.0	0.0	27.6	95.0
=	0.0	0.0	28.0	94.7
=	0.0	0.0	28.4	94.6
=	0.0	0.0	28.9	94.3
=	0.0	0.0	29.2	94.1
=	0.0	0.0	29.6	93.9
=	0.0	0.0	30.1	93.7
=	0.0	0.0	30.5	93.4
=	0.0	0.0	30.9	93.2
=	0.0	0.0	31.3	93.1
=	0.0	0.0	31.7	92.8
=	0.0	0.0	32.1	92.6
=	0.0	0.0	32.5	92.4
=	0.0	0.0	32.8	92.2
=	0.0	0.0	33.1	92.0
=	0.0	0.0	33.5	91.7
=	0.0	0.0	33.9	91.6
=	0.0	0.0	34.3	91.3
=	0.0	0.0	34.7	91.2
=	0.0	0.0	35.2	91.0
=	0.0	0.0	35.6	90.7
=	0.0	0.0	35.9	90.5
=	0.0	0.0	36.4	90.3
=	0.0	0.0	36.8	90.1
=	0.0	0.0	37.2	89.8
=	0.0	0.0	37.6	89.6
=	0.0	0.0	38.0	89.5
=	0.0	0.0	38.4	89.3
=	0.0	0.0	38.8	89.0
=	0.0	0.0	39.2	88.8
=	0.0	0.0	39.6	88.5
=	0.0	0.0	40.0	88.3
=	0.0	0.0	40.4	88.2
=	0.0	0.0	40.8	88.1
=	0.0	0.0	41.1	87.9
=	0.0	0.0	41.5	87.6
=	0.0	0.0	41.8	87.4
=	0.0	0.0	42.2	87.2
=	0.0	0.0	42.6	86.9
=	0.0	0.0	43.0	86.8
=	0.0	0.0	43.4	86.5
=	0.0	0.0	43.8	86.4
=	0.0	0.0	44.2	86.2
=	0.0	0.0	44.6	86.0
=	0.0	0.0	45.0	85.8
=	0.0	0.0	45.4	85.6
=	0.0	0.0	45.9	85.4
=	0.0	0.0	46.4	85.2
=	0.0	0.0	47.0	84.8
=	0.0	0.0	47.4	84.6
=	0.0	0.0	47.8	84.4
=	0.0	0.0	48.3	84.1
=	0.0	0.0	48.6	83.9
=	0.0	0.0	49.0	83.8
=	0.0	0.0	49.5	83.5
=	0.0	0.0	49.9	83.3
=	0.0	0.0	50.3	83.2
=	0.0	0.0	50.7	83.0
=	0.0	0.0	51.1	82.8
=	0.0	0.0	51.5	82.6
=	0.0	0.0	51.9	82.3
=	0.0	0.0	52.3	82.0
=	0.0	0.0	52.7	81.8
=	0.0	0.0	53.2	81.6
=	0.0	0.0	53.6	81.4
=	0.0	0.0	53.9	81.1
=	0.0	0.0	54.3	81.0
=	0.0	0.0	54.7	80.8
=	0.0	0.0	55.1	80.6
=	0.0	0.0	55.6	80.2
=	0.0	0.0	56.0	80.1
=	0.0	0.0	56.4	79.9
=	0.0	0.0	56.8	79.8
=	0.0	0.0	57.2	79.7
=	0.0	0.0	57.8	79.4
=	0.0	0.0	58.4	79.0
=	0.0	0.0	58.8	78.7
=	0.0	0.0	59.2	78.5
=	0.0	0.0	59.7	78.4
=	0.0	0.0	60.2	78.0
=	0.0	0.0	61.0	77.7
=	0.0	0.0	61.7	77.4
=	0.0	0.0	62.1	77.2
=	0.0	0.0	62.5	76.9
=	0.0	0.0	62.8	76.8
=	0.0	0.0	63.2	76.6
=	0.0	0.0	63.6	76.5
=	0.0	0.0	64.0	76.4
=	0.0	0.0	64.4	76.1
=	0.0	0.0	64.7	75.9
=	0.0	0.0	65.0	75.8
=	0.0	0.0	65.4	75.6
=	0.0	0.0	65.8	75.4
=	0.0	0.0	66.2	75.2
=	0.0	0.0	66.6	75.0
=	0.0	0.0	66.8	74.9
=	0.0	0.0	67.1	74.8
=	0.0	0.0	67.5	74.7
=	0.0	0.0	67.9	74.5
=	0.0	0.0	68.2	74.4
=	0.0	0.0	68.5	74.3
=	0.0	0.0	68.8	74.1
=	0.0	0.0	69.2	73.9
=	0.0	0.0	69.6	73.7
=	0.0	0.0	70.1	73.5
=	0.0	0.0	70.5	73.3
=	0.0	0.0	70.9	73.2
=	0.0	0.0	71.3	73.0
=	0.0	0.0	71.7	72.9
=	0.0	0.0	72.1	72.7
=	0.0	0.0	72.5	72.5
=	0.0	0.0	72.9	72.3
=	0.0	0.0	73.3	72.1
=	0.0	0.0	73.8	71.9
=	0.0	0.0	74.2	71.7
=	0.0	0.0	74.5	71.5
=	0.0	0.0	75.0	71.4
=	0.0	0.0	75.4	71.2
=	0.0	0.0	75.8	71.0
=	0.0	0.0	76.2	70.8
=	0.0	0.0	76.7	70.6
=	0.0	0.0	77.2	70.4
=	0.0	0.0	77.6	70.2
=	0.0	0.0	78.4	69.8
=	0.0	0.0	78.9	69.6
=	0.0	0.0	79.6	69.2
=	0.0	0.0	80.4	69.0
=	0.0	0.0	81.2	68.7
=	0.0	0.0	82.1	68.4
=	0.0	0.0	82.9	68.0
=	0.0	0.0	83.3	67.8
=	0.0	0.0	83.7	67.6
=	0.0	0.0	84.1	67.4
=	0.0	0.0	84.5	67.3
=	0.0	0.0	84.9	67.2
=	0.0	0.0	85.3	67.0
=	0.0	0.0	85.7	66.6
=	0.0	0.0	86.1	66.6
=	0.0	0.0	86.5	66.4
=	0.0	0.0	87.0	66.2
=	0.0	0.0	87.4	66.1
=	0.0	0.0	87.8	65.9
=	0.0	0.0	88.1	65.7
=	0.0	0.0	88.4	65.6
=	0.0	0.0	88.8	65.5
=	0.0	0.0	89.2	65.3
=	0.0	0.0	89.4	65.2
=	0.0	0.0	89.7	65.2
=	0.0	0.0	90.1	65.0
=	0.0	0.0	90.4	64.7
=	0.0	0.0	90.7	64.6
=	0.0	0.0	91.0	64.5
=	0.0	0.0	91.3	64.5
=	0.0	0.0	91.7	64.2
=	0.0	0.0	92.1	64.1
=	0.0	0.0	92.6	63.9
=	0.0	0.0	92.8	63.9
=	0.0	0.0	93.1	63.8
=	0.0	0.0	93.4	63.6
=	0.0	0.0	93.8	63.4
=	0.0	0.0	94.2	63.3
=	0.0	0.0	94.6	63.1
=	0.0	0.0	95.0	63.0
=	0.0	0.0	95.4	62.9
=	0.0	0.0	95.8	62.6
=	0.0	0.0	96.2	62.5
=	0.0	0.0	96.6	62.3
=	0.0	0.0	97.0	62.1
=	0.0	0.0	97.4	61.9
=	0.0	0.0	97.9	61.8
=	0.0	0.0	98.3	61.5
=	0.0	0.0	98.7	61.4
=	0.0	0.0	99.0	61.3
=	0.0	0.0	99.3	61.2
=	0.0	0.0	99.6	61.1
=	0.0	0.0	99.9	61.0
=	0.0	0.0	100.3	60.8
=	0.0	0.0	100.7	60.7
=	0.0	0.0	101.2	60.5
=	0.0	0.0	101.5	60.4
=	0.0	0.0	101.9	60.3
=	0.0	0.0	102.3	60.1
=	0.0	0.0	102.6	59.9
=	0.0	0.0	103.0	59.8
=	0.0	0.0	103.4	59.7
=	0.0	0.0	103.7	59.6
=	0.0	0.0	103.9	59.5
=	0.0	0.0	104.2	59.4
=	0.0	0.0	104.5	59.3
=	0.0	0.0	104.7	59.1
=	0.0	0.0	105.1	58.9
=	0.0	0.0	105.5	58.8
=	0.0	0.0	105.9	58.8
=	0.0	0.0	106.3	58.6
=	0.0	0.0	106.7	58.6
=	0.0	0.0	107.1	58.4
=	0.0	0.0	107.6	58.1
=	0.0	0.0	107.9	57.9
=	0.0	0.0	108.3	57.8
=	0.0	0.0	108.7	57.7
=	0.0	0.0	109.1	57.5
=	0.0	0.0	109.5	57.5
=	0.0	0.0	109.8	57.4
=	0.0	0.0	110.0	57.3
=	0.0	0.0	110.3	57.1
=	0.0	0.0	110.7	56.9
=	0.0	0.0	111.2	56.7
=	0.0	0.0	111.6	56.6
=	0.0	0.0	112.0	56.5
=	0.0	0.0	112.3	56.4
=	0.0	0.0	112.7	56.3
=	0.0	0.0	113.0	56.2
=	0.0	0.0	113.2	56.1
=	0.0	0.0	113.5	56.0
=	0.0	0.0	114.0	55.8
=	0.0	0.0	114.3	55.6
=	0.0	0.0	114.8	55.6
=	0.0	0.0	115.2	55.5
=	0.0	0.0	115.6	55.3
=	0.0	0.0	116.0	55.1
=	0.0	0.0	116.4	55.0
=	0.0	0.0	116.6	54.9
=	0.0	0.0	117.0	54.8
=	0.0	0.0	117.4	54.7
=	0.0	0.0	117.8	54.5
=	0.0	0.0	118.2	54.4
=	0.0	0.0	118.6	54.3
=	0.0	0.0	119.0	54.1
=	0.0	0.0	119.4	53.9
=	0.0	0.0	119.8	53.7
=	0.0	0.0	120.2	53.6
=	0.0	0.0	120.7	53.5
=	0.0	0.0	121.1	53.4
=	0.0	0.0	121.5	53.2
=	0.0	0.0	122.1	53.0
=	0.0	0.0	122.6	52.9
=	0.0	0.0	122.9	52.8
=	0.0	0.0	123.3	52.7
=	0.0	0.0	123.7	52.5
=	0.0	0.0	124.2	52.4
=	0.0	0.0	124.6	52.2
=	0.0	0.0	124.9	52.2
=	0.0	0.0	125.3	52.1
=	0.0	0.0	125.7	51.9
=	0.0	0.0	126.2	51.7
=	0.0	0.0	126.6	51.7
=	0.0	0.0	127.0	51.5
=	0.0	0.0	127.4	51.3
=	0.0	0.0	127.8	51.2
=	0.0	0.0	128.3	51.1
=	0.0	0.0	128.7	51.0
=	0.0	0.0	129.0	50.8
=	0.0	0.0	129.3	50.7
=	0.0	0.0	129.6	50.6
=	0.0	0.0	129.9	50.5
=	0.0	0.0	130.3	50.5
=	0.0	0.0	130.5	50.4
=	0.0	0.0	130.8	50.4
=	0.0	0.0	131.1	50.2
=	0.0	0.0	131.5	50.0
=	0.0	0.0	132.0	49.8
=	0.0	0.0	132.4	49.7
=	0.0	0.0	132.8	49.6
=	0.0	0.0	133.2	49.6
=	0.0	0.0	133.6	49.5
=	0.0	0.0	134.0	49.3
=	0.0	0.0	134.4	49.1
=	0.0	0.0	134.9	49.0
=	0.0	0.0	135.3	48.9
=	0.0	0.0	135.7	48.8
=	0.0	0.0	136.0	48.7
=	0.0	0.0	136.5	48.5
=	0.0	0.0	136.8	48.4
=	0.0	0.0	137.4	48.3
=	0.0	0.0	137.9	48.1
=	0.0	0.0	138.3	47.9
=	0.0	0.0	138.9	47.8
=	0.0	0.0	139.6	47.5
=	0.0	0.0	140.3	47.3
=	0.0	0.0	140.7	47.2
=	0.0	0.0	141.2	47.1
=	0.0	0.0	141.7	47.0
=	0.0	0.0	142.3	46.8
=	0.0	0.0	142.7	46.7
=	0.0	0.0	143.3	46.5
=	0.0	0.0	143.8	46.4
=	0.0	0.0	144.2	46.3
=	0.0	0.0	144.6	46.1
=	0.0	0.0	145.3	46.0
=	0.0	0.0	146.0	45.8
=	0.0	0.0	146.4	45.6
=	0.0	0.0	147.0	45.5
=	0.0	0.0	147.8	45.3
=	0.0	0.0	148.2	45.2
=	0.0	0.0	148.6	45.0
=	0.0	0.0	149.0	44.9
=	0.0	0.0	149.5	44.8
=	0.0	0.0	149.9	44.8
=	0.0	0.0	150.7	44.5
=	0.0	0.0	151.1	44.4
=	0.0	0.0	151.5	44.2
=	0.0	0.0	151.9	44.1
=	0.0	0.0	152.3	43.9
=	0.0	0.0	152.7	43.8
=	0.0	0.0	153.2	43.6
=	0.0	0.0	153.6	43.6
=	0.0	0.0	154.0	43.5
=	0.0	0.0	154.4	43.4
=	0.0	0.0	154.8	43.3
=	0.0	0.0	155.1	43.2
=	0.0	0.0	155.6	43.1
=	0.0	0.0	156.0	43.0
=	0.0	0.0	156.4	42.9
=	0.0	0.0	156.8	42.7
=	0.0	0.0	157.3	42.7
=	0.0	0.0	157.7	42.6
=	0.0	0.0	158.1	42.4
=	0.0	0.0	158.5	42.3
=	0.0	0.0	158.9	42.2
=	0.0	0.0	159.3	42.1
=	0.0	0.0	159.7	42.0
=	0.0	0.0	160.1	42.0
=	0.0	0.0	160.5	41.8
=	0.0	0.0	160.9	41.7
=	0.0	0.0	161.4	41.5
=	0.0	0.0	161.9	41.4
=	0.0	0.0	162.7	41.3
=	0.0	0.0	163.2	41.2
=	0.0	0.0	163.6	41.1
=	0.0	0.0	164.0	40.9
=	0.0	0.0	164.5	40.7
=	0.0	0.0	164.8	40.6
=	0.0	0.0	165.3	40.6
=	0.0	0.0	165.7	40.5
=	0.0	0.0	166.1	40.4
=	0.0	0.0	166.5	40.3
=	0.0	0.0	166.9	40.2
=	0.0	0.0	167.3	40.2
=	0.0	0.0	167.7	40.0
=	0.0	0.0	168.1	39.9
=	0.0	0.0	168.5	39.9
=	0.0	0.0	169.3	39.7
=	0.0	0.0	169.9	39.5
=	0.0	0.0	170.5	39.3
=	0.0	0.0	171.1	39.2
=	0.0	0.0	171.7	39.0
=	0.0	0.0	172.5	38.8
=	0.0	0.0	173.1	38.6
=	0.0	0.0	173.5	38.6
=	0.0	0.0	173.9	38.5
=	0.0	0.0	174.4	38.4
=	0.0	0.0	174.8	38.3
=	0.0	0.0	175.2	38.2
=	0.0	0.0	175.6	38.1
=	0.0	0.0	176.0	38.1
=	0.0	0.0	176.4	37.9
=	0.0	0.0	176.8	37.8
=	0.0	0.0	177.2	37.7
=	0.0	0.0	177.6	37.7
=	0.0	0.0	178.0	37.6
=	0.0	0.0	178.4	37.5
=	0.0	0.0	178.8	37.4
=	0.0	0.0	179.2	37.2
=	0.0	0.0	179.6	37.1
=	0.0	0.0	180.1	37.1
=	0.0	0.0	180.5	37.0
=	0.0	0.0	180.9	36.8
=	0.0	0.0	181.3	36.8
=	0.0	0.0	181.7	36.7
=	0.0	0.0	182.1	36.6
=	0.0	0.0	182.5	36.5
=	0.0	0.0	182.9	36.5
=	0.0	0.0	183.3	36.4
=	0.0	0.0	183.7	36.3
=	0.0	0.0	184.1	36.2
=	0.0	0.0	184.5	36.2
=	0.0	0.0	184.9	36.1
=	0.0	0.0	185.3	36.0
=	0.0	0.0	185.7	35.8
=	0.0	0.0	186.2	35.7
=	0.0	0.0	186.6	35.7
=	0.0	0.0	187.4	35.5
=	0.0	0.0	188.2	35.3
=	0.0	0.0	189.0	35.1
=	0.0	0.0	189.8	35.0
=	0.0	0.0	190.6	34.8
=	0.0	0.0	191.4	34.6
=	0.0	0.0	192.2	34.5
=	0.0	0.0	193.0	34.3
=	0.0	0.0	193.8	34.1
=	0.0	0.0	194.2	34.0
=	0.0	0.0	194.7	33.9
=	0.0	0.0	195.4	33.8
=	0.0	0.0	195.8	33.7
=	0.0	0.0	196.3	33.6
=	0.0	0.0	196.7	33.5
=	0.0	0.0	197.2	33.4
=	0.0	0.0	197.9	33.3
=	0.0	0.0	198.5	33.2
=	0.0	0.0	198.9	33.1
=	0.0	0.0	199.3	33.1
=	0.0	0.0	199.7	33.0
=	0.0	0.0	200.2	32.9
=	0.0	0.0	200.6	32.8
=	0.0	0.0	201.0	32.6
=	0.0	0.0	201.4	32.5
=	0.0	0.0	201.8	32.5
=	0.0	0.0	202.2	32.4
=	0.0	0.0	202.6	32.4
=	0.0	0.0	203.0	32.3
=	0.0	0.0	203.4	32.2
=	0.0	0.0	203.8	32.0
=	0.0	0.0	204.0	32.0
=	0.0	0.0	204.4	31.9
=	0.0	0.0	204.7	31.9
=	0.0	0.0	205.0	31.9
=	0.0	0.0	205.3	31.8
=	0.0	0.0	205.7	31.7
=	0.0	0.0	206.1	31.6
=	0.0	0.0	206.4	31.6
=	0.0	0.0	206.8	31.5
=	0.0	0.0	207.2	31.4
=	0.0	0.0	207.6	31.3
=	0.0	0.0	208.0	31.3
=	0.0	0.0	208.4	31.2
=	0.0	0.0	208.6	31.1
=	0.0	0.0	209.0	31.1
=	0.0	0.0	209.3	31.0
=	0.0	0.0	209.6	31.0
=	0.0	0.0	210.0	30.9
=	0.0	0.0	210.4	30.9
=	0.0	0.0	210.8	30.8
=	0.0	0.0	211.2	30.7
=	0.0	0.0	211.5	30.7
=	0.0	0.0	211.8	30.6
=	0.0	0.0	212.2	30.4
=	0.0	0.0	212.6	30.4
=	0.0	0.0	213.1	30.3
=	0.0	0.0	213.5	30.3
=	0.0	0.0	213.9	30.3
=	0.0	0.0	214.3	30.2
=	0.0	0.0	214.7	30.1
=	0.0	0.0	215.2	30.0
=	0.0	0.0	215.6	29.9
=	0.0	0.0	216.1	29.8
=	0.0	0.0	216.5	29.7
=	0.0	0.0	217.3	29.6
=	0.0	0.0	217.6	29.5
=	0.0	0.0	218.1	29.4
=	0.0	0.0	218.5	29.4
=	0.0	0.0	218.9	29.3
=	0.0	0.0	219.3	29.3
=	0.0	0.0	219.7	29.2
=	0.0	0.0	220.5	29.1
=	0.0	0.0	221.1	29.0
=	0.0	0.0	221.5	28.9
=	0.0	0.0	221.9	28.8
=	0.0	0.0	222.3	28.7
=	0.0	0.0	222.7	28.6
=	0.0	0.0	223.2	28.5
=	0.0	0.0	223.5	28.5
=	0.0	0.0	223.9	28.4
=	0.0	0.0	224.3	28.3
=	0.0	0.0	224.5	28.3
=	0.0	0.0	224.8	28.3
=	0.0	0.0	225.1	28.2
=	0.0	0.0	225.4	28.2
=	0.0	0.0	225.8	28.1
=	0.0	0.0	226.2	28.1
=	0.0	0.0	226.6	28.0
=	0.0	0.0	226.9	27.9
=	0.0	0.0	227.3	27.8
=	0.0	0.0	227.6	27.8
=	0.0	0.0	228.0	27.7
=	0.0	0.0	228.4	27.6
=	0.0	0.0	228.8	27.6
=	0.0	0.0	229.1	27.5
=	0.0	0.0	229.6	27.5
=	0.0	0.0	230.0	27.4
=	0.0	0.0	230.4	27.3
=	0.0	0.0	230.7	27.3
=	0.0	0.0	231.1	27.3
=	0.0	0.0	231.5	27.2
=	0.0	0.0	231.7	27.2
=	0.0	0.0	232.1	27.1
=	0.0	0.0	232.4	27.1
=	0.0	0.0	232.7	27.0
=	0.0	0.0	233.2	26.9
=	0.0	0.0	233.5	26.9
=	0.0	0.0	233.8	26.8
=	0.0	0.0	234.1	26.8
=	0.0	0.0	234.5	26.7
=	0.0	0.0	235.0	26.6
=	0.0	0.0	235.4	26.5
=	0.0	0.0	235.8	26.5
=	0.0	0.0	236.1	26.4
=	0.0	0.0	236.5	26.4
=	0.0	0.0	237.0	26.3
=	0.0	0.0	237.4	26.3
=	0.0	0.0	237.8	26.2
=	0.0	0.0	238.2	26.1
=	0.0	0.0	238.6	26.1
=	0.0	0.0	239.0	26.0
=	0.0	0.0	239.4	26.0
=	0.0	0.0	239.8	25.9
=	0.0	0.0	240.3	25.8
=	0.0	0.0	240.7	25.8
=	0.0	0.0	241.0	25.7
=	0.0	0.0	241.5	25.6
=	0.0	0.0	241.9	25.5
=	0.0	0.0	242.3	25.5
=	0.0	0.0	242.7	25.4
=	0.0	0.0	243.3	25.4
=	0.0	0.0	243.6	25.3
=	0.0	0.0	244.1	25.3
=	0.0	0.0	244.5	25.2
=	0.0	0.0	245.1	25.1
=	0.0	0.0	245.9	25.0
=	0.0	0.0	246.7	24.9
=	0.0	0.0	247.1	24.8
=	0.0	0.0	247.5	24.8
=	0.0	0.0	247.9	24.7
=	0.0	0.0	248.3	24.6
=	0.0	0.0	248.9	24.5
=	0.0	0.0	249.2	24.4
=	0.0	0.0	249.5	24.4
=	0.0	0.0	249.9	24.3
=	0.0	0.0	250.1	24.3
=	0.0	0.0	250.6	24.2
=	0.0	0.0	251.0	24.2
=	0.0	0.0	251.3	24.1
=	0.0	0.0	251.6	24.1
=	0.0	0.0	252.0	24.0
=	0.0	0.0	252.4	24.0
=	0.0	0.0	252.8	24.0
=	0.0	0.0	253.2	23.9
=	0.0	0.0	253.6	23.8
=	0.0	0.0	254.0	23.8
=	0.0	0.0	254.4	23.7
=	0.0	0.0	254.8	23.6
=	0.0	0.0	255.2	23.6
=	0.0	0.0	255.6	23.5
=	0.0	0.0	256.0	23.5
=	0.0	0.0	256.4	23.4
=	0.0	0.0	256.8	23.4
=	0.0	0.0	257.2	23.3
=	0.0	0.0	257.6	23.2
=	0.0	0.0	258.0	23.2
=	0.0	0.0	258.4	23.1
=	0.0	0.0	258.8	23.1
=	0.0	0.0	259.2	23.0
=	0.0	0.0	259.6	23.0
=	0.0	0.0	260.0	22.9
=	0.0	0.0	260.4	22.9
=	0.0	0.0	260.9	22.8
=	0.0	0.0	261.3	22.8
=	0.0	0.0	261.7	22.7
=	0.0	0.0	262.1	22.7
=	0.0	0.0	262.7	22.6
=	0.0	0.0	263.5	22.5
=	0.0	0.0	264.1	22.5
=	0.0	0.0	264.5	22.4
=	0.0	0.0	264.9	22.3
=	0.0	0.0	265.3	22.3
=	0.0	0.0	265.7	22.2
=	0.0	0.0	266.1	22.1
=	0.0	0.0	266.5	22.1
=	0.0	0.0	266.9	22.0
=	0.0	0.0	267.3	21.9
=	0.0	0.0	267.7	21.9
=	0.0	0.0	268.1	21.9
=	0.0	0.0	268.5	21.8
=	0.0	0.0	268.9	21.8
=	0.0	0.0	269.3	21.8
=	0.0	0.0	269.7	21.7
=	0.0	0.0	270.1	21.6
=	0.0	0.0	270.5	21.6
=	0.0	0.0	271.0	21.6
=	0.0	0.0	271.4	21.5
=	0.0	0.0	271.7	21.5
=	0.0	0.0	272.1	21.4
=	0.0	0.0	272.5	21.4
=	0.0	0.0	272.8	21.3
=	0.0	0.0	273.1	21.2
=	0.0	0.0	273.5	21.2
=	0.0	0.0	273.9	21.2
=	0.0	0.0	274.3	21.1
=	0.0	0.0	274.7	21.1
=	0.0	0.0	275.0	21.0
=	0.0	0.0	275.4	21.0
=	0.0	0.0	275.7	21.0
=	0.0	0.0	276.2	20.9
=	0.0	0.0	276.6	20.8
=	0.0	0.0	276.9	20.8
=	0.0	0.0	277.3	20.7
=	0.0	0.0	277.7	20.7
=	0.0	0.0	278.2	20.7
=	0.0	0.0	278.6	20.6
=	0.0	0.0	279.2	20.5
=	0.0	0.0	279.6	20.5
=	0.0	0.0	280.0	20.4
=	0.0	0.0	280.3	20.4
=	0.0	0.0	280.6	20.3
=	0.0	0.0	281.0	20.3
=	0.0	0.0	281.4	20.2
=	0.0	0.0	281.8	20.2
=	0.0	0.0	282.2	20.2
=	0.0	0.0	282.6	20.1
=	0.0	0.0	283.0	20.1
=	0.0	0.0	283.4	20.1
=	0.0	0.0	283.8	20.0
=	0.0	0.0	284.3	19.9
=	0.0	0.0	284.7	19.8
=	0.0	0.0	285.1	19.8
=	0.0	0.0	285.5	19.7
=	0.0	0.0	286.0	19.7
=	0.0	0.0	286.7	19.6
=	0.0	0.0	287.1	19.6
=	0.0	0.0	287.5	19.5
=	0.0	0.0	287.9	19.5
=	0.0	0.0	288.3	19.5
=	0.0	0.0	288.7	19.4
=	0.0	0.0	289.3	19.4
=	0.0	0.0	289.9	19.3
=	0.0	0.0	290.3	19.2
=	0.0	0.0	290.8	19.2
=	0.0	0.0	291.2	19.1
=	0.0	0.0	291.5	19.1
=	0.0	0.0	291.9	19.0
=	0.0	0.0	292.5	19.0
=	0.0	0.0	293.0	18.9
=	0.0	0.0	293.4	18.9
=	0.0	0.0	293.8	18.8
=	0.0	0.0	294.2	18.8
=	0.0	0.0	294.6	18.7
=	0.0	0.0	295.2	18.6
=	0.0	0.0	295.6	18.6
=	0.0	0.0	296.0	18.6
=	0.0	0.0	296.4	18.6
=	0.0	0.0	296.8	18.6
=	0.0	0.0	297.2	18.5
=	0.0	0.0	297.8	18.5
=	0.0	0.0	298.7	18.4
=	0.0	0.0	299.3	18.3
=	0.0	0.0	299.8	18.2
=	0.0	0.0	300.6	18.1
=	0.0	0.0	301.1	18.0
=	0.0	0.0	301.5	18.0
=	0.0	0.0	301.9	17.9
=	0.0	0.0	302.5	17.9
=	0.0	0.0	302.9	17.9
=	0.0	0.0	303.3	17.8
=	0.0	0.0	303.7	17.8
=	0.0	0.0	304.1	17.7
=	0.0	0.0	304.5	17.7
=	0.0	0.0	304.9	17.6
=	0.0	0.0	305.3	17.6
=	0.0	0.0	305.7	17.6
=	0.0	0.0	306.2	17.5
=	0.0	0.0	306.5	17.5
=	0.0	0.0	306.9	17.5
=	0.0	0.0	307.1	17.4
=	0.0	0.0	307.4	17.4
=	0.0	0.0	307.7	17.4
=	0.0	0.0	308.1	17.3
=	0.0	0.0	308.5	17.3
=	0.0	0.0	308.9	17.2
=	0.0	0.0	309.3	17.2
=	0.0	0.0	309.7	17.2
=	0.0	0.0	310.0	17.2
=	0.0	0.0	310.4	17.1
=	0.0	0.0	310.8	17.1
=	0.0	0.0	311.2	17.0
=	0.0	0.0	311.6	17.0
=	0.0	0.0	312.0	16.9
=	0.0	0.0	312.5	16.9
=	0.0	0.0	312.9	16.9
=	0.0	0.0	313.3	16.8
=	0.0	0.0	313.7	16.8
=	0.0	0.0	314.0	16.8
=	0.0	0.0	314.5	16.7
=	0.0	0.0	314.9	16.7
=	0.0	0.0	315.3	16.7
=	0.0	0.0	315.7	16.7
=	0.0	0.0	316.1	16.6
=	0.0	0.0	316.5	16.6
=	0.0	0.0	316.9	16.5
=	0.0	0.0	317.3	16.5
=	0.0	0.0	317.7	16.4
=	0.0	0.0	318.1	16.4
=	0.0	0.0	318.5	16.3
=	0.0	0.0	318.9	16.3
=	0.0	0.0	319.3	16.2
=	0.0	0.0	319.9	16.2
=	0.0	0.0	320.3	16.1
=	0.0	0.0	320.8	16.1
=	0.0	0.0	321.0	16.1
=	0.0	0.0	321.3	16.1
=	0.0	0.0	321.6	16.0
=	0.0	0.0	321.9	16.0
=	0.0	0.0	322.3	16.0
=	0.0	0.0	322.7	15.9
=	0.0	0.0	323.1	15.9
=	0.0	0.0	323.6	15.9
=	0.0	0.0	324.0	15.8
=	0.0	0.0	324.4	15.8
=	0.0	0.0	324.8	15.8
=	0.0	0.0	325.2	15.7
=	0.0	0.0	325.6	15.7
=	0.0	0.0	326.0	15.7
=	0.0	0.0	326.4	15.7
=	0.0	0.0	326.8	15.6
=	0.0	0.0	327.2	15.5
=	0.0	0.0	327.6	15.5
=	0.0	0.0	328.0	15.5
=	0.0	0.0	328.3	15.4
=	0.0	0.0	328.8	15.4
=	0.0	0.0	329.2	15.4
=	0.0	0.0	329.6	15.3
=	0.0	0.0	330.0	15.3
=	0.0	0.0	330.4	15.2
=	0.0	0.0	330.8	15.2
=	0.0	0.0	331.2	15.2
=	0.0	0.0	331.6	15.1
=	0.0	0.0	332.0	15.1
=	0.0	0.0	332.4	15.1
=	0.0	0.0	332.8	15.0
=	0.0	0.0	333.2	15.0
=	0.0	0.0	333.4	15.0
=	0.0	0.0	333.7	14.9
=	0.0	0.0	334.0	14.9
=	0.0	0.0	334.2	14.9
=	0.0	0.0	334.5	14.9
=	0.0	0.0	334.8	14.9
=	0.0	0.0	335.1	14.9
=	0.0	0.0	335.5	14.8
=	0.0	0.0	335.9	14.8
=	0.0	0.0	336.3	14.8
=	0.0	0.0	336.7	14.7
=	0.0	0.0	337.1	14.7
=	0.0	0.0	337.5	14.6
=	0.0	0.0	337.9	14.6
=	0.0	0.0	338.3	14.6
=	0.0	0.0	338.7	14.6
=	0.0	0.0	339.2	14.5
=	0.0	0.0	339.7	14.5
=	0.0	0.0	340.6	14.5
=	0.0	0.0	341.3	14.4
=	0.0	0.0	341.8	14.3
=	0.0	0.0	342.1	14.3
=	0.0	0.0	342.5	14.3
=	0.0	0.0	342.8	14.3
=	0.0	0.0	343.2	14.2
=	0.0	0.0	343.6	14.2
=	0.0	0.0	344.0	14.2
=	0.0	0.0	344.4	14.2
=	0.0	0.0	344.7	14.1
=	0.0	0.0	345.0	14.1
=	0.0	0.0	345.4	14.0
=	0.0	0.0	346.0	14.0
=	0.0	0.0	346.5	13.9
=	0.0	0.0	347.0	13.9
=	0.0	0.0	347.3	13.9
=	0.0	0.0	347.7	13.8
:EOM # End of Measurement
#
# RFA300 ASCII Measurement Dump ( BDS format )
#
# Measurement number 	2
#
%VNR 1.0
%MOD 	RAT
%TYP 	SCN
%SCN 	DPT
%FLD 	ION
%DAT 	09-29-2011
%TIM 	12:00:00
%FSZ 	100	100
%BMT 	PHO	   6.0
%SSD 	0800
%BUP 	0
%BRD 	0800
%FSH 	1
%ASC 	0
%WEG 	60
%GPO 	0
%CPO 	0
%MEA 	5
%PRD 	0,0
%PTS 	805
%STS 	    0.0	  0.0	   0.0 # Start Scan values in mm ( X , Y , Z )
%EDS 	    0.0	   0.0	   347.7 # End Scan values in mm ( X , Y , Z )
#
#	  X      Y      Z     Dose
#
=	0.0	0.0	0.0	44.9
=	0.0	0.0	0.4	46.3
=	0.0	0.0	0.8	48.3
=	0.0	0.0	1.2	50.3
=	0.0	0.0	1.6	52.5
=	0.0	0.0	2.0	55.2
=	0.0	0.0	2.5	59.4
=	0.0	0.0	2.9	63.1
=	0.0	0.0	3.3	66.5
=	0.0	0.0	3.7	70.1
=	0.0	0.0	4.0	73.2
=	0.0	0.0	4.4	76.6
=	0.0	0.0	4.9	79.7
=	0.0	0.0	5.3	82.3
=	0.0	0.0	5.7	84.4
=	0.0	0.0	6.1	86.6
=	0.0	0.0	6.6	88.7
=	0.0	0.0	7.0	90.3
=	0.0	0.0	7.3	91.4
=	0.0	0.0	7.7	92.8
=	0.0	0.0	8.2	93.9
=	0.0	0.0	8.6	95.0
=	0.0	0.0	9.0	95.9
=	0.0	0.0	9.4	96.5
=	0.0	0.0	10.0	97.3
=	0.0	0.0	10.8	98.4
=	0.0	0.0	11.6	99.1
=	0.0	0.0	12.4	99.6
=	0.0	0.0	13.1	99.8
=	0.0	0.0	13.6	99.9
=	0.0	0.0	14.3	100.0
=	0.0	0.0	14.9	100.0
=	0.0	0.0	15.5	100.0
=	0.0	0.0	15.9	100.0
=	0.0	0.0	16.3	99.9
=	0.0	0.0	16.7	99.8
=	0.0	0.0	17.3	99.7
=	0.0	0.0	18.1	99.6
=	0.0	0.0	18.6	99.3
=	0.0	0.0	19.0	99.2
=	0.0	0.0	19.4	99.1
=	0.0	0.0	19.8	99.0
=	0.0	0.0	20.2	98.8
=	0.0	0.0	20.6	98.6
=	0.0	0.0	21.0	98.3
=	0.0	0.0	21.4	98.2
=	0.0	0.0	21.8	98.1
=	0.0	0.0	22.2	97.8
=	0.0	0.0	22.6	97.5
=	0.0	0.0	23.0	97.4
=	0.0	0.0	23.5	97.2
=	0.0	0.0	23.8	97.0
=	0.0	0.0	24.2	96.9
=	0.0	0.0	24.7	96.7
=	0.0	0.0	25.1	96.5
=	0.0	0.0	25.5	96.3
=	0.0	0.0	25.9	96.1
=	0.0	0.0	26.3	95.9
=	0.0	0.0	26.7	95.7
=	0.0	0.0	27.1	95.5
=	0.0	0.0	27.5	95.4
=	0.0	0.0	27.8	95.3
=	0.0	0.0	28.3	95.1
=	0.0	0.0	28.7	94.8
=	0.0	0.0	29.1	94.6
=	0.0	0.0	29.5	94.5
=	0.0	0.0	29.9	94.3
=	0.0	0.0	30.2	94.1
=	0.0	0.0	30.5	94.0
=	0.0	0.0	30.9	93.8
=	0.0	0.0	31.3	93.6
=	0.0	0.0	31.8	93.5
=	0.0	0.0	32.5	93.0
=	0.0	0.0	33.2	92.8
=	0.0	0.0	33.6	92.6
=	0.0	0.0	34.0	92.5
=	0.0	0.0	34.4	92.2
=	0.0	0.0	34.8	92.0
=	0.0	0.0	35.2	91.8
=	0.0	0.0	35.6	91.7
=	0.0	0.0	36.0	91.5
=	0.0	0.0	36.4	91.3
=	0.0	0.0	36.8	91.1
=	0.0	0.0	37.2	90.9
=	0.0	0.0	37.6	90.7
=	0.0	0.0	38.2	90.5
=	0.0	0.0	38.6	90.2
=	0.0	0.0	39.0	90.0
=	0.0	0.0	39.4	89.9
=	0.0	0.0	39.8	89.7
=	0.0	0.0	40.2	89.5
=	0.0	0.0	40.6	89.3
=	0.0	0.0	41.0	89.1
=	0.0	0.0	41.4	88.9
=	0.0	0.0	41.8	88.7
=	0.0	0.0	42.2	88.5
=	0.0	0.0	42.6	88.3
=	0.0	0.0	43.0	88.2
=	0.0	0.0	43.4	88.0
=	0.0	0.0	43.8	87.8
=	0.0	0.0	44.2	87.7
=	0.0	0.0	44.6	87.5
=	0.0	0.0	45.0	87.3
=	0.0	0.0	45.4	87.1
=	0.0	0.0	45.9	86.9
=	0.0	0.0	46.3	86.7
=	0.0	0.0	46.7	86.6
=	0.0	0.0	47.2	86.4
=	0.0	0.0	47.6	86.3
=	0.0	0.0	47.9	86.1
=	0.0	0.0	48.2	86.0
=	0.0	0.0	48.5	85.8
=	0.0	0.0	48.9	85.6
=	0.0	0.0	49.2	85.4
=	0.0	0.0	49.7	85.2
=	0.0	0.0	50.1	84.9
=	0.0	0.0	50.5	84.8
=	0.0	0.0	50.9	84.7
=	0.0	0.0	51.3	84.5
=	0.0	0.0	51.9	84.2
=	0.0	0.0	52.3	84.1
=	0.0	0.0	52.7	84.0
=	0.0	0.0	53.1	83.8
=	0.0	0.0	53.5	83.5
=	0.0	0.0	53.9	83.3
=	0.0	0.0	54.3	83.2
=	0.0	0.0	54.7	83.0
=	0.0	0.0	55.5	82.5
=	0.0	0.0	56.2	82.2
=	0.0	0.0	56.6	82.1
=	0.0	0.0	57.0	81.9
=	0.0	0.0	57.4	81.7
=	0.0	0.0	57.8	81.6
=	0.0	0.0	58.2	81.4
=	0.0	0.0	58.6	81.3
=	0.0	0.0	59.0	81.1
=	0.0	0.0	59.4	80.9
=	0.0	0.0	59.8	80.6
=	0.0	0.0	60.2	80.4
=	0.0	0.0	60.7	80.2
=	0.0	0.0	61.1	80.1
=	0.0	0.0	61.4	80.0
=	0.0	0.0	61.7	79.9
=	0.0	0.0	62.1	79.8
=	0.0	0.0	62.5	79.6
=	0.0	0.0	62.9	79.4
=	0.0	0.0	63.3	79.3
=	0.0	0.0	63.7	79.1
=	0.0	0.0	64.1	79.0
=	0.0	0.0	64.5	78.8
=	0.0	0.0	65.0	78.5
=	0.0	0.0	65.4	78.3
=	0.0	0.0	65.8	78.1
=	0.0	0.0	66.2	78.0
=	0.0	0.0	66.6	77.8
=	0.0	0.0	67.0	77.6
=	0.0	0.0	67.4	77.5
=	0.0	0.0	67.8	77.4
=	0.0	0.0	68.2	77.3
=	0.0	0.0	68.4	77.1
=	0.0	0.0	68.7	76.9
=	0.0	0.0	69.0	76.8
=	0.0	0.0	69.4	76.6
=	0.0	0.0	69.7	76.5
=	0.0	0.0	70.0	76.4
=	0.0	0.0	70.3	76.3
=	0.0	0.0	70.7	76.1
=	0.0	0.0	71.1	76.0
=	0.0	0.0	71.5	75.8
=	0.0	0.0	71.8	75.7
=	0.0	0.0	72.1	75.5
=	0.0	0.0	72.4	75.4
=	0.0	0.0	72.7	75.3
=	0.0	0.0	72.9	75.2
=	0.0	0.0	73.2	75.1
=	0.0	0.0	73.5	74.9
=	0.0	0.0	73.8	74.8
=	0.0	0.0	74.1	74.6
=	0.0	0.0	74.4	74.5
=	0.0	0.0	74.7	74.3
=	0.0	0.0	75.0	74.2
=	0.0	0.0	75.4	74.1
=	0.0	0.0	75.8	73.9
=	0.0	0.0	76.1	73.8
=	0.0	0.0	76.4	73.8
=	0.0	0.0	76.7	73.6
=	0.0	0.0	77.2	73.4
=	0.0	0.0	77.7	73.2
=	0.0	0.0	78.1	73.0
=	0.0	0.0	78.5	72.9
=	0.0	0.0	78.9	72.8
=	0.0	0.0	79.4	72.5
=	0.0	0.0	80.0	72.3
=	0.0	0.0	80.4	72.1
=	0.0	0.0	80.8	72.0
=	0.0	0.0	81.2	71.9
=	0.0	0.0	81.6	71.7
=	0.0	0.0	82.0	71.5
=	0.0	0.0	82.5	71.2
=	0.0	0.0	82.8	71.2
=	0.0	0.0	83.3	71.0
=	0.0	0.0	83.7	70.8
=	0.0	0.0	84.1	70.7
=	0.0	0.0	84.5	70.5
=	0.0	0.0	84.9	70.4
=	0.0	0.0	85.3	70.2
=	0.0	0.0	85.7	70.0
=	0.0	0.0	86.2	69.8
=	0.0	0.0	86.6	69.6
=	0.0	0.0	87.0	69.4
=	0.0	0.0	87.4	69.3
=	0.0	0.0	87.8	69.2
=	0.0	0.0	88.2	69.1
=	0.0	0.0	88.6	68.9
=	0.0	0.0	88.9	68.8
=	0.0	0.0	89.3	68.6
=	0.0	0.0	89.7	68.5
=	0.0	0.0	90.1	68.4
=	0.0	0.0	90.5	68.2
=	0.0	0.0	90.8	68.0
=	0.0	0.0	91.1	67.9
=	0.0	0.0	91.4	67.8
=	0.0	0.0	91.7	67.7
=	0.0	0.0	91.9	67.6
=	0.0	0.0	92.2	67.5
=	0.0	0.0	92.5	67.4
=	0.0	0.0	92.9	67.2
=	0.0	0.0	93.3	67.1
=	0.0	0.0	93.7	66.9
=	0.0	0.0	94.0	66.9
=	0.0	0.0	94.4	66.8
=	0.0	0.0	94.8	66.6
=	0.0	0.0	95.2	66.4
=	0.0	0.0	95.6	66.3
=	0.0	0.0	95.9	66.1
=	0.0	0.0	96.2	66.0
=	0.0	0.0	96.5	65.8
=	0.0	0.0	96.8	65.8
=	0.0	0.0	97.2	65.7
=	0.0	0.0	97.7	65.4
=	0.0	0.0	98.1	65.3
=	0.0	0.0	98.5	65.1
=	0.0	0.0	98.9	65.0
=	0.0	0.0	99.3	64.8
=	0.0	0.0	99.7	64.7
=	0.0	0.0	100.3	64.5
=	0.0	0.0	100.8	64.3
=	0.0	0.0	101.2	64.1
=	0.0	0.0	101.6	64.0
=	0.0	0.0	102.0	63.9
=	0.0	0.0	102.3	63.8
=	0.0	0.0	102.8	63.6
=	0.0	0.0	103.4	63.4
=	0.0	0.0	103.7	63.3
=	0.0	0.0	104.2	63.0
=	0.0	0.0	104.6	62.9
=	0.0	0.0	105.0	62.8
=	0.0	0.0	105.4	62.6
=	0.0	0.0	105.8	62.4
=	0.0	0.0	106.2	62.3
=	0.0	0.0	106.6	62.1
=	0.0	0.0	107.1	62.0
=	0.0	0.0	107.5	61.9
=	0.0	0.0	107.8	61.7
=	0.0	0.0	108.3	61.5
=	0.0	0.0	108.7	61.4
=	0.0	0.0	109.1	61.3
=	0.0	0.0	109.5	61.1
=	0.0	0.0	109.9	61.0
=	0.0	0.0	110.3	60.9
=	0.0	0.0	110.7	60.7
=	0.0	0.0	111.1	60.6
=	0.0	0.0	111.5	60.5
=	0.0	0.0	111.9	60.4
=	0.0	0.0	112.3	60.2
=	0.0	0.0	112.7	60.1
=	0.0	0.0	113.1	59.9
=	0.0	0.0	113.3	59.8
=	0.0	0.0	113.6	59.7
=	0.0	0.0	113.9	59.6
=	0.0	0.0	114.3	59.5
=	0.0	0.0	114.8	59.5
=	0.0	0.0	115.2	59.3
=	0.0	0.0	115.6	59.2
=	0.0	0.0	116.0	59.1
=	0.0	0.0	116.4	58.9
=	0.0	0.0	116.8	58.7
=	0.0	0.0	117.2	58.5
=	0.0	0.0	117.7	58.4
=	0.0	0.0	118.0	58.3
=	0.0	0.0	118.3	58.2
=	0.0	0.0	118.6	58.1
=	0.0	0.0	118.8	58.0
=	0.0	0.0	119.1	57.9
=	0.0	0.0	119.5	57.8
=	0.0	0.0	119.9	57.7
=	0.0	0.0	120.4	57.4
=	0.0	0.0	120.8	57.3
=	0.0	0.0	121.2	57.2
=	0.0	0.0	121.6	57.1
=	0.0	0.0	122.0	57.0
=	0.0	0.0	122.2	56.9
=	0.0	0.0	122.6	56.8
=	0.0	0.0	123.0	56.6
=	0.0	0.0	123.4	56.5
=	0.0	0.0	123.7	56.4
=	0.0	0.0	124.1	56.3
=	0.0	0.0	124.4	56.1
=	0.0	0.0	124.8	56.0
=	0.0	0.0	125.2	55.9
=	0.0	0.0	125.6	55.9
=	0.0	0.0	126.1	55.7
=	0.0	0.0	126.4	55.6
=	0.0	0.0	126.8	55.4
=	0.0	0.0	127.2	55.2
=	0.0	0.0	127.7	55.1
=	0.0	0.0	128.0	55.1
=	0.0	0.0	128.5	55.0
=	0.0	0.0	128.9	54.9
=	0.0	0.0	129.3	54.7
=	0.0	0.0	129.7	54.5
=	0.0	0.0	130.1	54.4
=	0.0	0.0	130.5	54.3
=	0.0	0.0	131.1	54.2
=	0.0	0.0	131.9	53.8
=	0.0	0.0	132.8	53.6
=	0.0	0.0	133.6	53.4
=	0.0	0.0	134.4	53.1
=	0.0	0.0	135.2	52.9
=	0.0	0.0	136.0	52.6
=	0.0	0.0	136.8	52.4
=	0.0	0.0	137.3	52.3
=	0.0	0.0	138.0	52.0
=	0.0	0.0	138.5	51.8
=	0.0	0.0	138.9	51.7
=	0.0	0.0	139.3	51.7
=	0.0	0.0	139.7	51.6
=	0.0	0.0	140.1	51.5
=	0.0	0.0	140.5	51.3
=	0.0	0.0	140.9	51.2
=	0.0	0.0	141.3	51.0
=	0.0	0.0	141.7	50.9
=	0.0	0.0	142.1	50.8
=	0.0	0.0	142.6	50.7
=	0.0	0.0	143.0	50.6
=	0.0	0.0	143.4	50.4
=	0.0	0.0	143.8	50.3
=	0.0	0.0	144.2	50.1
=	0.0	0.0	144.6	50.0
=	0.0	0.0	145.0	49.9
=	0.0	0.0	145.4	49.8
=	0.0	0.0	145.8	49.7
=	0.0	0.0	146.2	49.6
=	0.0	0.0	146.6	49.5
=	0.0	0.0	147.0	49.3
=	0.0	0.0	147.4	49.2
=	0.0	0.0	147.8	49.2
=	0.0	0.0	148.2	49.1
=	0.0	0.0	148.6	48.9
=	0.0	0.0	149.0	48.8
=	0.0	0.0	149.3	48.7
=	0.0	0.0	149.7	48.6
=	0.0	0.0	150.0	48.5
=	0.0	0.0	150.5	48.4
=	0.0	0.0	150.9	48.2
=	0.0	0.0	151.3	48.1
=	0.0	0.0	151.7	48.0
=	0.0	0.0	152.1	47.9
=	0.0	0.0	152.5	47.9
=	0.0	0.0	152.9	47.8
=	0.0	0.0	153.3	47.6
=	0.0	0.0	153.8	47.5
=	0.0	0.0	154.2	47.5
=	0.0	0.0	154.6	47.3
=	0.0	0.0	155.0	47.2
=	0.0	0.0	155.4	47.0
=	0.0	0.0	155.8	47.0
=	0.0	0.0	156.1	46.9
=	0.0	0.0	156.6	46.7
=	0.0	0.0	157.3	46.5
=	0.0	0.0	157.8	46.4
=	0.0	0.0	158.6	46.2
=	0.0	0.0	159.4	46.0
=	0.0	0.0	160.0	45.9
=	0.0	0.0	160.5	45.8
=	0.0	0.0	160.9	45.7
=	0.0	0.0	161.2	45.6
=	0.0	0.0	161.7	45.4
=	0.0	0.0	162.1	45.3
=	0.0	0.0	162.4	45.2
=	0.0	0.0	162.9	45.1
=	0.0	0.0	163.3	45.0
=	0.0	0.0	163.9	44.9
=	0.0	0.0	164.4	44.8
=	0.0	0.0	164.7	44.6
=	0.0	0.0	165.2	44.5
=	0.0	0.0	165.5	44.4
=	0.0	0.0	166.0	44.3
=	0.0	0.0	166.4	44.2
=	0.0	0.0	166.8	44.1
=	0.0	0.0	167.2	44.0
=	0.0	0.0	167.6	43.9
=	0.0	0.0	168.0	43.8
=	0.0	0.0	168.4	43.6
=	0.0	0.0	168.9	43.5
=	0.0	0.0	169.3	43.4
=	0.0	0.0	169.7	43.3
=	0.0	0.0	170.1	43.2
=	0.0	0.0	170.5	43.1
=	0.0	0.0	170.9	43.0
=	0.0	0.0	171.3	42.9
=	0.0	0.0	171.8	42.8
=	0.0	0.0	172.1	42.7
=	0.0	0.0	172.7	42.6
=	0.0	0.0	173.2	42.5
=	0.0	0.0	173.6	42.4
=	0.0	0.0	174.3	42.2
=	0.0	0.0	174.8	42.1
=	0.0	0.0	175.2	42.0
=	0.0	0.0	175.6	41.9
=	0.0	0.0	176.3	41.7
=	0.0	0.0	177.2	41.6
=	0.0	0.0	177.8	41.4
=	0.0	0.0	178.4	41.3
=	0.0	0.0	179.2	41.1
=	0.0	0.0	180.0	40.9
=	0.0	0.0	180.8	40.7
=	0.0	0.0	181.3	40.6
=	0.0	0.0	181.7	40.5
=	0.0	0.0	182.1	40.4
=	0.0	0.0	182.5	40.3
=	0.0	0.0	182.9	40.2
=	0.0	0.0	183.3	40.2
=	0.0	0.0	183.7	40.1
=	0.0	0.0	184.1	40.0
=	0.0	0.0	184.5	39.9
=	0.0	0.0	185.0	39.8
=	0.0	0.0	185.4	39.7
=	0.0	0.0	185.8	39.6
=	0.0	0.0	186.2	39.4
=	0.0	0.0	186.6	39.3
=	0.0	0.0	187.0	39.2
=	0.0	0.0	187.4	39.1
=	0.0	0.0	187.8	39.1
=	0.0	0.0	188.2	39.0
=	0.0	0.0	188.6	38.9
=	0.0	0.0	189.0	38.8
=	0.0	0.0	189.4	38.7
=	0.0	0.0	189.8	38.7
=	0.0	0.0	190.2	38.6
=	0.0	0.0	190.6	38.5
=	0.0	0.0	191.1	38.4
=	0.0	0.0	191.5	38.3
=	0.0	0.0	191.9	38.1
=	0.0	0.0	192.3	38.1
=	0.0	0.0	192.8	38.0
=	0.0	0.0	193.3	37.9
=	0.0	0.0	193.7	37.8
=	0.0	0.0	194.2	37.7
=	0.0	0.0	194.6	37.6
=	0.0	0.0	195.3	37.5
=	0.0	0.0	195.7	37.4
=	0.0	0.0	196.5	37.3
=	0.0	0.0	197.0	37.2
=	0.0	0.0	197.4	37.0
=	0.0	0.0	197.8	37.0
=	0.0	0.0	198.5	36.8
=	0.0	0.0	199.2	36.6
=	0.0	0.0	199.8	36.5
=	0.0	0.0	200.6	36.3
=	0.0	0.0	201.2	36.2
=	0.0	0.0	201.8	36.1
=	0.0	0.0	202.6	35.9
=	0.0	0.0	203.0	35.8
=	0.0	0.0	203.4	35.7
=	0.0	0.0	203.8	35.6
=	0.0	0.0	204.6	35.5
=	0.0	0.0	205.4	35.3
=	0.0	0.0	205.9	35.2
=	0.0	0.0	206.3	35.2
=	0.0	0.0	206.7	35.1
=	0.0	0.0	207.1	35.0
=	0.0	0.0	207.5	34.9
=	0.0	0.0	207.9	34.8
=	0.0	0.0	208.3	34.8
=	0.0	0.0	208.7	34.7
=	0.0	0.0	209.0	34.6
=	0.0	0.0	209.3	34.5
=	0.0	0.0	209.7	34.5
=	0.0	0.0	210.1	34.4
=	0.0	0.0	210.5	34.2
=	0.0	0.0	210.9	34.2
=	0.0	0.0	211.1	34.2
=	0.0	0.0	211.4	34.1
=	0.0	0.0	211.8	34.1
=	0.0	0.0	212.2	34.0
=	0.0	0.0	212.6	33.9
=	0.0	0.0	213.0	33.8
=	0.0	0.0	213.4	33.7
=	0.0	0.0	213.8	33.6
=	0.0	0.0	214.1	33.6
=	0.0	0.0	214.5	33.5
=	0.0	0.0	215.0	33.4
=	0.0	0.0	215.8	33.3
=	0.0	0.0	216.7	33.1
=	0.0	0.0	217.4	33.0
=	0.0	0.0	218.3	32.8
=	0.0	0.0	218.9	32.7
=	0.0	0.0	219.5	32.6
=	0.0	0.0	220.3	32.5
=	0.0	0.0	220.7	32.4
=	0.0	0.0	221.1	32.3
=	0.0	0.0	221.6	32.2
=	0.0	0.0	222.0	32.2
=	0.0	0.0	222.4	32.1
=	0.0	0.0	222.8	32.0
=	0.0	0.0	223.1	31.9
=	0.0	0.0	223.4	31.9
=	0.0	0.0	223.7	31.9
=	0.0	0.0	223.9	31.8
=	0.0	0.0	224.3	31.7
=	0.0	0.0	224.6	31.7
=	0.0	0.0	224.9	31.7
=	0.0	0.0	225.1	31.6
=	0.0	0.0	225.4	31.6
=	0.0	0.0	225.7	31.5
=	0.0	0.0	226.0	31.5
=	0.0	0.0	226.3	31.4
=	0.0	0.0	226.5	31.4
=	0.0	0.0	226.8	31.3
=	0.0	0.0	227.2	31.2
=	0.0	0.0	227.6	31.2
=	0.0	0.0	227.9	31.1
=	0.0	0.0	228.2	31.1
=	0.0	0.0	228.5	31.0
=	0.0	0.0	228.8	30.9
=	0.0	0.0	229.3	30.9
=	0.0	0.0	229.7	30.8
=	0.0	0.0	230.1	30.7
=	0.0	0.0	230.5	30.7
=	0.0	0.0	230.9	30.6
=	0.0	0.0	231.3	30.5
=	0.0	0.0	231.7	30.4
=	0.0	0.0	232.1	30.3
=	0.0	0.0	232.5	30.2
=	0.0	0.0	232.9	30.2
=	0.0	0.0	233.4	30.1
=	0.0	0.0	233.8	30.1
=	0.0	0.0	234.2	30.0
=	0.0	0.0	234.6	30.0
=	0.0	0.0	234.9	29.9
=	0.0	0.0	235.3	29.8
=	0.0	0.0	235.7	29.7
=	0.0	0.0	236.1	29.7
=	0.0	0.0	236.4	29.6
=	0.0	0.0	236.7	29.6
=	0.0	0.0	237.1	29.5
=	0.0	0.0	237.5	29.5
=	0.0	0.0	238.0	29.4
=	0.0	0.0	238.4	29.4
=	0.0	0.0	238.8	29.3
=	0.0	0.0	239.2	29.2
=	0.0	0.0	239.6	29.1
=	0.0	0.0	240.0	29.0
=	0.0	0.0	240.4	29.0
=	0.0	0.0	240.8	28.9
=	0.0	0.0	241.2	28.8
=	0.0	0.0	241.6	28.8
=	0.0	0.0	242.0	28.7
=	0.0	0.0	242.4	28.7
=	0.0	0.0	242.9	28.6
=	0.0	0.0	243.2	28.5
=	0.0	0.0	243.6	28.5
=	0.0	0.0	244.1	28.5
