:MSR 	10	 # No. of measurement in file
:SYS BDS 0   # Beam Data Scanner System
#
# RFA300 ASCII Measurement Dump ( BDS format )
#
# Measurement number 	1
#
%VNR 1.0
%MOD 	RAT
%TYP 	SCN
%SCN 	PRO
%FLD 	ION
%DAT 	10-14-2011
%TIM 	12:00:00
%FSZ 	400	150
%BMT 	PHO	   6.0
%SSD 	1000
%BUP 	0
%BRD 	1000
%FSH 	1
%ASC 	0
%WEG 	60
%GPO 	0
%CPO 	0
%MEA 	6
%PRD 	15,0
%PTS 	829
%STS 	    0.0	  -252.7	   15.0 # Start Scan values in mm ( X , Y , Z )
%EDS 	    0.0	   252.7	   15.0 # End Scan values in mm ( X , Y , Z )
#
#	  X      Y      Z     Dose
#
=	0.0	-252.7	15.0	7.2
=	0.0	-252.1	15.0	7.2
=	0.0	-251.4	15.0	7.2
=	0.0	-250.7	15.0	7.3
=	0.0	-250.1	15.0	7.3
=	0.0	-249.5	15.0	7.4
=	0.0	-249.0	15.0	7.4
=	0.0	-248.4	15.0	7.4
=	0.0	-247.8	15.0	7.4
=	0.0	-247.1	15.0	7.5
=	0.0	-246.6	15.0	7.5
=	0.0	-245.9	15.0	7.5
=	0.0	-245.3	15.0	7.5
=	0.0	-244.8	15.0	7.5
=	0.0	-244.1	15.0	7.5
=	0.0	-243.3	15.0	7.6
=	0.0	-242.8	15.0	7.6
=	0.0	-242.2	15.0	7.6
=	0.0	-241.6	15.0	7.7
=	0.0	-241.0	15.0	7.7
=	0.0	-240.4	15.0	7.7
=	0.0	-239.9	15.0	7.7
=	0.0	-239.3	15.0	7.7
=	0.0	-238.7	15.0	7.8
=	0.0	-238.1	15.0	7.8
=	0.0	-237.6	15.0	7.8
=	0.0	-236.9	15.0	7.9
=	0.0	-236.3	15.0	7.9
=	0.0	-235.6	15.0	7.9
=	0.0	-234.9	15.0	7.9
=	0.0	-234.2	15.0	8.0
=	0.0	-233.5	15.0	8.0
=	0.0	-232.8	15.0	8.0
=	0.0	-232.2	15.0	8.1
=	0.0	-231.5	15.0	8.1
=	0.0	-230.9	15.0	8.2
=	0.0	-230.3	15.0	8.2
=	0.0	-229.8	15.0	8.3
=	0.0	-229.0	15.0	8.3
=	0.0	-228.4	15.0	8.4
=	0.0	-227.6	15.0	8.5
=	0.0	-227.1	15.0	8.6
=	0.0	-226.5	15.0	8.6
=	0.0	-226.0	15.0	8.7
=	0.0	-225.5	15.0	8.8
=	0.0	-224.9	15.0	8.8
=	0.0	-224.3	15.0	8.9
=	0.0	-223.7	15.0	8.9
=	0.0	-223.0	15.0	9.0
=	0.0	-222.3	15.0	9.2
=	0.0	-221.8	15.0	9.2
=	0.0	-221.2	15.0	9.3
=	0.0	-220.6	15.0	9.4
=	0.0	-220.0	15.0	9.5
=	0.0	-219.4	15.0	9.5
=	0.0	-218.8	15.0	9.7
=	0.0	-218.2	15.0	9.7
=	0.0	-217.6	15.0	9.8
=	0.0	-216.8	15.0	10.0
=	0.0	-216.2	15.0	10.1
=	0.0	-215.4	15.0	10.2
=	0.0	-214.9	15.0	10.4
=	0.0	-214.2	15.0	10.6
=	0.0	-213.5	15.0	10.8
=	0.0	-212.9	15.0	11.0
=	0.0	-212.3	15.0	11.3
=	0.0	-211.8	15.0	11.5
=	0.0	-211.2	15.0	11.9
=	0.0	-210.5	15.0	12.4
=	0.0	-209.9	15.0	13.1
=	0.0	-209.4	15.0	13.9
=	0.0	-208.7	15.0	15.1
=	0.0	-208.2	15.0	16.4
=	0.0	-207.5	15.0	18.9
=	0.0	-206.8	15.0	21.8
=	0.0	-206.2	15.0	24.9
=	0.0	-205.7	15.0	28.4
=	0.0	-205.1	15.0	32.6
=	0.0	-204.4	15.0	37.8
=	0.0	-203.8	15.0	42.5
=	0.0	-203.1	15.0	48.3
=	0.0	-202.5	15.0	53.7
=	0.0	-201.9	15.0	58.8
=	0.0	-201.2	15.0	64.9
=	0.0	-200.4	15.0	71.1
=	0.0	-199.7	15.0	76.2
=	0.0	-199.1	15.0	79.3
=	0.0	-198.5	15.0	81.9
=	0.0	-197.9	15.0	84.3
=	0.0	-197.3	15.0	85.6
=	0.0	-196.7	15.0	86.9
=	0.0	-196.1	15.0	87.8
=	0.0	-195.3	15.0	88.6
=	0.0	-194.5	15.0	89.4
=	0.0	-193.7	15.0	89.9
=	0.0	-193.1	15.0	90.2
=	0.0	-192.6	15.0	90.3
=	0.0	-192.1	15.0	90.5
=	0.0	-191.5	15.0	90.7
=	0.0	-190.7	15.0	90.9
=	0.0	-190.2	15.0	91.0
=	0.0	-189.6	15.0	91.2
=	0.0	-189.0	15.0	91.3
=	0.0	-188.4	15.0	91.4
=	0.0	-187.8	15.0	91.5
=	0.0	-187.1	15.0	91.6
=	0.0	-186.6	15.0	91.8
=	0.0	-186.0	15.0	91.8
=	0.0	-185.4	15.0	91.9
=	0.0	-184.6	15.0	92.0
=	0.0	-184.1	15.0	92.1
=	0.0	-183.4	15.0	92.2
=	0.0	-182.7	15.0	92.4
=	0.0	-182.1	15.0	92.5
=	0.0	-181.5	15.0	92.5
=	0.0	-180.9	15.0	92.6
=	0.0	-180.2	15.0	92.6
=	0.0	-179.7	15.0	92.7
=	0.0	-179.1	15.0	92.7
=	0.0	-178.6	15.0	92.9
=	0.0	-178.0	15.0	93.0
=	0.0	-177.4	15.0	93.1
=	0.0	-176.9	15.0	93.1
=	0.0	-176.4	15.0	93.2
=	0.0	-175.8	15.0	93.2
=	0.0	-175.2	15.0	93.3
=	0.0	-174.5	15.0	93.3
=	0.0	-173.9	15.0	93.4
=	0.0	-173.3	15.0	93.5
=	0.0	-172.7	15.0	93.6
=	0.0	-172.0	15.0	93.6
=	0.0	-171.2	15.0	93.7
=	0.0	-170.7	15.0	93.8
=	0.0	-170.0	15.0	93.9
=	0.0	-169.5	15.0	93.9
=	0.0	-169.0	15.0	93.9
=	0.0	-168.3	15.0	94.0
=	0.0	-167.8	15.0	94.1
=	0.0	-167.2	15.0	94.2
=	0.0	-166.5	15.0	94.2
=	0.0	-165.9	15.0	94.3
=	0.0	-165.4	15.0	94.3
=	0.0	-164.7	15.0	94.3
=	0.0	-164.1	15.0	94.4
=	0.0	-163.4	15.0	94.4
=	0.0	-162.7	15.0	94.5
=	0.0	-162.1	15.0	94.5
=	0.0	-161.4	15.0	94.6
=	0.0	-160.8	15.0	94.7
=	0.0	-160.1	15.0	94.7
=	0.0	-159.4	15.0	94.7
=	0.0	-158.6	15.0	94.8
=	0.0	-158.0	15.0	94.8
=	0.0	-157.5	15.0	94.9
=	0.0	-157.0	15.0	95.0
=	0.0	-156.4	15.0	95.1
=	0.0	-155.6	15.0	95.2
=	0.0	-154.8	15.0	95.3
=	0.0	-154.1	15.0	95.3
=	0.0	-153.5	15.0	95.4
=	0.0	-152.9	15.0	95.4
=	0.0	-152.3	15.0	95.4
=	0.0	-151.7	15.0	95.5
=	0.0	-151.2	15.0	95.5
=	0.0	-150.6	15.0	95.5
=	0.0	-149.9	15.0	95.6
=	0.0	-149.4	15.0	95.7
=	0.0	-148.8	15.0	95.7
=	0.0	-148.3	15.0	95.7
=	0.0	-147.8	15.0	95.7
=	0.0	-147.2	15.0	95.8
=	0.0	-146.5	15.0	95.8
=	0.0	-145.9	15.0	95.9
=	0.0	-145.2	15.0	95.9
=	0.0	-144.6	15.0	96.0
=	0.0	-143.9	15.0	96.0
=	0.0	-143.2	15.0	96.1
=	0.0	-142.6	15.0	96.2
=	0.0	-142.0	15.0	96.2
=	0.0	-141.4	15.0	96.3
=	0.0	-140.8	15.0	96.3
=	0.0	-140.0	15.0	96.3
=	0.0	-139.4	15.0	96.4
=	0.0	-138.7	15.0	96.4
=	0.0	-138.1	15.0	96.4
=	0.0	-137.6	15.0	96.5
=	0.0	-137.0	15.0	96.5
=	0.0	-136.2	15.0	96.6
=	0.0	-135.6	15.0	96.7
=	0.0	-135.0	15.0	96.7
=	0.0	-134.5	15.0	96.7
=	0.0	-133.7	15.0	96.8
=	0.0	-132.9	15.0	96.8
=	0.0	-132.3	15.0	96.9
=	0.0	-131.7	15.0	96.9
=	0.0	-130.9	15.0	97.0
=	0.0	-130.4	15.0	97.0
=	0.0	-129.8	15.0	97.1
=	0.0	-129.0	15.0	97.1
=	0.0	-128.4	15.0	97.2
=	0.0	-127.9	15.0	97.2
=	0.0	-127.3	15.0	97.2
=	0.0	-126.7	15.0	97.3
=	0.0	-126.2	15.0	97.3
=	0.0	-125.6	15.0	97.3
=	0.0	-125.0	15.0	97.4
=	0.0	-124.4	15.0	97.4
=	0.0	-123.8	15.0	97.5
=	0.0	-123.3	15.0	97.5
=	0.0	-122.7	15.0	97.6
=	0.0	-122.2	15.0	97.6
=	0.0	-121.6	15.0	97.6
=	0.0	-121.0	15.0	97.6
=	0.0	-120.4	15.0	97.7
=	0.0	-119.9	15.0	97.7
=	0.0	-119.3	15.0	97.7
=	0.0	-118.7	15.0	97.7
=	0.0	-118.1	15.0	97.8
=	0.0	-117.6	15.0	97.8
=	0.0	-117.0	15.0	97.8
=	0.0	-116.3	15.0	97.9
=	0.0	-115.7	15.0	98.0
=	0.0	-115.0	15.0	98.1
=	0.0	-114.5	15.0	98.1
=	0.0	-113.9	15.0	98.1
=	0.0	-113.3	15.0	98.2
=	0.0	-112.8	15.0	98.3
=	0.0	-112.0	15.0	98.3
=	0.0	-111.3	15.0	98.4
=	0.0	-110.7	15.0	98.4
=	0.0	-110.0	15.0	98.4
=	0.0	-109.4	15.0	98.4
=	0.0	-108.7	15.0	98.5
=	0.0	-108.1	15.0	98.5
=	0.0	-107.6	15.0	98.5
=	0.0	-107.1	15.0	98.5
=	0.0	-106.5	15.0	98.5
=	0.0	-105.7	15.0	98.5
=	0.0	-105.0	15.0	98.6
=	0.0	-104.2	15.0	98.6
=	0.0	-103.6	15.0	98.7
=	0.0	-103.1	15.0	98.7
=	0.0	-102.3	15.0	98.8
=	0.0	-101.7	15.0	98.8
=	0.0	-101.2	15.0	98.9
=	0.0	-100.7	15.0	98.9
=	0.0	-100.0	15.0	98.9
=	0.0	-99.3	15.0	98.9
=	0.0	-98.6	15.0	98.9
=	0.0	-98.0	15.0	99.0
=	0.0	-97.5	15.0	99.0
=	0.0	-96.8	15.0	99.0
=	0.0	-96.2	15.0	99.1
=	0.0	-95.6	15.0	99.1
=	0.0	-95.0	15.0	99.2
=	0.0	-94.2	15.0	99.2
=	0.0	-93.6	15.0	99.2
=	0.0	-92.9	15.0	99.3
=	0.0	-92.3	15.0	99.3
=	0.0	-91.7	15.0	99.4
=	0.0	-91.1	15.0	99.4
=	0.0	-90.5	15.0	99.4
=	0.0	-89.8	15.0	99.4
=	0.0	-89.3	15.0	99.5
=	0.0	-88.7	15.0	99.5
=	0.0	-88.2	15.0	99.5
=	0.0	-87.6	15.0	99.6
=	0.0	-87.0	15.0	99.6
=	0.0	-86.3	15.0	99.7
=	0.0	-85.8	15.0	99.7
=	0.0	-85.2	15.0	99.7
=	0.0	-84.6	15.0	99.7
=	0.0	-84.1	15.0	99.8
=	0.0	-83.4	15.0	99.8
=	0.0	-82.8	15.0	99.8
=	0.0	-82.2	15.0	99.8
=	0.0	-81.6	15.0	99.9
=	0.0	-80.8	15.0	99.9
=	0.0	-80.2	15.0	99.9
=	0.0	-79.6	15.0	99.9
=	0.0	-79.0	15.0	99.9
=	0.0	-78.4	15.0	100.0
=	0.0	-77.9	15.0	100.0
=	0.0	-77.4	15.0	100.0
=	0.0	-76.9	15.0	100.0
=	0.0	-76.1	15.0	100.1
=	0.0	-75.5	15.0	100.1
=	0.0	-74.9	15.0	100.1
=	0.0	-74.2	15.0	100.2
=	0.0	-73.7	15.0	100.2
=	0.0	-73.1	15.0	100.2
=	0.0	-72.6	15.0	100.2
=	0.0	-72.0	15.0	100.2
=	0.0	-71.6	15.0	100.2
=	0.0	-70.9	15.0	100.3
=	0.0	-70.3	15.0	100.3
=	0.0	-69.6	15.0	100.3
=	0.0	-69.1	15.0	100.3
=	0.0	-68.5	15.0	100.3
=	0.0	-67.9	15.0	100.3
=	0.0	-67.4	15.0	100.4
=	0.0	-66.9	15.0	100.4
=	0.0	-66.4	15.0	100.4
=	0.0	-65.8	15.0	100.5
=	0.0	-65.2	15.0	100.5
=	0.0	-64.7	15.0	100.5
=	0.0	-64.1	15.0	100.5
=	0.0	-63.6	15.0	100.5
=	0.0	-63.1	15.0	100.6
=	0.0	-62.4	15.0	100.5
=	0.0	-61.8	15.0	100.6
=	0.0	-61.1	15.0	100.6
=	0.0	-60.3	15.0	100.6
=	0.0	-59.8	15.0	100.5
=	0.0	-59.3	15.0	100.5
=	0.0	-58.9	15.0	100.5
=	0.0	-58.2	15.0	100.5
=	0.0	-57.6	15.0	100.5
=	0.0	-57.0	15.0	100.5
=	0.0	-56.4	15.0	100.5
=	0.0	-55.7	15.0	100.5
=	0.0	-55.0	15.0	100.6
=	0.0	-54.4	15.0	100.6
=	0.0	-53.8	15.0	100.6
=	0.0	-53.1	15.0	100.7
=	0.0	-52.6	15.0	100.7
=	0.0	-52.0	15.0	100.7
=	0.0	-51.4	15.0	100.7
=	0.0	-50.8	15.0	100.7
=	0.0	-50.2	15.0	100.7
=	0.0	-49.6	15.0	100.7
=	0.0	-48.9	15.0	100.7
=	0.0	-48.2	15.0	100.7
=	0.0	-47.5	15.0	100.6
=	0.0	-46.9	15.0	100.6
=	0.0	-46.2	15.0	100.7
=	0.0	-45.6	15.0	100.7
=	0.0	-44.9	15.0	100.7
=	0.0	-44.3	15.0	100.7
=	0.0	-43.8	15.0	100.6
=	0.0	-43.1	15.0	100.6
=	0.0	-42.4	15.0	100.6
=	0.0	-41.7	15.0	100.6
=	0.0	-41.1	15.0	100.5
=	0.0	-40.5	15.0	100.5
=	0.0	-39.9	15.0	100.5
=	0.0	-39.3	15.0	100.4
=	0.0	-38.7	15.0	100.5
=	0.0	-38.1	15.0	100.4
=	0.0	-37.5	15.0	100.4
=	0.0	-36.7	15.0	100.4
=	0.0	-36.1	15.0	100.4
=	0.0	-35.4	15.0	100.4
=	0.0	-34.8	15.0	100.4
=	0.0	-34.2	15.0	100.4
=	0.0	-33.6	15.0	100.4
=	0.0	-33.0	15.0	100.4
=	0.0	-32.4	15.0	100.4
=	0.0	-31.9	15.0	100.4
=	0.0	-31.2	15.0	100.4
=	0.0	-30.7	15.0	100.5
=	0.0	-30.2	15.0	100.4
=	0.0	-29.6	15.0	100.5
=	0.0	-28.9	15.0	100.5
=	0.0	-28.3	15.0	100.5
=	0.0	-27.6	15.0	100.5
=	0.0	-27.0	15.0	100.5
=	0.0	-26.4	15.0	100.5
=	0.0	-25.9	15.0	100.5
=	0.0	-25.4	15.0	100.5
=	0.0	-24.9	15.0	100.5
=	0.0	-24.3	15.0	100.5
=	0.0	-23.8	15.0	100.5
=	0.0	-23.2	15.0	100.5
=	0.0	-22.7	15.0	100.5
=	0.0	-22.2	15.0	100.5
=	0.0	-21.6	15.0	100.5
=	0.0	-20.9	15.0	100.5
=	0.0	-20.4	15.0	100.5
=	0.0	-19.8	15.0	100.5
=	0.0	-19.3	15.0	100.5
=	0.0	-18.7	15.0	100.5
=	0.0	-18.2	15.0	100.5
=	0.0	-17.7	15.0	100.4
=	0.0	-17.1	15.0	100.4
=	0.0	-16.5	15.0	100.4
=	0.0	-15.9	15.0	100.3
=	0.0	-15.3	15.0	100.3
=	0.0	-14.7	15.0	100.3
=	0.0	-14.2	15.0	100.3
=	0.0	-13.7	15.0	100.3
=	0.0	-13.2	15.0	100.3
=	0.0	-12.7	15.0	100.3
=	0.0	-12.2	15.0	100.2
=	0.0	-11.6	15.0	100.2
=	0.0	-11.0	15.0	100.2
=	0.0	-10.4	15.0	100.2
=	0.0	-9.7	15.0	100.1
=	0.0	-9.2	15.0	100.1
=	0.0	-8.7	15.0	100.1
=	0.0	-8.1	15.0	100.1
=	0.0	-7.6	15.0	100.1
=	0.0	-7.1	15.0	100.1
=	0.0	-6.4	15.0	100.1
=	0.0	-5.8	15.0	100.0
=	0.0	-5.2	15.0	100.0
=	0.0	-4.7	15.0	100.0
=	0.0	-4.2	15.0	100.0
=	0.0	-3.6	15.0	100.0
=	0.0	-3.0	15.0	100.0
=	0.0	-2.4	15.0	99.9
=	0.0	-1.8	15.0	99.9
=	0.0	-1.3	15.0	99.9
=	0.0	-0.7	15.0	100.0
=	0.0	0.0	15.0	100.0
=	0.0	0.7	15.0	100.0
=	0.0	1.3	15.0	99.9
=	0.0	1.8	15.0	99.9
=	0.0	2.4	15.0	99.9
=	0.0	3.0	15.0	100.0
=	0.0	3.6	15.0	100.0
=	0.0	4.2	15.0	100.0
=	0.0	4.7	15.0	100.0
=	0.0	5.2	15.0	100.0
=	0.0	5.8	15.0	100.0
=	0.0	6.4	15.0	100.1
=	0.0	7.1	15.0	100.1
=	0.0	7.6	15.0	100.1
=	0.0	8.1	15.0	100.1
=	0.0	8.7	15.0	100.1
=	0.0	9.2	15.0	100.1
=	0.0	9.7	15.0	100.1
=	0.0	10.4	15.0	100.2
=	0.0	11.0	15.0	100.2
=	0.0	11.6	15.0	100.2
=	0.0	12.2	15.0	100.2
=	0.0	12.7	15.0	100.3
=	0.0	13.2	15.0	100.3
=	0.0	13.7	15.0	100.3
=	0.0	14.2	15.0	100.3
=	0.0	14.7	15.0	100.3
=	0.0	15.3	15.0	100.3
=	0.0	15.9	15.0	100.3
=	0.0	16.5	15.0	100.4
=	0.0	17.1	15.0	100.4
=	0.0	17.7	15.0	100.4
=	0.0	18.2	15.0	100.5
=	0.0	18.7	15.0	100.5
=	0.0	19.3	15.0	100.5
=	0.0	19.8	15.0	100.5
=	0.0	20.4	15.0	100.5
=	0.0	20.9	15.0	100.5
=	0.0	21.6	15.0	100.5
=	0.0	22.2	15.0	100.5
=	0.0	22.7	15.0	100.5
=	0.0	23.2	15.0	100.5
=	0.0	23.8	15.0	100.5
=	0.0	24.3	15.0	100.5
=	0.0	24.9	15.0	100.5
=	0.0	25.4	15.0	100.5
=	0.0	25.9	15.0	100.5
=	0.0	26.4	15.0	100.5
=	0.0	27.0	15.0	100.5
=	0.0	27.6	15.0	100.5
=	0.0	28.3	15.0	100.5
=	0.0	28.9	15.0	100.5
=	0.0	29.6	15.0	100.5
=	0.0	30.2	15.0	100.4
=	0.0	30.7	15.0	100.5
=	0.0	31.2	15.0	100.4
=	0.0	31.9	15.0	100.4
=	0.0	32.4	15.0	100.4
=	0.0	33.0	15.0	100.4
=	0.0	33.6	15.0	100.4
=	0.0	34.2	15.0	100.4
=	0.0	34.8	15.0	100.4
=	0.0	35.4	15.0	100.4
=	0.0	36.1	15.0	100.4
=	0.0	36.7	15.0	100.4
=	0.0	37.5	15.0	100.4
=	0.0	38.1	15.0	100.4
=	0.0	38.7	15.0	100.5
=	0.0	39.3	15.0	100.4
=	0.0	39.9	15.0	100.5
=	0.0	40.5	15.0	100.5
=	0.0	41.1	15.0	100.5
=	0.0	41.7	15.0	100.6
=	0.0	42.4	15.0	100.6
=	0.0	43.1	15.0	100.6
=	0.0	43.8	15.0	100.6
=	0.0	44.3	15.0	100.7
=	0.0	44.9	15.0	100.7
=	0.0	45.6	15.0	100.7
=	0.0	46.2	15.0	100.7
=	0.0	46.9	15.0	100.6
=	0.0	47.5	15.0	100.6
=	0.0	48.2	15.0	100.7
=	0.0	48.9	15.0	100.7
=	0.0	49.6	15.0	100.7
=	0.0	50.2	15.0	100.7
=	0.0	50.8	15.0	100.7
=	0.0	51.4	15.0	100.7
=	0.0	52.0	15.0	100.7
=	0.0	52.6	15.0	100.7
=	0.0	53.1	15.0	100.7
=	0.0	53.8	15.0	100.6
=	0.0	54.4	15.0	100.6
=	0.0	55.0	15.0	100.6
=	0.0	55.7	15.0	100.5
=	0.0	56.4	15.0	100.5
=	0.0	57.0	15.0	100.5
=	0.0	57.6	15.0	100.5
=	0.0	58.2	15.0	100.5
=	0.0	58.9	15.0	100.5
=	0.0	59.3	15.0	100.5
=	0.0	59.8	15.0	100.5
=	0.0	60.3	15.0	100.6
=	0.0	61.1	15.0	100.6
=	0.0	61.8	15.0	100.6
=	0.0	62.4	15.0	100.5
=	0.0	63.1	15.0	100.6
=	0.0	63.6	15.0	100.5
=	0.0	64.1	15.0	100.5
=	0.0	64.7	15.0	100.5
=	0.0	65.2	15.0	100.5
=	0.0	65.8	15.0	100.5
=	0.0	66.4	15.0	100.4
=	0.0	66.9	15.0	100.4
=	0.0	67.4	15.0	100.4
=	0.0	67.9	15.0	100.3
=	0.0	68.5	15.0	100.3
=	0.0	69.1	15.0	100.3
=	0.0	69.6	15.0	100.3
=	0.0	70.3	15.0	100.3
=	0.0	70.9	15.0	100.3
=	0.0	71.6	15.0	100.2
=	0.0	72.0	15.0	100.2
=	0.0	72.6	15.0	100.2
=	0.0	73.1	15.0	100.2
=	0.0	73.7	15.0	100.2
=	0.0	74.2	15.0	100.2
=	0.0	74.9	15.0	100.1
=	0.0	75.5	15.0	100.1
=	0.0	76.1	15.0	100.1
=	0.0	76.9	15.0	100.0
=	0.0	77.4	15.0	100.0
=	0.0	77.9	15.0	100.0
=	0.0	78.4	15.0	100.0
=	0.0	79.0	15.0	99.9
=	0.0	79.6	15.0	99.9
=	0.0	80.2	15.0	99.9
=	0.0	80.8	15.0	99.9
=	0.0	81.6	15.0	99.9
=	0.0	82.2	15.0	99.8
=	0.0	82.8	15.0	99.8
=	0.0	83.4	15.0	99.8
=	0.0	84.1	15.0	99.8
=	0.0	84.6	15.0	99.7
=	0.0	85.2	15.0	99.7
=	0.0	85.8	15.0	99.7
=	0.0	86.3	15.0	99.7
=	0.0	87.0	15.0	99.6
=	0.0	87.6	15.0	99.6
=	0.0	88.2	15.0	99.5
=	0.0	88.7	15.0	99.5
=	0.0	89.3	15.0	99.5
=	0.0	89.8	15.0	99.4
=	0.0	90.5	15.0	99.4
=	0.0	91.1	15.0	99.4
=	0.0	91.7	15.0	99.4
=	0.0	92.3	15.0	99.3
=	0.0	92.9	15.0	99.3
=	0.0	93.6	15.0	99.2
=	0.0	94.2	15.0	99.2
=	0.0	95.0	15.0	99.2
=	0.0	95.6	15.0	99.1
=	0.0	96.2	15.0	99.1
=	0.0	96.8	15.0	99.0
=	0.0	97.5	15.0	99.0
=	0.0	98.0	15.0	99.0
=	0.0	98.6	15.0	98.9
=	0.0	99.3	15.0	98.9
=	0.0	100.0	15.0	98.9
=	0.0	100.7	15.0	98.9
=	0.0	101.2	15.0	98.9
=	0.0	101.7	15.0	98.8
=	0.0	102.3	15.0	98.8
=	0.0	103.1	15.0	98.7
=	0.0	103.6	15.0	98.7
=	0.0	104.2	15.0	98.6
=	0.0	105.0	15.0	98.6
=	0.0	105.7	15.0	98.5
=	0.0	106.5	15.0	98.5
=	0.0	107.1	15.0	98.5
=	0.0	107.6	15.0	98.5
=	0.0	108.1	15.0	98.5
=	0.0	108.7	15.0	98.5
=	0.0	109.4	15.0	98.4
=	0.0	110.0	15.0	98.4
=	0.0	110.7	15.0	98.4
=	0.0	111.3	15.0	98.4
=	0.0	112.0	15.0	98.3
=	0.0	112.8	15.0	98.3
=	0.0	113.3	15.0	98.2
=	0.0	113.9	15.0	98.1
=	0.0	114.5	15.0	98.1
=	0.0	115.0	15.0	98.1
=	0.0	115.7	15.0	98.0
=	0.0	116.3	15.0	97.9
=	0.0	117.0	15.0	97.8
=	0.0	117.6	15.0	97.8
=	0.0	118.1	15.0	97.8
=	0.0	118.7	15.0	97.7
=	0.0	119.3	15.0	97.7
=	0.0	119.9	15.0	97.7
=	0.0	120.4	15.0	97.7
=	0.0	121.0	15.0	97.6
=	0.0	121.6	15.0	97.6
=	0.0	122.2	15.0	97.6
=	0.0	122.7	15.0	97.6
=	0.0	123.3	15.0	97.5
=	0.0	123.8	15.0	97.5
=	0.0	124.4	15.0	97.4
=	0.0	125.0	15.0	97.4
=	0.0	125.6	15.0	97.3
=	0.0	126.2	15.0	97.3
=	0.0	126.7	15.0	97.3
=	0.0	127.3	15.0	97.2
=	0.0	127.9	15.0	97.2
=	0.0	128.4	15.0	97.2
=	0.0	129.0	15.0	97.1
=	0.0	129.8	15.0	97.1
=	0.0	130.4	15.0	97.0
=	0.0	130.9	15.0	97.0
=	0.0	131.7	15.0	96.9
=	0.0	132.3	15.0	96.9
=	0.0	132.9	15.0	96.8
=	0.0	133.7	15.0	96.8
=	0.0	134.5	15.0	96.7
=	0.0	135.0	15.0	96.7
=	0.0	135.6	15.0	96.7
=	0.0	136.2	15.0	96.6
=	0.0	137.0	15.0	96.5
=	0.0	137.6	15.0	96.5
=	0.0	138.1	15.0	96.4
=	0.0	138.7	15.0	96.4
=	0.0	139.4	15.0	96.4
=	0.0	140.0	15.0	96.3
=	0.0	140.8	15.0	96.3
=	0.0	141.4	15.0	96.3
=	0.0	142.0	15.0	96.2
=	0.0	142.6	15.0	96.2
=	0.0	143.2	15.0	96.1
=	0.0	143.9	15.0	96.0
=	0.0	144.6	15.0	96.0
=	0.0	145.2	15.0	95.9
=	0.0	145.9	15.0	95.9
=	0.0	146.5	15.0	95.8
=	0.0	147.2	15.0	95.8
=	0.0	147.8	15.0	95.7
=	0.0	148.3	15.0	95.7
=	0.0	148.8	15.0	95.7
=	0.0	149.4	15.0	95.7
=	0.0	149.9	15.0	95.6
=	0.0	150.6	15.0	95.5
=	0.0	151.2	15.0	95.5
=	0.0	151.7	15.0	95.5
=	0.0	152.3	15.0	95.4
=	0.0	152.9	15.0	95.4
=	0.0	153.5	15.0	95.4
=	0.0	154.1	15.0	95.3
=	0.0	154.8	15.0	95.3
=	0.0	155.6	15.0	95.2
=	0.0	156.4	15.0	95.1
=	0.0	157.0	15.0	95.0
=	0.0	157.5	15.0	94.9
=	0.0	158.0	15.0	94.8
=	0.0	158.6	15.0	94.8
=	0.0	159.4	15.0	94.7
=	0.0	160.1	15.0	94.7
=	0.0	160.8	15.0	94.7
=	0.0	161.4	15.0	94.6
=	0.0	162.1	15.0	94.5
=	0.0	162.7	15.0	94.5
=	0.0	163.4	15.0	94.4
=	0.0	164.1	15.0	94.4
=	0.0	164.7	15.0	94.3
=	0.0	165.4	15.0	94.3
=	0.0	165.9	15.0	94.3
=	0.0	166.5	15.0	94.2
=	0.0	167.2	15.0	94.2
=	0.0	167.8	15.0	94.1
=	0.0	168.3	15.0	94.0
=	0.0	169.0	15.0	93.9
=	0.0	169.5	15.0	93.9
=	0.0	170.0	15.0	93.9
=	0.0	170.7	15.0	93.8
=	0.0	171.2	15.0	93.7
=	0.0	172.0	15.0	93.6
=	0.0	172.7	15.0	93.6
=	0.0	173.3	15.0	93.5
=	0.0	173.9	15.0	93.4
=	0.0	174.5	15.0	93.3
=	0.0	175.2	15.0	93.3
=	0.0	175.8	15.0	93.2
=	0.0	176.4	15.0	93.2
=	0.0	176.9	15.0	93.1
=	0.0	177.4	15.0	93.1
=	0.0	178.0	15.0	93.0
=	0.0	178.6	15.0	92.9
=	0.0	179.1	15.0	92.7
=	0.0	179.7	15.0	92.7
=	0.0	180.2	15.0	92.6
=	0.0	180.9	15.0	92.6
=	0.0	181.5	15.0	92.5
=	0.0	182.1	15.0	92.5
=	0.0	182.7	15.0	92.4
=	0.0	183.4	15.0	92.2
=	0.0	184.1	15.0	92.1
=	0.0	184.6	15.0	92.0
=	0.0	185.4	15.0	91.9
=	0.0	186.0	15.0	91.8
=	0.0	186.6	15.0	91.8
=	0.0	187.1	15.0	91.6
=	0.0	187.8	15.0	91.5
=	0.0	188.4	15.0	91.4
=	0.0	189.0	15.0	91.3
=	0.0	189.6	15.0	91.2
=	0.0	190.2	15.0	91.0
=	0.0	190.7	15.0	90.9
=	0.0	191.5	15.0	90.7
=	0.0	192.1	15.0	90.5
=	0.0	192.6	15.0	90.3
=	0.0	193.1	15.0	90.2
=	0.0	193.7	15.0	89.9
=	0.0	194.5	15.0	89.4
=	0.0	195.3	15.0	88.6
=	0.0	196.1	15.0	87.8
=	0.0	196.7	15.0	86.9
=	0.0	197.3	15.0	85.6
=	0.0	197.9	15.0	84.3
=	0.0	198.5	15.0	81.9
=	0.0	199.1	15.0	79.3
=	0.0	199.7	15.0	76.2
=	0.0	200.4	15.0	71.1
=	0.0	201.2	15.0	64.9
=	0.0	201.9	15.0	58.8
=	0.0	202.5	15.0	53.7
=	0.0	203.1	15.0	48.3
=	0.0	203.8	15.0	42.5
=	0.0	204.4	15.0	37.8
=	0.0	205.1	15.0	32.6
=	0.0	205.7	15.0	28.4
=	0.0	206.2	15.0	24.9
=	0.0	206.8	15.0	21.8
=	0.0	207.5	15.0	18.9
=	0.0	208.2	15.0	16.4
=	0.0	208.7	15.0	15.1
=	0.0	209.4	15.0	13.9
=	0.0	209.9	15.0	13.1
=	0.0	210.5	15.0	12.4
=	0.0	211.2	15.0	11.9
=	0.0	211.8	15.0	11.5
=	0.0	212.3	15.0	11.3
=	0.0	212.9	15.0	11.0
=	0.0	213.5	15.0	10.8
=	0.0	214.2	15.0	10.6
=	0.0	214.9	15.0	10.4
=	0.0	215.4	15.0	10.2
=	0.0	216.2	15.0	10.1
=	0.0	216.8	15.0	10.0
=	0.0	217.6	15.0	9.8
=	0.0	218.2	15.0	9.7
=	0.0	218.8	15.0	9.7
=	0.0	219.4	15.0	9.5
=	0.0	220.0	15.0	9.5
=	0.0	220.6	15.0	9.4
=	0.0	221.2	15.0	9.3
=	0.0	221.8	15.0	9.2
=	0.0	222.3	15.0	9.2
=	0.0	223.0	15.0	9.0
=	0.0	223.7	15.0	8.9
=	0.0	224.3	15.0	8.9
=	0.0	224.9	15.0	8.8
=	0.0	225.5	15.0	8.8
=	0.0	226.0	15.0	8.7
=	0.0	226.5	15.0	8.6
=	0.0	227.1	15.0	8.6
=	0.0	227.6	15.0	8.5
=	0.0	228.4	15.0	8.4
=	0.0	229.0	15.0	8.3
=	0.0	229.8	15.0	8.3
=	0.0	230.3	15.0	8.2
=	0.0	230.9	15.0	8.2
=	0.0	231.5	15.0	8.1
=	0.0	232.2	15.0	8.1
=	0.0	232.8	15.0	8.0
=	0.0	233.5	15.0	8.0
=	0.0	234.2	15.0	8.0
=	0.0	234.9	15.0	7.9
=	0.0	235.6	15.0	7.9
=	0.0	236.3	15.0	7.9
=	0.0	236.9	15.0	7.9
=	0.0	237.6	15.0	7.8
=	0.0	238.1	15.0	7.8
=	0.0	238.7	15.0	7.8
=	0.0	239.3	15.0	7.7
=	0.0	239.9	15.0	7.7
=	0.0	240.4	15.0	7.7
=	0.0	241.0	15.0	7.7
=	0.0	241.6	15.0	7.7
=	0.0	242.2	15.0	7.6
=	0.0	242.8	15.0	7.6
=	0.0	243.3	15.0	7.6
=	0.0	244.1	15.0	7.5
=	0.0	244.8	15.0	7.5
=	0.0	245.3	15.0	7.5
=	0.0	245.9	15.0	7.5
=	0.0	246.6	15.0	7.5
=	0.0	247.1	15.0	7.5
=	0.0	247.8	15.0	7.4
=	0.0	248.4	15.0	7.4
=	0.0	249.0	15.0	7.4
=	0.0	249.5	15.0	7.4
=	0.0	250.1	15.0	7.3
=	0.0	250.7	15.0	7.3
=	0.0	251.4	15.0	7.2
=	0.0	252.1	15.0	7.2
=	0.0	252.7	15.0	7.2
:EOM # End of Measurement
#
# RFA300 ASCII Measurement Dump ( BDS format )
#
# Measurement number 	2
#
%VNR 1.0
%MOD 	RAT
%TYP 	SCN
%SCN 	PRO
%FLD 	ION
%DAT 	10-14-2011
%TIM 	12:00:00
%FSZ 	400	150
%BMT 	PHO	   6.0
%SSD 	1000
%BUP 	0
%BRD 	1000
%FSH 	1
%ASC 	0
%WEG 	60
%GPO 	0
%CPO 	0
%MEA 	6
%PRD 	15,0
%PTS 	829
%STS 	    0.0	  -252.7	   15.0 # Start Scan values in mm ( X , Y , Z )
%EDS 	    0.0	   252.7	   15.0 # End Scan values in mm ( X , Y , Z )
#
#	  X      Y      Z     Dose
#
=	0.0	-252.7	15.0	7.2
=	0.0	-252.1	15.0	7.2
=	0.0	-251.4	15.0	7.2
=	0.0	-250.7	15.0	7.3
=	0.0	-250.1	15.0	7.3
=	0.0	-249.5	15.0	7.4
=	0.0	-249.0	15.0	7.4
=	0.0	-248.4	15.0	7.4
=	0.0	-247.8	15.0	7.4
=	0.0	-247.1	15.0	7.5
=	0.0	-246.6	15.0	7.5
=	0.0	-245.9	15.0	7.5
=	0.0	-245.3	15.0	7.5
=	0.0	-244.8	15.0	7.5
=	0.0	-244.1	15.0	7.5
=	0.0	-243.3	15.0	7.6
=	0.0	-242.8	15.0	7.6
=	0.0	-242.2	15.0	7.6
=	0.0	-241.6	15.0	7.7
=	0.0	-241.0	15.0	7.7
=	0.0	-240.4	15.0	7.7
=	0.0	-239.9	15.0	7.7
=	0.0	-239.3	15.0	7.7
=	0.0	-238.7	15.0	7.8
=	0.0	-238.1	15.0	7.8
=	0.0	-237.6	15.0	7.8
=	0.0	-236.9	15.0	7.9
=	0.0	-236.3	15.0	7.9
=	0.0	-235.6	15.0	7.9
=	0.0	-234.9	15.0	7.9
=	0.0	-234.2	15.0	8.0
=	0.0	-233.5	15.0	8.0
=	0.0	-232.8	15.0	8.0
=	0.0	-232.2	15.0	8.1
=	0.0	-231.5	15.0	8.1
=	0.0	-230.9	15.0	8.2
=	0.0	-230.3	15.0	8.2
=	0.0	-229.8	15.0	8.3
=	0.0	-229.0	15.0	8.3
=	0.0	-228.4	15.0	8.4
=	0.0	-227.6	15.0	8.5
=	0.0	-227.1	15.0	8.6
=	0.0	-226.5	15.0	8.6
=	0.0	-226.0	15.0	8.7
=	0.0	-225.5	15.0	8.8
=	0.0	-224.9	15.0	8.8
=	0.0	-224.3	15.0	8.9
=	0.0	-223.7	15.0	8.9
=	0.0	-223.0	15.0	9.0
=	0.0	-222.3	15.0	9.2
=	0.0	-221.8	15.0	9.2
=	0.0	-221.2	15.0	9.3
=	0.0	-220.6	15.0	9.4
=	0.0	-220.0	15.0	9.5
=	0.0	-219.4	15.0	9.5
=	0.0	-218.8	15.0	9.7
=	0.0	-218.2	15.0	9.7
=	0.0	-217.6	15.0	9.8
=	0.0	-216.8	15.0	10.0
=	0.0	-216.2	15.0	10.1
=	0.0	-215.4	15.0	10.2
=	0.0	-214.9	15.0	10.4
=	0.0	-214.2	15.0	10.6
=	0.0	-213.5	15.0	10.8
=	0.0	-212.9	15.0	11.0
=	0.0	-212.3	15.0	11.3
=	0.0	-211.8	15.0	11.5
=	0.0	-211.2	15.0	11.9
=	0.0	-210.5	15.0	12.4
=	0.0	-209.9	15.0	13.1
=	0.0	-209.4	15.0	13.9
=	0.0	-208.7	15.0	15.1
=	0.0	-208.2	15.0	16.4
=	0.0	-207.5	15.0	18.9
=	0.0	-206.8	15.0	21.8
=	0.0	-206.2	15.0	24.9
=	0.0	-205.7	15.0	28.4
=	0.0	-205.1	15.0	32.6
=	0.0	-204.4	15.0	37.8
=	0.0	-203.8	15.0	42.5
=	0.0	-203.1	15.0	48.3
=	0.0	-202.5	15.0	53.7
=	0.0	-201.9	15.0	58.8
=	0.0	-201.2	15.0	64.9
=	0.0	-200.4	15.0	71.1
=	0.0	-199.7	15.0	76.2
=	0.0	-199.1	15.0	79.3
=	0.0	-198.5	15.0	81.9
=	0.0	-197.9	15.0	84.3
=	0.0	-197.3	15.0	85.6
=	0.0	-196.7	15.0	86.9
=	0.0	-196.1	15.0	87.8
=	0.0	-195.3	15.0	88.6
=	0.0	-194.5	15.0	89.4
=	0.0	-193.7	15.0	89.9
=	0.0	-193.1	15.0	90.2
=	0.0	-192.6	15.0	90.3
=	0.0	-192.1	15.0	90.5
=	0.0	-191.5	15.0	90.7
=	0.0	-190.7	15.0	90.9
=	0.0	-190.2	15.0	91.0
=	0.0	-189.6	15.0	91.2
=	0.0	-189.0	15.0	91.3
=	0.0	-188.4	15.0	91.4
=	0.0	-187.8	15.0	91.5
=	0.0	-187.1	15.0	91.6
=	0.0	-186.6	15.0	91.8
=	0.0	-186.0	15.0	91.8
=	0.0	-185.4	15.0	91.9
=	0.0	-184.6	15.0	92.0
=	0.0	-184.1	15.0	92.1
=	0.0	-183.4	15.0	92.2
=	0.0	-182.7	15.0	92.4
=	0.0	-182.1	15.0	92.5
=	0.0	-181.5	15.0	92.5
=	0.0	-180.9	15.0	92.6
=	0.0	-180.2	15.0	92.6
=	0.0	-179.7	15.0	92.7
=	0.0	-179.1	15.0	92.7
=	0.0	-178.6	15.0	92.9
=	0.0	-178.0	15.0	93.0
=	0.0	-177.4	15.0	93.1
=	0.0	-176.9	15.0	93.1
=	0.0	-176.4	15.0	93.2
=	0.0	-175.8	15.0	93.2
=	0.0	-175.2	15.0	93.3
=	0.0	-174.5	15.0	93.3
=	0.0	-173.9	15.0	93.4
=	0.0	-173.3	15.0	93.5
=	0.0	-172.7	15.0	93.6
=	0.0	-172.0	15.0	93.6
=	0.0	-171.2	15.0	93.7
=	0.0	-170.7	15.0	93.8
=	0.0	-170.0	15.0	93.9
=	0.0	-169.5	15.0	93.9
=	0.0	-169.0	15.0	93.9
=	0.0	-168.3	15.0	94.0
=	0.0	-167.8	15.0	94.1
=	0.0	-167.2	15.0	94.2
=	0.0	-166.5	15.0	94.2
=	0.0	-165.9	15.0	94.3
=	0.0	-165.4	15.0	94.3
=	0.0	-164.7	15.0	94.3
=	0.0	-164.1	15.0	94.4
=	0.0	-163.4	15.0	94.4
=	0.0	-162.7	15.0	94.5
=	0.0	-162.1	15.0	94.5
=	0.0	-161.4	15.0	94.6
=	0.0	-160.8	15.0	94.7
=	0.0	-160.1	15.0	94.7
=	0.0	-159.4	15.0	94.7
=	0.0	-158.6	15.0	94.8
=	0.0	-158.0	15.0	94.8
=	0.0	-157.5	15.0	94.9
=	0.0	-157.0	15.0	95.0
=	0.0	-156.4	15.0	95.1
=	0.0	-155.6	15.0	95.2
=	0.0	-154.8	15.0	95.3
=	0.0	-154.1	15.0	95.3
=	0.0	-153.5	15.0	95.4
=	0.0	-152.9	15.0	95.4
=	0.0	-152.3	15.0	95.4
=	0.0	-151.7	15.0	95.5
=	0.0	-151.2	15.0	95.5
=	0.0	-150.6	15.0	95.5
=	0.0	-149.9	15.0	95.6
=	0.0	-149.4	15.0	95.7
=	0.0	-148.8	15.0	95.7
=	0.0	-148.3	15.0	95.7
=	0.0	-147.8	15.0	95.7
=	0.0	-147.2	15.0	95.8
=	0.0	-146.5	15.0	95.8
=	0.0	-145.9	15.0	95.9
=	0.0	-145.2	15.0	95.9
=	0.0	-144.6	15.0	96.0
=	0.0	-143.9	15.0	96.0
=	0.0	-143.2	15.0	96.1
=	0.0	-142.6	15.0	96.2
=	0.0	-142.0	15.0	96.2
=	0.0	-141.4	15.0	96.3
=	0.0	-140.8	15.0	96.3
=	0.0	-140.0	15.0	96.3
=	0.0	-139.4	15.0	96.4
=	0.0	-138.7	15.0	96.4
=	0.0	-138.1	15.0	96.4
=	0.0	-137.6	15.0	96.5
=	0.0	-137.0	15.0	96.5
=	0.0	-136.2	15.0	96.6
=	0.0	-135.6	15.0	96.7
=	0.0	-135.0	15.0	96.7
=	0.0	-134.5	15.0	96.7
=	0.0	-133.7	15.0	96.8
=	0.0	-132.9	15.0	96.8
=	0.0	-132.3	15.0	96.9
=	0.0	-131.7	15.0	96.9
=	0.0	-130.9	15.0	97.0
=	0.0	-130.4	15.0	97.0
=	0.0	-129.8	15.0	97.1
=	0.0	-129.0	15.0	97.1
=	0.0	-128.4	15.0	97.2
=	0.0	-127.9	15.0	97.2
=	0.0	-127.3	15.0	97.2
=	0.0	-126.7	15.0	97.3
=	0.0	-126.2	15.0	97.3
=	0.0	-125.6	15.0	97.3
=	0.0	-125.0	15.0	97.4
=	0.0	-124.4	15.0	97.4
=	0.0	-123.8	15.0	97.5
=	0.0	-123.3	15.0	97.5
=	0.0	-122.7	15.0	97.6
=	0.0	-122.2	15.0	97.6
=	0.0	-121.6	15.0	97.6
=	0.0	-121.0	15.0	97.6
=	0.0	-120.4	15.0	97.7
=	0.0	-119.9	15.0	97.7
=	0.0	-119.3	15.0	97.7
=	0.0	-118.7	15.0	97.7
=	0.0	-118.1	15.0	97.8
=	0.0	-117.6	15.0	97.8
=	0.0	-117.0	15.0	97.8
=	0.0	-116.3	15.0	97.9
=	0.0	-115.7	15.0	98.0
=	0.0	-115.0	15.0	98.1
=	0.0	-114.5	15.0	98.1
=	0.0	-113.9	15.0	98.1
=	0.0	-113.3	15.0	98.2
=	0.0	-112.8	15.0	98.3
=	0.0	-112.0	15.0	98.3
=	0.0	-111.3	15.0	98.4
=	0.0	-110.7	15.0	98.4
=	0.0	-110.0	15.0	98.4
=	0.0	-109.4	15.0	98.4
=	0.0	-108.7	15.0	98.5
=	0.0	-108.1	15.0	98.5
=	0.0	-107.6	15.0	98.5
=	0.0	-107.1	15.0	98.5
=	0.0	-106.5	15.0	98.5
=	0.0	-105.7	15.0	98.5
=	0.0	-105.0	15.0	98.6
=	0.0	-104.2	15.0	98.6
=	0.0	-103.6	15.0	98.7
=	0.0	-103.1	15.0	98.7
=	0.0	-102.3	15.0	98.8
=	0.0	-101.7	15.0	98.8
=	0.0	-101.2	15.0	98.9
=	0.0	-100.7	15.0	98.9
=	0.0	-100.0	15.0	98.9
=	0.0	-99.3	15.0	98.9
=	0.0	-98.6	15.0	98.9
=	0.0	-98.0	15.0	99.0
=	0.0	-97.5	15.0	99.0
=	0.0	-96.8	15.0	99.0
=	0.0	-96.2	15.0	99.1
=	0.0	-95.6	15.0	99.1
=	0.0	-95.0	15.0	99.2
=	0.0	-94.2	15.0	99.2
=	0.0	-93.6	15.0	99.2
=	0.0	-92.9	15.0	99.3
=	0.0	-92.3	15.0	99.3
=	0.0	-91.7	15.0	99.4
=	0.0	-91.1	15.0	99.4
=	0.0	-90.5	15.0	99.4
=	0.0	-89.8	15.0	99.4
=	0.0	-89.3	15.0	99.5
=	0.0	-88.7	15.0	99.5
=	0.0	-88.2	15.0	99.5
=	0.0	-87.6	15.0	99.6
=	0.0	-87.0	15.0	99.6
=	0.0	-86.3	15.0	99.7
=	0.0	-85.8	15.0	99.7
=	0.0	-85.2	15.0	99.7
=	0.0	-84.6	15.0	99.7
=	0.0	-84.1	15.0	99.8
=	0.0	-83.4	15.0	99.8
=	0.0	-82.8	15.0	99.8
=	0.0	-82.2	15.0	99.8
=	0.0	-81.6	15.0	99.9
=	0.0	-80.8	15.0	99.9
=	0.0	-80.2	15.0	99.9
=	0.0	-79.6	15.0	99.9
=	0.0	-79.0	15.0	99.9
=	0.0	-78.4	15.0	100.0
=	0.0	-77.9	15.0	100.0
=	0.0	-77.4	15.0	100.0
=	0.0	-76.9	15.0	100.0
=	0.0	-76.1	15.0	100.1
=	0.0	-75.5	15.0	100.1
=	0.0	-74.9	15.0	100.1
=	0.0	-74.2	15.0	100.2
=	0.0	-73.7	15.0	100.2
=	0.0	-73.1	15.0	100.2
=	0.0	-72.6	15.0	100.2
=	0.0	-72.0	15.0	100.2
=	0.0	-71.6	15.0	100.2
=	0.0	-70.9	15.0	100.3
=	0.0	-70.3	15.0	100.3
=	0.0	-69.6	15.0	100.3
=	0.0	-69.1	15.0	100.3
=	0.0	-68.5	15.0	100.3
=	0.0	-67.9	15.0	100.3
=	0.0	-67.4	15.0	100.4
=	0.0	-66.9	15.0	100.4
=	0.0	-66.4	15.0	100.4
=	0.0	-65.8	15.0	100.5
=	0.0	-65.2	15.0	100.5
=	0.0	-64.7	15.0	100.5
=	0.0	-64.1	15.0	100.5
=	0.0	-63.6	15.0	100.5
=	0.0	-63.1	15.0	100.6
=	0.0	-62.4	15.0	100.5
=	0.0	-61.8	15.0	100.6
=	0.0	-61.1	15.0	100.6
=	0.0	-60.3	15.0	100.6
=	0.0	-59.8	15.0	100.5
=	0.0	-59.3	15.0	100.5
=	0.0	-58.9	15.0	100.5
=	0.0	-58.2	15.0	100.5
=	0.0	-57.6	15.0	100.5
=	0.0	-57.0	15.0	100.5
=	0.0	-56.4	15.0	100.5
=	0.0	-55.7	15.0	100.5
=	0.0	-55.0	15.0	100.6
=	0.0	-54.4	15.0	100.6
=	0.0	-53.8	15.0	100.6
=	0.0	-53.1	15.0	100.7
=	0.0	-52.6	15.0	100.7
=	0.0	-52.0	15.0	100.7
=	0.0	-51.4	15.0	100.7
=	0.0	-50.8	15.0	100.7
=	0.0	-50.2	15.0	100.7
=	0.0	-49.6	15.0	100.7
=	0.0	-48.9	15.0	100.7
=	0.0	-48.2	15.0	100.7
=	0.0	-47.5	15.0	100.6
=	0.0	-46.9	15.0	100.6
=	0.0	-46.2	15.0	100.7
=	0.0	-45.6	15.0	100.7
=	0.0	-44.9	15.0	100.7
=	0.0	-44.3	15.0	100.7
=	0.0	-43.8	15.0	100.6
=	0.0	-43.1	15.0	100.6
=	0.0	-42.4	15.0	100.6
=	0.0	-41.7	15.0	100.6
=	0.0	-41.1	15.0	100.5
=	0.0	-40.5	15.0	100.5
=	0.0	-39.9	15.0	100.5
=	0.0	-39.3	15.0	100.4
=	0.0	-38.7	15.0	100.5
=	0.0	-38.1	15.0	100.4
=	0.0	-37.5	15.0	100.4
=	0.0	-36.7	15.0	100.4
=	0.0	-36.1	15.0	100.4
=	0.0	-35.4	15.0	100.4
=	0.0	-34.8	15.0	100.4
=	0.0	-34.2	15.0	100.4
=	0.0	-33.6	15.0	100.4
=	0.0	-33.0	15.0	100.4
=	0.0	-32.4	15.0	100.4
=	0.0	-31.9	15.0	100.4
=	0.0	-31.2	15.0	100.4
=	0.0	-30.7	15.0	100.5
=	0.0	-30.2	15.0	100.4
=	0.0	-29.6	15.0	100.5
=	0.0	-28.9	15.0	100.5
=	0.0	-28.3	15.0	100.5
=	0.0	-27.6	15.0	100.5
=	0.0	-27.0	15.0	100.5
=	0.0	-26.4	15.0	100.5
=	0.0	-25.9	15.0	100.5
=	0.0	-25.4	15.0	100.5
=	0.0	-24.9	15.0	100.5
=	0.0	-24.3	15.0	100.5
=	0.0	-23.8	15.0	100.5
=	0.0	-23.2	15.0	100.5
=	0.0	-22.7	15.0	100.5
=	0.0	-22.2	15.0	100.5
=	0.0	-21.6	15.0	100.5
=	0.0	-20.9	15.0	100.5
=	0.0	-20.4	15.0	100.5
=	0.0	-19.8	15.0	100.5
=	0.0	-19.3	15.0	100.5
=	0.0	-18.7	15.0	100.5
=	0.0	-18.2	15.0	100.5
=	0.0	-17.7	15.0	100.4
=	0.0	-17.1	15.0	100.4
=	0.0	-16.5	15.0	100.4
=	0.0	-15.9	15.0	100.3
=	0.0	-15.3	15.0	100.3
=	0.0	-14.7	15.0	100.3
=	0.0	-14.2	15.0	100.3
=	0.0	-13.7	15.0	100.3
=	0.0	-13.2	15.0	100.3
=	0.0	-12.7	15.0	100.3
=	0.0	-12.2	15.0	100.2
=	0.0	-11.6	15.0	100.2
=	0.0	-11.0	15.0	100.2
=	0.0	-10.4	15.0	100.2
=	0.0	-9.7	15.0	100.1
=	0.0	-9.2	15.0	100.1
=	0.0	-8.7	15.0	100.1
=	0.0	-8.1	15.0	100.1
=	0.0	-7.6	15.0	100.1
=	0.0	-7.1	15.0	100.1
=	0.0	-6.4	15.0	100.1
=	0.0	-5.8	15.0	100.0
=	0.0	-5.2	15.0	100.0
=	0.0	-4.7	15.0	100.0
=	0.0	-4.2	15.0	100.0
=	0.0	-3.6	15.0	100.0
=	0.0	-3.0	15.0	100.0
=	0.0	-2.4	15.0	99.9
=	0.0	-1.8	15.0	99.9
=	0.0	-1.3	15.0	99.9
=	0.0	-0.7	15.0	100.0
=	0.0	0.0	15.0	100.0
=	0.0	0.7	15.0	100.0
=	0.0	1.3	15.0	99.9
=	0.0	1.8	15.0	99.9
=	0.0	2.4	15.0	99.9
=	0.0	3.0	15.0	100.0
=	0.0	3.6	15.0	100.0
=	0.0	4.2	15.0	100.0
=	0.0	4.7	15.0	100.0
=	0.0	5.2	15.0	100.0
=	0.0	5.8	15.0	100.0
=	0.0	6.4	15.0	100.1
=	0.0	7.1	15.0	100.1
=	0.0	7.6	15.0	100.1
=	0.0	8.1	15.0	100.1
=	0.0	8.7	15.0	100.1
=	0.0	9.2	15.0	100.1
=	0.0	9.7	15.0	100.1
=	0.0	10.4	15.0	100.2
=	0.0	11.0	15.0	100.2
=	0.0	11.6	15.0	100.2
=	0.0	12.2	15.0	100.2
=	0.0	12.7	15.0	100.3
=	0.0	13.2	15.0	100.3
=	0.0	13.7	15.0	100.3
=	0.0	14.2	15.0	100.3
=	0.0	14.7	15.0	100.3
=	0.0	15.3	15.0	100.3
=	0.0	15.9	15.0	100.3
=	0.0	16.5	15.0	100.4
=	0.0	17.1	15.0	100.4
=	0.0	17.7	15.0	100.4
=	0.0	18.2	15.0	100.5
=	0.0	18.7	15.0	100.5
=	0.0	19.3	15.0	100.5
=	0.0	19.8	15.0	100.5
=	0.0	20.4	15.0	100.5
=	0.0	20.9	15.0	100.5
=	0.0	21.6	15.0	100.5
=	0.0	22.2	15.0	100.5
=	0.0	22.7	15.0	100.5
=	0.0	23.2	15.0	100.5
=	0.0	23.8	15.0	100.5
=	0.0	24.3	15.0	100.5
=	0.0	24.9	15.0	100.5
=	0.0	25.4	15.0	100.5
=	0.0	25.9	15.0	100.5
=	0.0	26.4	15.0	100.5
=	0.0	27.0	15.0	100.5
=	0.0	27.6	15.0	100.5
=	0.0	28.3	15.0	100.5
=	0.0	28.9	15.0	100.5
