:MSR 	1	 # No. of measurement in file
:SYS BDS 0   # Beam Data Scanner System
#
# RFA300 ASCII Measurement Dump ( BDS format )
#
# Measurement number 	1
#
%VNR 1.0
%MOD 	RAT
%TYP 	SCN
%SCN 	DPT
%FLD 	ION
%DAT 	10-04-2011
%TIM 	12:00:00
%FSZ 	150	150
%BMT 	ELE	   16.0
%SSD 	
%BUP 	0
%BRD 	
%FSH 	1
%ASC 	0
%WEG 	0
%GPO 	0
%CPO 	0
%MEA 	1
%PRD 	0,0
%PTS 	511
%STS 	    0.0	  0.0	   0.0 # Start Scan values in mm ( X , Y , Z )
%EDS 	    0.0	   0.0	   198.2 # End Scan values in mm ( X , Y , Z )
#
#	  X      Y      Z     Dose
#
=	0.0	0.0	0.0	91.0
=	0.0	0.0	0.3	91.2
=	0.0	0.0	0.6	91.3
=	0.0	0.0	0.9	91.6
=	0.0	0.0	1.2	91.8
=	0.0	0.0	1.5	92.0
=	0.0	0.0	1.9	92.4
=	0.0	0.0	2.4	92.8
=	0.0	0.0	2.8	93.1
=	0.0	0.0	3.2	93.5
=	0.0	0.0	3.6	93.9
=	0.0	0.0	3.9	94.2
=	0.0	0.0	4.2	94.4
=	0.0	0.0	4.8	94.7
=	0.0	0.0	5.2	95.0
=	0.0	0.0	5.7	95.3
=	0.0	0.0	6.3	95.6
=	0.0	0.0	6.6	95.7
=	0.0	0.0	7.3	96.0
=	0.0	0.0	7.6	96.2
=	0.0	0.0	8.0	96.3
=	0.0	0.0	8.5	96.5
=	0.0	0.0	8.9	96.6
=	0.0	0.0	9.2	96.7
=	0.0	0.0	9.7	96.8
=	0.0	0.0	10.0	96.9
=	0.0	0.0	10.3	97.0
=	0.0	0.0	10.8	97.1
=	0.0	0.0	11.1	97.2
=	0.0	0.0	11.5	97.3
=	0.0	0.0	11.8	97.4
=	0.0	0.0	12.2	97.5
=	0.0	0.0	12.4	97.5
=	0.0	0.0	12.7	97.6
=	0.0	0.0	13.2	97.7
=	0.0	0.0	13.6	97.8
=	0.0	0.0	13.9	97.9
=	0.0	0.0	14.3	98.0
=	0.0	0.0	14.6	98.0
=	0.0	0.0	15.0	98.1
=	0.0	0.0	15.4	98.2
=	0.0	0.0	16.0	98.3
=	0.0	0.0	16.2	98.3
=	0.0	0.0	16.7	98.4
=	0.0	0.0	17.0	98.5
=	0.0	0.0	17.5	98.5
=	0.0	0.0	17.8	98.6
=	0.0	0.0	18.1	98.7
=	0.0	0.0	18.4	98.7
=	0.0	0.0	18.6	98.7
=	0.0	0.0	19.0	98.8
=	0.0	0.0	19.4	98.9
=	0.0	0.0	19.7	98.9
=	0.0	0.0	20.2	99.0
=	0.0	0.0	20.6	99.1
=	0.0	0.0	21.0	99.1
=	0.0	0.0	21.4	99.2
=	0.0	0.0	21.8	99.2
=	0.0	0.0	22.2	99.3
=	0.0	0.0	22.7	99.3
=	0.0	0.0	23.0	99.4
=	0.0	0.0	23.4	99.4
=	0.0	0.0	23.9	99.5
=	0.0	0.0	24.2	99.5
=	0.0	0.0	24.6	99.6
=	0.0	0.0	25.1	99.6
=	0.0	0.0	25.5	99.7
=	0.0	0.0	26.1	99.7
=	0.0	0.0	26.4	99.8
=	0.0	0.0	26.8	99.8
=	0.0	0.0	27.3	99.8
=	0.0	0.0	27.7	99.8
=	0.0	0.0	28.2	99.9
=	0.0	0.0	28.8	99.9
=	0.0	0.0	29.1	99.9
=	0.0	0.0	29.5	100.0
=	0.0	0.0	30.0	100.0
=	0.0	0.0	30.4	100.0
=	0.0	0.0	31.0	100.0
=	0.0	0.0	31.4	100.0
=	0.0	0.0	31.9	100.0
=	0.0	0.0	32.3	100.0
=	0.0	0.0	32.6	100.0
=	0.0	0.0	32.9	100.0
=	0.0	0.0	33.2	100.0
=	0.0	0.0	33.5	100.0
=	0.0	0.0	34.0	100.0
=	0.0	0.0	34.6	100.0
=	0.0	0.0	34.9	100.0
=	0.0	0.0	35.5	99.9
=	0.0	0.0	35.9	99.8
=	0.0	0.0	36.4	99.7
=	0.0	0.0	37.0	99.6
=	0.0	0.0	37.3	99.6
=	0.0	0.0	38.0	99.4
=	0.0	0.0	38.5	99.2
=	0.0	0.0	39.2	99.0
=	0.0	0.0	39.6	98.9
=	0.0	0.0	40.1	98.8
=	0.0	0.0	40.7	98.6
=	0.0	0.0	41.3	98.3
=	0.0	0.0	41.9	98.1
=	0.0	0.0	42.2	97.9
=	0.0	0.0	42.7	97.6
=	0.0	0.0	43.1	97.4
=	0.0	0.0	43.4	97.2
=	0.0	0.0	43.9	96.9
=	0.0	0.0	44.3	96.7
=	0.0	0.0	44.7	96.4
=	0.0	0.0	45.2	96.0
=	0.0	0.0	45.5	95.7
=	0.0	0.0	46.1	95.2
=	0.0	0.0	46.5	94.8
=	0.0	0.0	47.0	94.4
=	0.0	0.0	47.6	93.8
=	0.0	0.0	48.0	93.4
=	0.0	0.0	48.5	92.7
=	0.0	0.0	48.9	92.3
=	0.0	0.0	49.5	91.5
=	0.0	0.0	49.9	91.0
=	0.0	0.0	50.2	90.4
=	0.0	0.0	50.7	89.8
=	0.0	0.0	51.1	89.2
=	0.0	0.0	51.3	88.8
=	0.0	0.0	51.7	88.3
=	0.0	0.0	52.0	87.8
=	0.0	0.0	52.3	87.3
=	0.0	0.0	52.7	86.5
=	0.0	0.0	53.1	85.7
=	0.0	0.0	53.5	85.1
=	0.0	0.0	54.0	84.2
=	0.0	0.0	54.4	83.4
=	0.0	0.0	54.7	82.6
=	0.0	0.0	55.2	81.6
=	0.0	0.0	55.6	80.8
=	0.0	0.0	56.1	79.6
=	0.0	0.0	56.7	78.1
=	0.0	0.0	57.2	77.0
=	0.0	0.0	57.6	76.2
=	0.0	0.0	57.9	75.4
=	0.0	0.0	58.2	74.6
=	0.0	0.0	58.5	73.7
=	0.0	0.0	58.8	72.8
=	0.0	0.0	59.1	72.1
=	0.0	0.0	59.4	71.3
=	0.0	0.0	59.7	70.5
=	0.0	0.0	60.0	69.4
=	0.0	0.0	60.3	68.7
=	0.0	0.0	60.6	67.8
=	0.0	0.0	60.9	66.8
=	0.0	0.0	61.2	66.0
=	0.0	0.0	61.6	65.0
=	0.0	0.0	61.9	64.0
=	0.0	0.0	62.2	62.9
=	0.0	0.0	62.5	61.9
=	0.0	0.0	62.8	61.1
=	0.0	0.0	63.1	60.2
=	0.0	0.0	63.6	58.5
=	0.0	0.0	63.9	57.3
=	0.0	0.0	64.3	56.1
=	0.0	0.0	64.8	54.5
=	0.0	0.0	65.2	53.2
=	0.0	0.0	65.5	51.9
=	0.0	0.0	66.0	50.1
=	0.0	0.0	66.4	48.9
=	0.0	0.0	67.1	46.7
=	0.0	0.0	67.4	45.4
=	0.0	0.0	67.8	44.2
=	0.0	0.0	68.3	42.5
=	0.0	0.0	68.7	41.2
=	0.0	0.0	69.2	39.4
=	0.0	0.0	69.7	37.6
=	0.0	0.0	70.1	36.4
=	0.0	0.0	70.4	35.1
=	0.0	0.0	70.8	34.1
=	0.0	0.0	71.1	33.1
=	0.0	0.0	71.5	31.8
=	0.0	0.0	71.9	30.2
=	0.0	0.0	72.4	28.8
=	0.0	0.0	72.7	27.9
=	0.0	0.0	73.0	26.9
=	0.0	0.0	73.5	25.6
=	0.0	0.0	73.8	24.5
=	0.0	0.0	74.1	23.8
=	0.0	0.0	74.4	22.9
=	0.0	0.0	74.7	22.1
=	0.0	0.0	75.0	21.2
=	0.0	0.0	75.3	20.3
=	0.0	0.0	75.6	19.5
=	0.0	0.0	76.0	18.6
=	0.0	0.0	76.3	17.9
=	0.0	0.0	76.6	17.2
=	0.0	0.0	76.9	16.4
=	0.0	0.0	77.2	15.7
=	0.0	0.0	77.5	15.1
=	0.0	0.0	77.8	14.5
=	0.0	0.0	78.1	13.8
=	0.0	0.0	78.4	13.3
=	0.0	0.0	78.7	12.7
=	0.0	0.0	79.0	12.1
=	0.0	0.0	79.3	11.5
=	0.0	0.0	79.6	11.0
=	0.0	0.0	79.9	10.6
=	0.0	0.0	80.2	10.1
=	0.0	0.0	80.5	9.6
=	0.0	0.0	80.8	9.1
=	0.0	0.0	81.1	8.7
=	0.0	0.0	81.5	8.2
=	0.0	0.0	81.8	7.9
=	0.0	0.0	82.1	7.6
=	0.0	0.0	82.4	7.3
=	0.0	0.0	82.7	7.0
=	0.0	0.0	83.0	6.7
=	0.0	0.0	83.4	6.3
=	0.0	0.0	83.7	6.1
=	0.0	0.0	84.1	5.9
=	0.0	0.0	84.4	5.7
=	0.0	0.0	84.6	5.5
=	0.0	0.0	85.0	5.3
=	0.0	0.0	85.5	5.0
=	0.0	0.0	85.8	4.8
=	0.0	0.0	86.2	4.7
=	0.0	0.0	86.7	4.5
=	0.0	0.0	87.1	4.4
=	0.0	0.0	87.4	4.3
=	0.0	0.0	88.0	4.2
=	0.0	0.0	88.5	4.1
=	0.0	0.0	88.9	4.0
=	0.0	0.0	89.5	3.9
=	0.0	0.0	89.8	3.9
=	0.0	0.0	90.2	3.9
=	0.0	0.0	90.7	3.8
=	0.0	0.0	90.9	3.8
=	0.0	0.0	91.3	3.8
=	0.0	0.0	91.6	3.8
=	0.0	0.0	91.9	3.8
=	0.0	0.0	92.2	3.8
=	0.0	0.0	92.5	3.7
=	0.0	0.0	92.8	3.7
=	0.0	0.0	93.1	3.7
=	0.0	0.0	93.4	3.7
=	0.0	0.0	93.7	3.7
=	0.0	0.0	94.0	3.7
=	0.0	0.0	94.5	3.7
=	0.0	0.0	94.8	3.7
=	0.0	0.0	95.1	3.7
=	0.0	0.0	95.4	3.7
=	0.0	0.0	95.7	3.7
=	0.0	0.0	96.0	3.7
=	0.0	0.0	96.3	3.7
=	0.0	0.0	96.6	3.7
=	0.0	0.0	96.9	3.7
=	0.0	0.0	97.2	3.6
=	0.0	0.0	97.5	3.6
=	0.0	0.0	97.8	3.6
=	0.0	0.0	98.2	3.6
=	0.0	0.0	98.6	3.6
=	0.0	0.0	99.0	3.6
=	0.0	0.0	99.5	3.6
=	0.0	0.0	99.8	3.6
=	0.0	0.0	100.2	3.6
=	0.0	0.0	100.7	3.6
=	0.0	0.0	101.3	3.6
=	0.0	0.0	101.6	3.6
=	0.0	0.0	102.0	3.6
=	0.0	0.0	102.5	3.6
=	0.0	0.0	102.8	3.6
=	0.0	0.0	103.2	3.6
=	0.0	0.0	103.8	3.6
=	0.0	0.0	104.2	3.6
=	0.0	0.0	104.7	3.6
=	0.0	0.0	105.3	3.6
=	0.0	0.0	105.7	3.6
=	0.0	0.0	106.0	3.6
=	0.0	0.0	106.5	3.6
=	0.0	0.0	106.8	3.6
=	0.0	0.0	107.5	3.6
=	0.0	0.0	107.9	3.6
=	0.0	0.0	108.4	3.6
=	0.0	0.0	108.9	3.6
=	0.0	0.0	109.3	3.6
=	0.0	0.0	109.8	3.6
=	0.0	0.0	110.1	3.6
=	0.0	0.0	110.4	3.6
=	0.0	0.0	110.7	3.5
=	0.0	0.0	111.1	3.5
=	0.0	0.0	111.4	3.5
=	0.0	0.0	111.7	3.5
=	0.0	0.0	112.0	3.5
=	0.0	0.0	112.3	3.5
=	0.0	0.0	112.6	3.5
=	0.0	0.0	112.9	3.5
=	0.0	0.0	113.2	3.5
=	0.0	0.0	113.5	3.5
=	0.0	0.0	113.8	3.5
=	0.0	0.0	114.1	3.5
=	0.0	0.0	114.4	3.5
=	0.0	0.0	114.7	3.5
=	0.0	0.0	115.1	3.5
=	0.0	0.0	115.5	3.5
=	0.0	0.0	115.9	3.5
=	0.0	0.0	116.3	3.5
=	0.0	0.0	116.6	3.5
=	0.0	0.0	117.2	3.5
=	0.0	0.0	117.7	3.5
=	0.0	0.0	118.1	3.5
=	0.0	0.0	118.7	3.5
=	0.0	0.0	119.1	3.5
=	0.0	0.0	119.5	3.5
=	0.0	0.0	120.2	3.4
=	0.0	0.0	120.6	3.4
=	0.0	0.0	121.1	3.4
=	0.0	0.0	121.7	3.4
=	0.0	0.0	122.0	3.4
=	0.0	0.0	122.7	3.4
=	0.0	0.0	123.0	3.4
=	0.0	0.0	123.6	3.4
=	0.0	0.0	124.1	3.4
=	0.0	0.0	124.5	3.4
=	0.0	0.0	125.1	3.4
=	0.0	0.0	125.7	3.4
=	0.0	0.0	126.0	3.3
=	0.0	0.0	126.5	3.3
=	0.0	0.0	126.9	3.3
=	0.0	0.0	127.2	3.3
=	0.0	0.0	127.8	3.3
=	0.0	0.0	128.2	3.3
=	0.0	0.0	128.8	3.3
=	0.0	0.0	129.3	3.3
=	0.0	0.0	129.7	3.3
=	0.0	0.0	130.2	3.3
=	0.0	0.0	130.5	3.2
=	0.0	0.0	130.9	3.2
=	0.0	0.0	131.4	3.2
=	0.0	0.0	131.7	3.2
=	0.0	0.0	131.9	3.2
=	0.0	0.0	132.3	3.2
=	0.0	0.0	132.6	3.2
=	0.0	0.0	132.9	3.2
=	0.0	0.0	133.2	3.2
=	0.0	0.0	133.5	3.2
=	0.0	0.0	133.8	3.2
=	0.0	0.0	134.1	3.2
=	0.0	0.0	134.5	3.2
=	0.0	0.0	134.8	3.2
=	0.0	0.0	135.0	3.2
=	0.0	0.0	135.4	3.2
=	0.0	0.0	135.9	3.1
=	0.0	0.0	136.2	3.1
=	0.0	0.0	136.6	3.1
=	0.0	0.0	137.1	3.1
=	0.0	0.0	137.4	3.1
=	0.0	0.0	137.8	3.1
=	0.0	0.0	138.1	3.1
=	0.0	0.0	138.4	3.1
=	0.0	0.0	139.0	3.1
=	0.0	0.0	139.6	3.1
=	0.0	0.0	140.0	3.1
=	0.0	0.0	140.5	3.1
=	0.0	0.0	141.1	3.1
=	0.0	0.0	141.4	3.1
=	0.0	0.0	141.9	3.1
=	0.0	0.0	142.3	3.1
=	0.0	0.0	142.7	3.0
=	0.0	0.0	143.2	3.0
=	0.0	0.0	143.5	3.0
=	0.0	0.0	143.9	3.0
=	0.0	0.0	144.4	3.0
=	0.0	0.0	144.9	3.0
=	0.0	0.0	145.4	3.0
=	0.0	0.0	145.9	3.0
=	0.0	0.0	146.3	3.0
=	0.0	0.0	146.9	3.0
=	0.0	0.0	147.3	3.0
=	0.0	0.0	147.8	3.0
=	0.0	0.0	148.4	3.0
=	0.0	0.0	148.7	3.0
=	0.0	0.0	149.1	3.0
=	0.0	0.0	149.7	2.9
=	0.0	0.0	150.1	2.9
=	0.0	0.0	150.6	2.9
=	0.0	0.0	151.0	2.9
=	0.0	0.0	151.4	2.9
=	0.0	0.0	151.7	2.9
=	0.0	0.0	152.0	2.9
=	0.0	0.0	152.3	2.9
=	0.0	0.0	152.6	2.9
=	0.0	0.0	152.9	2.9
=	0.0	0.0	153.2	2.9
=	0.0	0.0	153.5	2.9
=	0.0	0.0	153.8	2.9
=	0.0	0.0	154.1	2.9
=	0.0	0.0	154.4	2.9
=	0.0	0.0	154.8	2.9
=	0.0	0.0	155.1	2.9
=	0.0	0.0	155.4	2.8
=	0.0	0.0	155.7	2.8
=	0.0	0.0	156.0	2.8
=	0.0	0.0	156.4	2.8
=	0.0	0.0	156.8	2.8
=	0.0	0.0	157.2	2.8
=	0.0	0.0	157.5	2.8
=	0.0	0.0	157.8	2.8
=	0.0	0.0	158.1	2.8
=	0.0	0.0	158.4	2.8
=	0.0	0.0	158.7	2.8
=	0.0	0.0	159.0	2.8
=	0.0	0.0	159.3	2.8
=	0.0	0.0	159.6	2.8
=	0.0	0.0	159.9	2.8
=	0.0	0.0	160.2	2.8
=	0.0	0.0	160.6	2.8
=	0.0	0.0	161.1	2.8
=	0.0	0.0	161.5	2.8
=	0.0	0.0	161.8	2.8
=	0.0	0.0	162.3	2.7
=	0.0	0.0	162.9	2.7
=	0.0	0.0	163.2	2.7
=	0.0	0.0	163.6	2.7
=	0.0	0.0	164.1	2.7
=	0.0	0.0	164.4	2.7
=	0.0	0.0	164.8	2.7
=	0.0	0.0	165.1	2.7
=	0.0	0.0	165.6	2.7
=	0.0	0.0	166.0	2.7
=	0.0	0.0	166.3	2.7
=	0.0	0.0	166.7	2.7
=	0.0	0.0	167.0	2.7
=	0.0	0.0	167.3	2.7
=	0.0	0.0	167.6	2.7
=	0.0	0.0	167.9	2.7
=	0.0	0.0	168.2	2.7
=	0.0	0.0	168.6	2.6
=	0.0	0.0	169.0	2.6
=	0.0	0.0	169.4	2.6
=	0.0	0.0	169.8	2.6
=	0.0	0.0	170.2	2.6
=	0.0	0.0	170.7	2.6
=	0.0	0.0	171.3	2.6
=	0.0	0.0	171.6	2.6
=	0.0	0.0	172.3	2.6
=	0.0	0.0	172.7	2.6
=	0.0	0.0	173.2	2.6
=	0.0	0.0	173.6	2.6
=	0.0	0.0	173.9	2.6
=	0.0	0.0	174.4	2.6
=	0.0	0.0	175.0	2.6
=	0.0	0.0	175.3	2.6
=	0.0	0.0	175.7	2.5
=	0.0	0.0	176.2	2.5
=	0.0	0.0	176.5	2.5
=	0.0	0.0	176.7	2.5
=	0.0	0.0	177.2	2.5
=	0.0	0.0	177.5	2.5
=	0.0	0.0	177.8	2.5
=	0.0	0.0	178.1	2.5
=	0.0	0.0	178.4	2.5
=	0.0	0.0	178.8	2.5
=	0.0	0.0	179.1	2.5
=	0.0	0.0	179.4	2.5
=	0.0	0.0	179.7	2.5
=	0.0	0.0	180.0	2.5
=	0.0	0.0	180.2	2.5
=	0.0	0.0	180.6	2.5
=	0.0	0.0	180.9	2.5
=	0.0	0.0	181.2	2.5
=	0.0	0.0	181.5	2.5
=	0.0	0.0	181.8	2.5
=	0.0	0.0	182.1	2.5
=	0.0	0.0	182.4	2.5
=	0.0	0.0	182.7	2.5
=	0.0	0.0	183.0	2.5
=	0.0	0.0	183.3	2.5
=	0.0	0.0	183.6	2.5
=	0.0	0.0	184.0	2.5
=	0.0	0.0	184.2	2.4
=	0.0	0.0	184.6	2.4
=	0.0	0.0	184.8	2.4
=	0.0	0.0	185.2	2.4
=	0.0	0.0	185.6	2.4
=	0.0	0.0	186.0	2.4
=	0.0	0.0	186.4	2.4
=	0.0	0.0	186.8	2.4
=	0.0	0.0	187.4	2.4
=	0.0	0.0	187.9	2.4
=	0.0	0.0	188.3	2.4
=	0.0	0.0	188.7	2.4
=	0.0	0.0	189.2	2.4
=	0.0	0.0	189.5	2.4
=	0.0	0.0	189.9	2.4
=	0.0	0.0	190.3	2.4
=	0.0	0.0	190.7	2.4
=	0.0	0.0	191.0	2.4
=	0.0	0.0	191.4	2.4
=	0.0	0.0	192.0	2.3
=	0.0	0.0	192.4	2.3
=	0.0	0.0	192.9	2.3
=	0.0	0.0	193.2	2.3
=	0.0	0.0	193.5	2.3
=	0.0	0.0	193.8	2.3
=	0.0	0.0	194.1	2.3
=	0.0	0.0	194.4	2.3
=	0.0	0.0	194.7	2.3
=	0.0	0.0	195.4	2.3
=	0.0	0.0	195.7	2.3
=	0.0	0.0	196.1	2.3
=	0.0	0.0	196.6	2.3
=	0.0	0.0	197.1	2.3
=	0.0	0.0	197.5	2.3
=	0.0	0.0	197.9	2.3
=	0.0	0.0	198.2	2.3
:EOM # End of Measurement

:EOF # End of File