:MSR 	1	 # No. of measurement in file
:SYS BDS 0   # Beam Data Scanner System
#
# RFA300 ASCII Measurement Dump ( BDS format )
#
# Measurement number 	1
#
%VNR 1.0
%MOD 	RAT
%TYP 	SCN
%SCN 	DPT
%FLD 	ION
%DAT 	10-05-2011
%TIM 	12:00:00
%FSZ 	250	250
%BMT 	ELE	   16.0
%SSD 	1000
%BUP 	0
%BRD 	1000
%FSH 	1
%ASC 	0
%WEG 	0
%GPO 	0
%CPO 	0
%MEA 	1
%PRD 	0,0
%PTS 	991
%STS 	    0.0	  0.0	   0.0 # Start Scan values in mm ( X , Y , Z )
%EDS 	    0.0	   0.0	   198.5 # End Scan values in mm ( X , Y , Z )
#
#	  X      Y      Z     Dose
#
=	0.0	0.0	0.0	91.5
=	0.0	0.0	0.2	91.6
=	0.0	0.0	0.4	91.7
=	0.0	0.0	0.8	91.9
=	0.0	0.0	1.1	92.1
=	0.0	0.0	1.2	92.2
=	0.0	0.0	1.4	92.3
=	0.0	0.0	1.7	92.5
=	0.0	0.0	1.8	92.6
=	0.0	0.0	2.0	92.8
=	0.0	0.0	2.3	93.1
=	0.0	0.0	2.4	93.2
=	0.0	0.0	2.6	93.3
=	0.0	0.0	2.9	93.6
=	0.0	0.0	3.2	93.9
=	0.0	0.0	3.5	94.2
=	0.0	0.0	3.7	94.4
=	0.0	0.0	3.8	94.5
=	0.0	0.0	4.1	94.7
=	0.0	0.0	4.5	94.8
=	0.0	0.0	4.6	94.9
=	0.0	0.0	4.7	95.0
=	0.0	0.0	4.9	95.1
=	0.0	0.0	5.1	95.2
=	0.0	0.0	5.3	95.3
=	0.0	0.0	5.4	95.4
=	0.0	0.0	5.7	95.5
=	0.0	0.0	6.0	95.7
=	0.0	0.0	6.1	95.8
=	0.0	0.0	6.3	95.8
=	0.0	0.0	6.5	95.9
=	0.0	0.0	6.9	96.1
=	0.0	0.0	7.2	96.2
=	0.0	0.0	7.3	96.2
=	0.0	0.0	7.5	96.3
=	0.0	0.0	7.7	96.4
=	0.0	0.0	8.1	96.5
=	0.0	0.0	8.4	96.6
=	0.0	0.0	8.6	96.7
=	0.0	0.0	8.7	96.7
=	0.0	0.0	9.0	96.8
=	0.0	0.0	9.3	97.0
=	0.0	0.0	9.6	97.1
=	0.0	0.0	9.8	97.2
=	0.0	0.0	9.9	97.2
=	0.0	0.0	10.2	97.2
=	0.0	0.0	10.5	97.3
=	0.0	0.0	10.8	97.4
=	0.0	0.0	11.0	97.4
=	0.0	0.0	11.1	97.5
=	0.0	0.0	11.4	97.5
=	0.0	0.0	11.8	97.6
=	0.0	0.0	12.1	97.7
=	0.0	0.0	12.3	97.7
=	0.0	0.0	12.4	97.7
=	0.0	0.0	12.5	97.8
=	0.0	0.0	12.7	97.8
=	0.0	0.0	12.8	97.8
=	0.0	0.0	13.0	97.9
=	0.0	0.0	13.1	98.0
=	0.0	0.0	13.3	98.0
=	0.0	0.0	13.5	98.0
=	0.0	0.0	13.9	98.1
=	0.0	0.0	14.2	98.2
=	0.0	0.0	14.3	98.2
=	0.0	0.0	14.5	98.2
=	0.0	0.0	14.8	98.3
=	0.0	0.0	15.1	98.3
=	0.0	0.0	15.4	98.4
=	0.0	0.0	15.6	98.4
=	0.0	0.0	16.0	98.5
=	0.0	0.0	16.3	98.5
=	0.0	0.0	16.5	98.5
=	0.0	0.0	16.6	98.6
=	0.0	0.0	16.9	98.6
=	0.0	0.0	17.2	98.7
=	0.0	0.0	17.5	98.7
=	0.0	0.0	17.6	98.7
=	0.0	0.0	17.8	98.8
=	0.0	0.0	18.1	98.8
=	0.0	0.0	18.4	98.8
=	0.0	0.0	18.7	98.9
=	0.0	0.0	18.9	98.9
=	0.0	0.0	19.0	99.0
=	0.0	0.0	19.2	99.0
=	0.0	0.0	19.3	99.0
=	0.0	0.0	19.6	99.0
=	0.0	0.0	19.9	99.1
=	0.0	0.0	20.3	99.1
=	0.0	0.0	20.4	99.2
=	0.0	0.0	20.6	99.2
=	0.0	0.0	20.8	99.2
=	0.0	0.0	21.2	99.2
=	0.0	0.0	21.5	99.3
=	0.0	0.0	21.7	99.3
=	0.0	0.0	21.8	99.3
=	0.0	0.0	22.1	99.3
=	0.0	0.0	22.4	99.4
=	0.0	0.0	22.5	99.4
=	0.0	0.0	22.7	99.4
=	0.0	0.0	22.9	99.5
=	0.0	0.0	23.3	99.5
=	0.0	0.0	23.6	99.5
=	0.0	0.0	23.8	99.5
=	0.0	0.0	23.9	99.6
=	0.0	0.0	24.2	99.6
=	0.0	0.0	24.5	99.6
=	0.0	0.0	24.6	99.6
=	0.0	0.0	24.8	99.6
=	0.0	0.0	25.0	99.7
=	0.0	0.0	25.1	99.7
=	0.0	0.0	25.4	99.7
=	0.0	0.0	25.7	99.7
=	0.0	0.0	25.9	99.7
=	0.0	0.0	26.0	99.8
=	0.0	0.0	26.3	99.8
=	0.0	0.0	26.6	99.8
=	0.0	0.0	26.9	99.8
=	0.0	0.0	27.1	99.8
=	0.0	0.0	27.2	99.9
=	0.0	0.0	27.5	99.9
=	0.0	0.0	27.8	99.9
=	0.0	0.0	28.1	99.9
=	0.0	0.0	28.3	99.9
=	0.0	0.0	28.5	99.9
=	0.0	0.0	28.7	99.9
=	0.0	0.0	29.0	99.9
=	0.0	0.0	29.2	99.9
=	0.0	0.0	29.4	99.9
=	0.0	0.0	29.5	99.9
=	0.0	0.0	29.7	99.9
=	0.0	0.0	30.0	100.0
=	0.0	0.0	30.3	100.0
=	0.0	0.0	30.4	100.0
=	0.0	0.0	30.6	100.0
=	0.0	0.0	30.8	100.0
=	0.0	0.0	31.1	100.0
=	0.0	0.0	31.4	100.0
=	0.0	0.0	31.5	100.0
=	0.0	0.0	31.8	100.0
=	0.0	0.0	32.1	100.0
=	0.0	0.0	32.2	100.0
=	0.0	0.0	32.4	100.0
=	0.0	0.0	32.7	100.0
=	0.0	0.0	33.0	100.0
=	0.0	0.0	33.3	99.9
=	0.0	0.0	33.4	99.9
=	0.0	0.0	33.6	99.9
=	0.0	0.0	33.8	99.9
=	0.0	0.0	33.9	99.9
=	0.0	0.0	34.2	99.9
=	0.0	0.0	34.5	99.8
=	0.0	0.0	34.6	99.8
=	0.0	0.0	34.8	99.8
=	0.0	0.0	35.0	99.8
=	0.0	0.0	35.2	99.8
=	0.0	0.0	35.5	99.8
=	0.0	0.0	35.8	99.7
=	0.0	0.0	35.9	99.7
=	0.0	0.0	36.1	99.7
=	0.0	0.0	36.3	99.7
=	0.0	0.0	36.4	99.7
=	0.0	0.0	36.7	99.6
=	0.0	0.0	37.0	99.6
=	0.0	0.0	37.1	99.5
=	0.0	0.0	37.3	99.5
=	0.0	0.0	37.6	99.4
=	0.0	0.0	37.9	99.3
=	0.0	0.0	38.2	99.3
=	0.0	0.0	38.5	99.2
=	0.0	0.0	38.7	99.2
=	0.0	0.0	38.8	99.1
=	0.0	0.0	39.1	99.0
=	0.0	0.0	39.4	99.0
=	0.0	0.0	39.5	99.0
=	0.0	0.0	39.7	98.9
=	0.0	0.0	39.9	98.8
=	0.0	0.0	40.0	98.8
=	0.0	0.0	40.3	98.7
=	0.0	0.0	40.6	98.6
=	0.0	0.0	40.7	98.5
=	0.0	0.0	40.9	98.5
=	0.0	0.0	41.1	98.4
=	0.0	0.0	41.2	98.3
=	0.0	0.0	41.6	98.1
=	0.0	0.0	41.9	98.0
=	0.0	0.0	42.0	97.9
=	0.0	0.0	42.2	97.9
=	0.0	0.0	42.4	97.8
=	0.0	0.0	42.8	97.6
=	0.0	0.0	42.9	97.5
=	0.0	0.0	43.1	97.4
=	0.0	0.0	43.3	97.3
=	0.0	0.0	43.4	97.3
=	0.0	0.0	43.7	97.0
=	0.0	0.0	44.0	96.8
=	0.0	0.0	44.3	96.6
=	0.0	0.0	44.5	96.5
=	0.0	0.0	44.6	96.4
=	0.0	0.0	44.8	96.2
=	0.0	0.0	45.1	96.0
=	0.0	0.0	45.4	95.8
=	0.0	0.0	45.5	95.7
=	0.0	0.0	45.8	95.5
=	0.0	0.0	46.0	95.3
=	0.0	0.0	46.1	95.2
=	0.0	0.0	46.4	95.0
=	0.0	0.0	46.5	94.8
=	0.0	0.0	46.7	94.7
=	0.0	0.0	47.0	94.4
=	0.0	0.0	47.3	94.1
=	0.0	0.0	47.6	93.8
=	0.0	0.0	47.8	93.6
=	0.0	0.0	48.0	93.5
=	0.0	0.0	48.2	93.1
=	0.0	0.0	48.6	92.7
=	0.0	0.0	48.9	92.4
=	0.0	0.0	49.1	92.1
=	0.0	0.0	49.4	91.7
=	0.0	0.0	49.8	91.3
=	0.0	0.0	50.1	90.8
=	0.0	0.0	50.3	90.5
=	0.0	0.0	50.4	90.4
=	0.0	0.0	50.6	90.0
=	0.0	0.0	50.8	89.8
=	0.0	0.0	51.0	89.5
=	0.0	0.0	51.1	89.4
=	0.0	0.0	51.3	89.0
=	0.0	0.0	51.6	88.6
=	0.0	0.0	51.7	88.5
=	0.0	0.0	51.8	88.3
=	0.0	0.0	52.0	87.9
=	0.0	0.0	52.2	87.5
=	0.0	0.0	52.3	87.3
=	0.0	0.0	52.5	87.0
=	0.0	0.0	52.7	86.9
=	0.0	0.0	52.8	86.6
=	0.0	0.0	53.0	86.4
=	0.0	0.0	53.1	86.2
=	0.0	0.0	53.3	85.9
=	0.0	0.0	53.4	85.6
=	0.0	0.0	53.5	85.3
=	0.0	0.0	53.8	84.8
=	0.0	0.0	53.9	84.6
=	0.0	0.0	54.1	84.2
=	0.0	0.0	54.2	84.0
=	0.0	0.0	54.3	83.6
=	0.0	0.0	54.5	83.2
=	0.0	0.0	54.7	82.9
=	0.0	0.0	54.8	82.7
=	0.0	0.0	55.0	82.5
=	0.0	0.0	55.1	82.2
=	0.0	0.0	55.3	81.9
=	0.0	0.0	55.5	81.5
=	0.0	0.0	55.6	81.2
=	0.0	0.0	55.8	80.8
=	0.0	0.0	55.9	80.5
=	0.0	0.0	56.1	80.1
=	0.0	0.0	56.4	79.3
=	0.0	0.0	56.5	79.1
=	0.0	0.0	56.7	78.7
=	0.0	0.0	56.8	78.5
=	0.0	0.0	57.0	78.0
=	0.0	0.0	57.1	77.8
=	0.0	0.0	57.3	77.3
=	0.0	0.0	57.4	77.0
=	0.0	0.0	57.6	76.5
=	0.0	0.0	57.7	76.2
=	0.0	0.0	57.9	75.6
=	0.0	0.0	58.0	75.4
=	0.0	0.0	58.1	75.1
=	0.0	0.0	58.3	74.6
=	0.0	0.0	58.5	74.1
=	0.0	0.0	58.9	73.2
=	0.0	0.0	59.2	72.3
=	0.0	0.0	59.3	72.0
=	0.0	0.0	59.5	71.4
=	0.0	0.0	59.7	70.8
=	0.0	0.0	59.8	70.4
=	0.0	0.0	60.1	69.7
=	0.0	0.0	60.5	68.7
=	0.0	0.0	60.8	67.8
=	0.0	0.0	60.9	67.4
=	0.0	0.0	61.1	66.8
=	0.0	0.0	61.3	66.0
=	0.0	0.0	61.7	65.0
=	0.0	0.0	62.0	64.0
=	0.0	0.0	62.2	63.5
=	0.0	0.0	62.3	63.2
=	0.0	0.0	62.6	62.3
=	0.0	0.0	62.9	61.4
=	0.0	0.0	63.0	61.0
=	0.0	0.0	63.2	60.3
=	0.0	0.0	63.4	59.6
=	0.0	0.0	63.5	59.3
=	0.0	0.0	63.7	58.5
=	0.0	0.0	64.1	57.4
=	0.0	0.0	64.4	56.5
=	0.0	0.0	64.7	55.6
=	0.0	0.0	64.8	55.2
=	0.0	0.0	65.0	54.4
=	0.0	0.0	65.3	53.3
=	0.0	0.0	65.6	52.2
=	0.0	0.0	65.8	51.7
=	0.0	0.0	65.9	51.1
=	0.0	0.0	66.2	50.3
=	0.0	0.0	66.5	49.1
=	0.0	0.0	66.8	48.0
=	0.0	0.0	67.0	47.6
=	0.0	0.0	67.1	47.1
=	0.0	0.0	67.4	46.1
=	0.0	0.0	67.6	45.7
=	0.0	0.0	67.8	45.0
=	0.0	0.0	67.9	44.6
=	0.0	0.0	68.1	44.1
=	0.0	0.0	68.2	43.7
=	0.0	0.0	68.4	43.1
=	0.0	0.0	68.5	42.5
=	0.0	0.0	68.7	41.9
=	0.0	0.0	68.8	41.2
=	0.0	0.0	69.0	40.7
=	0.0	0.0	69.1	40.2
=	0.0	0.0	69.3	39.8
=	0.0	0.0	69.4	39.3
=	0.0	0.0	69.6	38.7
=	0.0	0.0	69.8	38.1
=	0.0	0.0	69.9	37.7
=	0.0	0.0	70.1	37.1
=	0.0	0.0	70.2	36.7
=	0.0	0.0	70.3	36.3
=	0.0	0.0	70.5	35.6
=	0.0	0.0	70.7	35.0
=	0.0	0.0	70.8	34.4
=	0.0	0.0	71.0	34.0
=	0.0	0.0	71.1	33.5
=	0.0	0.0	71.3	33.0
=	0.0	0.0	71.4	32.6
=	0.0	0.0	71.6	32.1
=	0.0	0.0	71.7	31.6
=	0.0	0.0	71.9	31.1
=	0.0	0.0	72.0	30.7
=	0.0	0.0	72.2	30.2
=	0.0	0.0	72.3	29.7
=	0.0	0.0	72.5	29.2
=	0.0	0.0	72.6	28.9
=	0.0	0.0	72.8	28.2
=	0.0	0.0	73.0	27.6
=	0.0	0.0	73.1	27.1
=	0.0	0.0	73.4	26.4
=	0.0	0.0	73.5	26.1
=	0.0	0.0	73.8	25.4
=	0.0	0.0	74.1	24.3
=	0.0	0.0	74.2	23.9
=	0.0	0.0	74.4	23.5
=	0.0	0.0	74.7	22.7
=	0.0	0.0	75.0	21.6
=	0.0	0.0	75.4	20.7
=	0.0	0.0	75.5	20.3
=	0.0	0.0	75.7	20.0
=	0.0	0.0	75.9	19.3
=	0.0	0.0	76.3	18.3
=	0.0	0.0	76.6	17.7
=	0.0	0.0	76.8	17.2
=	0.0	0.0	76.9	16.9
=	0.0	0.0	77.1	16.2
=	0.0	0.0	77.5	15.5
=	0.0	0.0	77.8	14.9
=	0.0	0.0	78.0	14.5
=	0.0	0.0	78.1	14.2
=	0.0	0.0	78.4	13.6
=	0.0	0.0	78.7	13.0
=	0.0	0.0	78.8	12.8
=	0.0	0.0	79.0	12.4
=	0.0	0.0	79.2	12.1
=	0.0	0.0	79.3	11.9
=	0.0	0.0	79.6	11.4
=	0.0	0.0	79.9	10.9
=	0.0	0.0	80.0	10.7
=	0.0	0.0	80.2	10.4
=	0.0	0.0	80.5	10.0
=	0.0	0.0	80.6	9.8
=	0.0	0.0	80.8	9.5
=	0.0	0.0	80.9	9.3
=	0.0	0.0	81.1	9.0
=	0.0	0.0	81.3	8.8
=	0.0	0.0	81.4	8.7
=	0.0	0.0	81.6	8.5
=	0.0	0.0	81.7	8.3
=	0.0	0.0	81.9	8.1
=	0.0	0.0	82.0	8.0
=	0.0	0.0	82.2	7.8
=	0.0	0.0	82.3	7.6
=	0.0	0.0	82.5	7.4
=	0.0	0.0	82.7	7.3
=	0.0	0.0	82.8	7.2
=	0.0	0.0	82.9	7.0
=	0.0	0.0	83.1	6.8
=	0.0	0.0	83.2	6.7
=	0.0	0.0	83.4	6.6
=	0.0	0.0	83.5	6.5
=	0.0	0.0	83.7	6.3
=	0.0	0.0	83.8	6.2
=	0.0	0.0	84.0	6.1
=	0.0	0.0	84.1	6.0
=	0.0	0.0	84.3	5.9
=	0.0	0.0	84.5	5.8
=	0.0	0.0	84.6	5.7
=	0.0	0.0	84.8	5.6
=	0.0	0.0	84.9	5.5
=	0.0	0.0	85.1	5.4
=	0.0	0.0	85.2	5.3
=	0.0	0.0	85.4	5.2
=	0.0	0.0	85.6	5.2
=	0.0	0.0	85.8	5.0
=	0.0	0.0	85.9	4.9
=	0.0	0.0	86.2	4.8
=	0.0	0.0	86.5	4.7
=	0.0	0.0	86.6	4.7
=	0.0	0.0	86.8	4.6
=	0.0	0.0	87.0	4.6
=	0.0	0.0	87.1	4.5
=	0.0	0.0	87.3	4.5
=	0.0	0.0	87.5	4.4
=	0.0	0.0	87.8	4.3
=	0.0	0.0	88.0	4.3
=	0.0	0.0	88.2	4.2
=	0.0	0.0	88.4	4.2
=	0.0	0.0	88.6	4.1
=	0.0	0.0	88.7	4.1
=	0.0	0.0	89.0	4.1
=	0.0	0.0	89.3	4.1
=	0.0	0.0	89.5	4.0
=	0.0	0.0	89.6	4.0
=	0.0	0.0	89.9	4.0
=	0.0	0.0	90.2	4.0
=	0.0	0.0	90.5	4.0
=	0.0	0.0	90.7	3.9
=	0.0	0.0	90.8	3.9
=	0.0	0.0	91.1	3.9
=	0.0	0.0	91.4	3.9
=	0.0	0.0	91.7	3.9
=	0.0	0.0	91.9	3.9
=	0.0	0.0	92.0	3.8
=	0.0	0.0	92.3	3.8
=	0.0	0.0	92.6	3.8
=	0.0	0.0	92.9	3.8
=	0.0	0.0	93.1	3.8
=	0.0	0.0	93.2	3.8
=	0.0	0.0	93.5	3.8
=	0.0	0.0	93.8	3.8
=	0.0	0.0	94.2	3.8
=	0.0	0.0	94.4	3.8
=	0.0	0.0	94.5	3.8
=	0.0	0.0	94.7	3.8
=	0.0	0.0	95.1	3.8
=	0.0	0.0	95.4	3.8
=	0.0	0.0	95.6	3.8
=	0.0	0.0	95.7	3.8
=	0.0	0.0	96.0	3.8
=	0.0	0.0	96.3	3.8
=	0.0	0.0	96.6	3.8
=	0.0	0.0	96.8	3.8
=	0.0	0.0	96.9	3.8
=	0.0	0.0	97.2	3.8
=	0.0	0.0	97.5	3.8
=	0.0	0.0	97.8	3.7
=	0.0	0.0	98.1	3.7
=	0.0	0.0	98.3	3.7
=	0.0	0.0	98.5	3.7
=	0.0	0.0	98.7	3.7
=	0.0	0.0	98.8	3.7
=	0.0	0.0	99.0	3.7
=	0.0	0.0	99.1	3.7
=	0.0	0.0	99.3	3.7
=	0.0	0.0	99.5	3.7
=	0.0	0.0	99.7	3.7
=	0.0	0.0	99.8	3.7
=	0.0	0.0	99.9	3.7
=	0.0	0.0	100.1	3.7
=	0.0	0.0	100.2	3.7
=	0.0	0.0	100.4	3.7
=	0.0	0.0	100.5	3.7
=	0.0	0.0	100.6	3.7
=	0.0	0.0	100.8	3.7
=	0.0	0.0	101.0	3.7
=	0.0	0.0	101.1	3.7
=	0.0	0.0	101.2	3.7
=	0.0	0.0	101.4	3.7
=	0.0	0.0	101.5	3.7
=	0.0	0.0	101.7	3.7
=	0.0	0.0	101.9	3.7
=	0.0	0.0	102.0	3.7
=	0.0	0.0	102.3	3.7
=	0.0	0.0	102.6	3.7
=	0.0	0.0	102.8	3.7
=	0.0	0.0	102.9	3.7
=	0.0	0.0	103.1	3.7
=	0.0	0.0	103.3	3.7
=	0.0	0.0	103.4	3.7
=	0.0	0.0	103.5	3.7
=	0.0	0.0	103.7	3.7
=	0.0	0.0	103.9	3.7
=	0.0	0.0	104.0	3.7
=	0.0	0.0	104.1	3.7
=	0.0	0.0	104.3	3.7
=	0.0	0.0	104.5	3.7
=	0.0	0.0	104.6	3.7
=	0.0	0.0	104.8	3.7
=	0.0	0.0	105.0	3.7
=	0.0	0.0	105.1	3.7
=	0.0	0.0	105.2	3.7
=	0.0	0.0	105.4	3.7
=	0.0	0.0	105.6	3.7
=	0.0	0.0	105.7	3.7
=	0.0	0.0	105.8	3.7
=	0.0	0.0	106.0	3.7
=	0.0	0.0	106.2	3.7
=	0.0	0.0	106.3	3.7
=	0.0	0.0	106.4	3.7
=	0.0	0.0	106.6	3.7
=	0.0	0.0	106.8	3.7
=	0.0	0.0	106.9	3.7
=	0.0	0.0	107.1	3.7
=	0.0	0.0	107.4	3.7
=	0.0	0.0	107.6	3.7
=	0.0	0.0	107.8	3.7
=	0.0	0.0	108.1	3.7
=	0.0	0.0	108.3	3.7
=	0.0	0.0	108.6	3.7
=	0.0	0.0	108.9	3.7
=	0.0	0.0	109.0	3.7
=	0.0	0.0	109.3	3.7
=	0.0	0.0	109.6	3.7
=	0.0	0.0	109.7	3.7
=	0.0	0.0	109.9	3.7
=	0.0	0.0	110.1	3.7
=	0.0	0.0	110.5	3.7
=	0.0	0.0	110.8	3.7
=	0.0	0.0	110.9	3.7
=	0.0	0.0	111.1	3.6
=	0.0	0.0	111.3	3.6
=	0.0	0.0	111.4	3.6
=	0.0	0.0	111.7	3.6
=	0.0	0.0	112.0	3.6
=	0.0	0.0	112.1	3.6
=	0.0	0.0	112.4	3.6
=	0.0	0.0	112.6	3.6
=	0.0	0.0	112.9	3.6
=	0.0	0.0	113.3	3.6
=	0.0	0.0	113.5	3.6
=	0.0	0.0	113.8	3.6
=	0.0	0.0	113.9	3.6
=	0.0	0.0	114.1	3.6
=	0.0	0.0	114.2	3.6
=	0.0	0.0	114.5	3.6
=	0.0	0.0	114.8	3.6
=	0.0	0.0	114.9	3.6
=	0.0	0.0	115.1	3.6
=	0.0	0.0	115.2	3.6
=	0.0	0.0	115.3	3.6
=	0.0	0.0	115.5	3.6
=	0.0	0.0	115.7	3.6
=	0.0	0.0	116.0	3.6
=	0.0	0.0	116.1	3.6
=	0.0	0.0	116.3	3.6
=	0.0	0.0	116.4	3.6
=	0.0	0.0	116.6	3.6
=	0.0	0.0	116.7	3.6
=	0.0	0.0	116.9	3.6
=	0.0	0.0	117.2	3.6
=	0.0	0.0	117.4	3.6
=	0.0	0.0	117.5	3.6
=	0.0	0.0	117.6	3.6
=	0.0	0.0	117.8	3.6
=	0.0	0.0	118.0	3.6
=	0.0	0.0	118.1	3.6
=	0.0	0.0	118.2	3.6
=	0.0	0.0	118.4	3.6
=	0.0	0.0	118.6	3.6
=	0.0	0.0	118.7	3.6
=	0.0	0.0	118.9	3.6
=	0.0	0.0	119.0	3.6
=	0.0	0.0	119.2	3.6
=	0.0	0.0	119.3	3.6
=	0.0	0.0	119.4	3.6
=	0.0	0.0	119.6	3.6
=	0.0	0.0	119.8	3.6
=	0.0	0.0	119.9	3.5
=	0.0	0.0	120.1	3.5
=	0.0	0.0	120.2	3.5
=	0.0	0.0	120.4	3.5
=	0.0	0.0	120.5	3.5
=	0.0	0.0	120.7	3.5
=	0.0	0.0	120.8	3.5
=	0.0	0.0	121.0	3.5
=	0.0	0.0	121.1	3.5
=	0.0	0.0	121.3	3.5
=	0.0	0.0	121.4	3.5
=	0.0	0.0	121.6	3.5
=	0.0	0.0	121.7	3.5
=	0.0	0.0	121.9	3.5
=	0.0	0.0	122.0	3.5
=	0.0	0.0	122.2	3.5
=	0.0	0.0	122.3	3.5
=	0.0	0.0	122.5	3.5
=	0.0	0.0	122.6	3.5
=	0.0	0.0	122.8	3.5
=	0.0	0.0	123.0	3.5
=	0.0	0.0	123.1	3.5
=	0.0	0.0	123.3	3.5
=	0.0	0.0	123.4	3.5
=	0.0	0.0	123.6	3.5
=	0.0	0.0	123.8	3.5
=	0.0	0.0	123.9	3.5
=	0.0	0.0	124.1	3.5
=	0.0	0.0	124.3	3.5
=	0.0	0.0	124.4	3.5
=	0.0	0.0	124.7	3.5
=	0.0	0.0	125.0	3.5
=	0.0	0.0	125.3	3.5
=	0.0	0.0	125.5	3.5
=	0.0	0.0	125.6	3.5
=	0.0	0.0	125.9	3.5
=	0.0	0.0	126.0	3.5
=	0.0	0.0	126.3	3.5
=	0.0	0.0	126.5	3.5
=	0.0	0.0	126.7	3.5
=	0.0	0.0	126.9	3.5
=	0.0	0.0	127.1	3.5
=	0.0	0.0	127.2	3.5
=	0.0	0.0	127.5	3.5
=	0.0	0.0	127.8	3.5
=	0.0	0.0	128.1	3.4
=	0.0	0.0	128.3	3.4
=	0.0	0.0	128.4	3.4
=	0.0	0.0	128.7	3.4
=	0.0	0.0	129.0	3.4
=	0.0	0.0	129.2	3.4
=	0.0	0.0	129.4	3.4
=	0.0	0.0	129.6	3.4
=	0.0	0.0	129.9	3.4
=	0.0	0.0	130.2	3.4
=	0.0	0.0	130.5	3.4
=	0.0	0.0	130.7	3.4
=	0.0	0.0	130.8	3.4
=	0.0	0.0	131.1	3.4
=	0.0	0.0	131.4	3.4
=	0.0	0.0	131.7	3.4
=	0.0	0.0	131.9	3.4
=	0.0	0.0	132.1	3.4
=	0.0	0.0	132.2	3.4
=	0.0	0.0	132.3	3.4
=	0.0	0.0	132.4	3.4
=	0.0	0.0	132.6	3.4
=	0.0	0.0	132.8	3.4
=	0.0	0.0	132.9	3.3
=	0.0	0.0	133.1	3.3
=	0.0	0.0	133.2	3.3
=	0.0	0.0	133.4	3.3
=	0.0	0.0	133.5	3.3
=	0.0	0.0	133.6	3.3
=	0.0	0.0	133.8	3.3
=	0.0	0.0	134.0	3.3
=	0.0	0.0	134.2	3.3
=	0.0	0.0	134.3	3.3
=	0.0	0.0	134.4	3.3
=	0.0	0.0	134.6	3.3
=	0.0	0.0	134.7	3.3
=	0.0	0.0	134.9	3.3
=	0.0	0.0	135.1	3.3
=	0.0	0.0	135.2	3.3
=	0.0	0.0	135.4	3.3
=	0.0	0.0	135.6	3.3
=	0.0	0.0	135.9	3.3
=	0.0	0.0	136.0	3.3
=	0.0	0.0	136.2	3.3
=	0.0	0.0	136.3	3.3
=	0.0	0.0	136.4	3.3
=	0.0	0.0	136.6	3.3
=	0.0	0.0	136.8	3.3
=	0.0	0.0	137.1	3.3
=	0.0	0.0	137.4	3.3
=	0.0	0.0	137.5	3.3
=	0.0	0.0	137.7	3.3
=	0.0	0.0	138.0	3.3
=	0.0	0.0	138.1	3.3
=	0.0	0.0	138.4	3.3
=	0.0	0.0	138.7	3.3
=	0.0	0.0	138.9	3.3
=	0.0	0.0	139.0	3.3
=	0.0	0.0	139.2	3.3
=	0.0	0.0	139.3	3.3
=	0.0	0.0	139.5	3.3
=	0.0	0.0	139.9	3.3
=	0.0	0.0	140.2	3.3
=	0.0	0.0	140.4	3.3
=	0.0	0.0	140.5	3.2
=	0.0	0.0	140.8	3.2
=	0.0	0.0	141.1	3.2
=	0.0	0.0	141.2	3.2
=	0.0	0.0	141.4	3.2
=	0.0	0.0	141.6	3.2
=	0.0	0.0	141.7	3.2
=	0.0	0.0	142.0	3.2
=	0.0	0.0	142.3	3.2
=	0.0	0.0	142.4	3.2
=	0.0	0.0	142.6	3.2
=	0.0	0.0	142.8	3.2
=	0.0	0.0	143.2	3.2
=	0.0	0.0	143.5	3.2
=	0.0	0.0	143.6	3.2
=	0.0	0.0	143.8	3.2
=	0.0	0.0	144.1	3.2
=	0.0	0.0	144.4	3.2
=	0.0	0.0	144.7	3.2
=	0.0	0.0	144.9	3.2
=	0.0	0.0	145.0	3.2
=	0.0	0.0	145.3	3.2
=	0.0	0.0	145.6	3.2
=	0.0	0.0	145.9	3.1
=	0.0	0.0	146.1	3.1
=	0.0	0.0	146.2	3.1
=	0.0	0.0	146.5	3.1
=	0.0	0.0	146.8	3.1
=	0.0	0.0	147.1	3.1
=	0.0	0.0	147.3	3.1
=	0.0	0.0	147.5	3.1
=	0.0	0.0	147.7	3.1
=	0.0	0.0	147.9	3.1
=	0.0	0.0	148.0	3.1
=	0.0	0.0	148.2	3.1
=	0.0	0.0	148.4	3.1
=	0.0	0.0	148.6	3.1
=	0.0	0.0	148.8	3.1
=	0.0	0.0	148.9	3.1
=	0.0	0.0	149.1	3.1
=	0.0	0.0	149.3	3.1
=	0.0	0.0	149.4	3.1
=	0.0	0.0	149.6	3.1
=	0.0	0.0	149.7	3.1
=	0.0	0.0	149.9	3.1
=	0.0	0.0	150.1	3.1
=	0.0	0.0	150.3	3.1
=	0.0	0.0	150.5	3.1
=	0.0	0.0	150.6	3.1
=	0.0	0.0	150.8	3.1
=	0.0	0.0	150.9	3.1
=	0.0	0.0	151.1	3.1
=	0.0	0.0	151.2	3.1
=	0.0	0.0	151.3	3.1
=	0.0	0.0	151.5	3.0
=	0.0	0.0	151.7	3.0
=	0.0	0.0	151.8	3.0
=	0.0	0.0	152.0	3.0
=	0.0	0.0	152.2	3.0
=	0.0	0.0	152.3	3.0
=	0.0	0.0	152.4	3.0
=	0.0	0.0	152.6	3.0
=	0.0	0.0	152.8	3.0
=	0.0	0.0	153.1	3.0
=	0.0	0.0	153.2	3.0
=	0.0	0.0	153.4	3.0
=	0.0	0.0	153.5	3.0
=	0.0	0.0	153.6	3.0
=	0.0	0.0	153.7	3.0
=	0.0	0.0	154.0	3.0
=	0.0	0.0	154.1	3.0
=	0.0	0.0	154.3	3.0
=	0.0	0.0	154.4	3.0
=	0.0	0.0	154.5	3.0
=	0.0	0.0	154.7	3.0
=	0.0	0.0	154.9	3.0
=	0.0	0.0	155.3	3.0
=	0.0	0.0	155.6	3.0
=	0.0	0.0	155.7	3.0
=	0.0	0.0	155.9	3.0
=	0.0	0.0	156.2	3.0
=	0.0	0.0	156.5	3.0
=	0.0	0.0	156.8	3.0
=	0.0	0.0	157.0	3.0
=	0.0	0.0	157.2	3.0
=	0.0	0.0	157.4	3.0
=	0.0	0.0	157.7	3.0
=	0.0	0.0	157.8	3.0
=	0.0	0.0	158.0	3.0
=	0.0	0.0	158.2	3.0
=	0.0	0.0	158.3	3.0
=	0.0	0.0	158.6	2.9
=	0.0	0.0	158.9	2.9
=	0.0	0.0	159.0	2.9
=	0.0	0.0	159.2	2.9
=	0.0	0.0	159.4	2.9
=	0.0	0.0	159.5	2.9
=	0.0	0.0	159.8	2.9
=	0.0	0.0	160.2	2.9
=	0.0	0.0	160.5	2.9
=	0.0	0.0	160.6	2.9
=	0.0	0.0	160.8	2.9
=	0.0	0.0	161.0	2.9
=	0.0	0.0	161.4	2.9
=	0.0	0.0	161.7	2.9
=	0.0	0.0	161.9	2.9
=	0.0	0.0	162.0	2.9
=	0.0	0.0	162.3	2.9
=	0.0	0.0	162.6	2.9
=	0.0	0.0	162.9	2.9
=	0.0	0.0	163.1	2.9
=	0.0	0.0	163.2	2.9
=	0.0	0.0	163.5	2.9
=	0.0	0.0	163.8	2.9
=	0.0	0.0	164.1	2.9
=	0.0	0.0	164.3	2.9
=	0.0	0.0	164.4	2.9
=	0.0	0.0	164.7	2.9
=	0.0	0.0	165.0	2.9
=	0.0	0.0	165.3	2.9
=	0.0	0.0	165.5	2.9
=	0.0	0.0	165.6	2.9
=	0.0	0.0	165.9	2.8
=	0.0	0.0	166.3	2.8
=	0.0	0.0	166.6	2.8
=	0.0	0.0	166.7	2.8
=	0.0	0.0	166.8	2.8
=	0.0	0.0	167.1	2.8
=	0.0	0.0	167.3	2.8
=	0.0	0.0	167.5	2.8
=	0.0	0.0	167.6	2.8
=	0.0	0.0	167.8	2.8
=	0.0	0.0	167.9	2.8
=	0.0	0.0	168.1	2.8
=	0.0	0.0	168.2	2.8
=	0.0	0.0	168.4	2.8
=	0.0	0.0	168.5	2.8
=	0.0	0.0	168.7	2.8
=	0.0	0.0	168.8	2.8
=	0.0	0.0	169.0	2.8
=	0.0	0.0	169.2	2.8
=	0.0	0.0	169.3	2.8
=	0.0	0.0	169.5	2.8
=	0.0	0.0	169.6	2.8
=	0.0	0.0	169.8	2.8
=	0.0	0.0	170.0	2.8
=	0.0	0.0	170.1	2.8
=	0.0	0.0	170.2	2.8
=	0.0	0.0	170.4	2.8
=	0.0	0.0	170.5	2.8
=	0.0	0.0	170.7	2.8
=	0.0	0.0	170.8	2.8
=	0.0	0.0	171.0	2.8
=	0.0	0.0	171.2	2.8
=	0.0	0.0	171.4	2.8
=	0.0	0.0	171.6	2.8
=	0.0	0.0	171.7	2.8
=	0.0	0.0	171.9	2.8
=	0.0	0.0	172.0	2.8
=	0.0	0.0	172.2	2.8
=	0.0	0.0	172.4	2.8
=	0.0	0.0	172.5	2.8
=	0.0	0.0	172.8	2.8
=	0.0	0.0	173.1	2.8
=	0.0	0.0	173.4	2.8
=	0.0	0.0	173.6	2.8
=	0.0	0.0	173.7	2.8
=	0.0	0.0	173.8	2.8
=	0.0	0.0	174.0	2.7
=	0.0	0.0	174.1	2.7
=	0.0	0.0	174.4	2.7
=	0.0	0.0	174.7	2.7
=	0.0	0.0	174.9	2.7
=	0.0	0.0	175.0	2.7
=	0.0	0.0	175.3	2.7
=	0.0	0.0	175.6	2.7
=	0.0	0.0	175.7	2.7
=	0.0	0.0	175.9	2.7
=	0.0	0.0	176.1	2.7
=	0.0	0.0	176.2	2.7
=	0.0	0.0	176.5	2.7
=	0.0	0.0	176.8	2.7
=	0.0	0.0	177.1	2.7
=	0.0	0.0	177.4	2.7
=	0.0	0.0	177.6	2.7
=	0.0	0.0	177.7	2.7
=	0.0	0.0	178.0	2.7
=	0.0	0.0	178.4	2.7
=	0.0	0.0	178.7	2.7
=	0.0	0.0	178.8	2.7
=	0.0	0.0	179.0	2.7
=	0.0	0.0	179.2	2.7
=	0.0	0.0	179.6	2.7
=	0.0	0.0	179.9	2.7
=	0.0	0.0	180.0	2.7
=	0.0	0.0	180.2	2.6
=	0.0	0.0	180.4	2.6
=	0.0	0.0	180.5	2.6
=	0.0	0.0	180.8	2.6
=	0.0	0.0	181.1	2.6
=	0.0	0.0	181.2	2.6
=	0.0	0.0	181.4	2.6
=	0.0	0.0	181.6	2.6
=	0.0	0.0	181.8	2.6
=	0.0	0.0	182.0	2.6
=	0.0	0.0	182.3	2.6
=	0.0	0.0	182.4	2.6
=	0.0	0.0	182.6	2.6
=	0.0	0.0	182.8	2.6
=	0.0	0.0	182.9	2.6
=	0.0	0.0	183.0	2.6
=	0.0	0.0	183.2	2.6
=	0.0	0.0	183.4	2.6
=	0.0	0.0	183.5	2.6
=	0.0	0.0	183.7	2.6
=	0.0	0.0	183.8	2.6
=	0.0	0.0	184.0	2.6
=	0.0	0.0	184.2	2.6
=	0.0	0.0	184.3	2.6
=	0.0	0.0	184.4	2.6
=	0.0	0.0	184.6	2.6
=	0.0	0.0	184.8	2.6
=	0.0	0.0	184.9	2.6
=	0.0	0.0	185.0	2.6
=	0.0	0.0	185.2	2.6
=	0.0	0.0	185.3	2.6
=	0.0	0.0	185.5	2.6
=	0.0	0.0	185.6	2.6
=	0.0	0.0	185.8	2.6
=	0.0	0.0	186.0	2.6
=	0.0	0.0	186.1	2.6
=	0.0	0.0	186.3	2.6
=	0.0	0.0	186.4	2.6
=	0.0	0.0	186.6	2.6
=	0.0	0.0	186.7	2.6
=	0.0	0.0	186.9	2.6
=	0.0	0.0	187.0	2.6
=	0.0	0.0	187.2	2.6
=	0.0	0.0	187.3	2.6
=	0.0	0.0	187.5	2.6
=	0.0	0.0	187.7	2.6
=	0.0	0.0	187.8	2.6
=	0.0	0.0	188.0	2.6
=	0.0	0.0	188.1	2.6
=	0.0	0.0	188.3	2.5
=	0.0	0.0	188.4	2.5
=	0.0	0.0	188.6	2.5
=	0.0	0.0	188.7	2.5
=	0.0	0.0	188.9	2.5
=	0.0	0.0	189.2	2.5
=	0.0	0.0	189.6	2.5
=	0.0	0.0	189.9	2.5
=	0.0	0.0	190.0	2.5
=	0.0	0.0	190.2	2.5
=	0.0	0.0	190.4	2.5
=	0.0	0.0	190.5	2.5
=	0.0	0.0	190.8	2.5
=	0.0	0.0	191.1	2.5
=	0.0	0.0	191.4	2.5
=	0.0	0.0	191.5	2.5
=	0.0	0.0	191.7	2.5
=	0.0	0.0	192.0	2.5
=	0.0	0.0	192.2	2.5
=	0.0	0.0	192.3	2.5
=	0.0	0.0	192.5	2.5
=	0.0	0.0	192.6	2.5
=	0.0	0.0	192.8	2.5
=	0.0	0.0	192.9	2.5
=	0.0	0.0	193.2	2.5
=	0.0	0.0	193.5	2.5
=	0.0	0.0	193.8	2.5
=	0.0	0.0	194.0	2.5
=	0.0	0.0	194.1	2.5
=	0.0	0.0	194.4	2.5
=	0.0	0.0	194.5	2.5
=	0.0	0.0	194.6	2.5
=	0.0	0.0	194.7	2.5
=	0.0	0.0	194.9	2.5
=	0.0	0.0	195.0	2.5
=	0.0	0.0	195.2	2.5
=	0.0	0.0	195.3	2.5
=	0.0	0.0	195.6	2.5
=	0.0	0.0	196.0	2.5
=	0.0	0.0	196.3	2.5
=	0.0	0.0	196.4	2.5
=	0.0	0.0	196.6	2.5
=	0.0	0.0	196.8	2.5
=	0.0	0.0	197.1	2.5
=	0.0	0.0	197.2	2.5
=	0.0	0.0	197.4	2.5
=	0.0	0.0	197.6	2.5
=	0.0	0.0	197.7	2.5
=	0.0	0.0	198.0	2.4
=	0.0	0.0	198.3	2.4
=	0.0	0.0	198.5	2.4
:EOM # End of Measurement

:EOF # End of File