:MSR 	1	 # No. of measurement in file
:SYS BDS 0   # Beam Data Scanner System
#
# RFA300 ASCII Measurement Dump ( BDS format )
#
# Measurement number 	1
#
%VNR 1.0
%MOD 	RAT
%TYP 	SCN
%SCN 	PRO
%FLD 	ION
%DAT 	10-12-2011
%TIM 	12:00:00
%FSZ 	400	400
%BMT 	ELE	   16.0
%SSD 	
%BUP 	0
%BRD 	
%FSH 	1
%ASC 	0
%WEG 	0
%GPO 	0
%CPO 	0
%MEA 	2
%PRD 	0,0
%PTS 	800
%STS 	    -236.5	  0.0	   0.0 # Start Scan values in mm ( X , Y , Z )
%EDS 	    236.5	   0.0	   0.0 # End Scan values in mm ( X , Y , Z )
#
#	  X      Y      Z     Dose
#
=	-236.5	0.0	0.0	3.3
=	-236.1	0.0	0.0	3.4
=	-235.6	0.0	0.0	3.5
=	-235.1	0.0	0.0	3.6
=	-234.6	0.0	0.0	3.6
=	-234.0	0.0	0.0	3.7
=	-233.6	0.0	0.0	3.8
=	-233.1	0.0	0.0	3.9
=	-232.6	0.0	0.0	4.0
=	-231.9	0.0	0.0	4.1
=	-231.3	0.0	0.0	4.2
=	-230.7	0.0	0.0	4.4
=	-230.1	0.0	0.0	4.5
=	-229.5	0.0	0.0	4.7
=	-228.9	0.0	0.0	4.8
=	-228.4	0.0	0.0	5.0
=	-227.7	0.0	0.0	5.2
=	-227.1	0.0	0.0	5.4
=	-226.6	0.0	0.0	5.6
=	-226.2	0.0	0.0	5.8
=	-225.8	0.0	0.0	6.0
=	-225.4	0.0	0.0	6.1
=	-224.9	0.0	0.0	6.3
=	-224.3	0.0	0.0	6.6
=	-223.7	0.0	0.0	7.0
=	-223.1	0.0	0.0	7.3
=	-222.7	0.0	0.0	7.6
=	-222.1	0.0	0.0	8.0
=	-221.4	0.0	0.0	8.4
=	-220.9	0.0	0.0	8.9
=	-220.2	0.0	0.0	9.3
=	-219.7	0.0	0.0	9.8
=	-219.0	0.0	0.0	10.5
=	-218.5	0.0	0.0	11.0
=	-217.8	0.0	0.0	11.7
=	-217.2	0.0	0.0	12.3
=	-216.6	0.0	0.0	13.0
=	-216.0	0.0	0.0	13.8
=	-215.4	0.0	0.0	14.5
=	-214.8	0.0	0.0	15.3
=	-214.2	0.0	0.0	16.2
=	-213.6	0.0	0.0	17.1
=	-213.0	0.0	0.0	18.1
=	-212.4	0.0	0.0	19.1
=	-211.8	0.0	0.0	20.1
=	-211.2	0.0	0.0	21.1
=	-210.6	0.0	0.0	22.2
=	-210.2	0.0	0.0	23.0
=	-209.8	0.0	0.0	23.8
=	-209.4	0.0	0.0	24.5
=	-208.9	0.0	0.0	25.4
=	-208.3	0.0	0.0	26.6
=	-207.8	0.0	0.0	27.7
=	-207.4	0.0	0.0	28.6
=	-207.0	0.0	0.0	29.4
=	-206.5	0.0	0.0	30.4
=	-205.9	0.0	0.0	31.6
=	-205.3	0.0	0.0	32.9
=	-204.7	0.0	0.0	34.2
=	-204.1	0.0	0.0	35.5
=	-203.5	0.0	0.0	36.8
=	-203.1	0.0	0.0	37.8
=	-202.6	0.0	0.0	38.9
=	-202.0	0.0	0.0	40.1
=	-201.5	0.0	0.0	41.2
=	-201.1	0.0	0.0	42.1
=	-200.5	0.0	0.0	43.4
=	-199.9	0.0	0.0	44.5
=	-199.3	0.0	0.0	45.8
=	-198.7	0.0	0.0	46.9
=	-198.1	0.0	0.0	48.1
=	-197.5	0.0	0.0	49.2
=	-196.9	0.0	0.0	50.4
=	-196.3	0.0	0.0	51.4
=	-195.7	0.0	0.0	52.5
=	-195.1	0.0	0.0	53.5
=	-194.6	0.0	0.0	54.3
=	-194.1	0.0	0.0	55.2
=	-193.5	0.0	0.0	56.1
=	-192.8	0.0	0.0	57.1
=	-192.2	0.0	0.0	58.0
=	-191.6	0.0	0.0	58.9
=	-191.0	0.0	0.0	59.7
=	-190.4	0.0	0.0	60.5
=	-189.8	0.0	0.0	61.2
=	-189.2	0.0	0.0	62.0
=	-188.8	0.0	0.0	62.5
=	-188.2	0.0	0.0	63.2
=	-187.6	0.0	0.0	63.9
=	-187.0	0.0	0.0	64.6
=	-186.4	0.0	0.0	65.3
=	-185.8	0.0	0.0	65.9
=	-185.2	0.0	0.0	66.6
=	-184.6	0.0	0.0	67.2
=	-184.1	0.0	0.0	67.7
=	-183.7	0.0	0.0	68.1
=	-183.3	0.0	0.0	68.5
=	-182.8	0.0	0.0	69.0
=	-182.1	0.0	0.0	69.7
=	-181.5	0.0	0.0	70.3
=	-180.9	0.0	0.0	70.8
=	-180.3	0.0	0.0	71.4
=	-179.7	0.0	0.0	71.9
=	-179.1	0.0	0.0	72.5
=	-178.7	0.0	0.0	72.9
=	-178.1	0.0	0.0	73.4
=	-177.5	0.0	0.0	73.9
=	-176.9	0.0	0.0	74.4
=	-176.3	0.0	0.0	75.0
=	-175.7	0.0	0.0	75.5
=	-175.1	0.0	0.0	76.0
=	-174.5	0.0	0.0	76.4
=	-174.1	0.0	0.0	76.7
=	-173.7	0.0	0.0	77.1
=	-173.1	0.0	0.0	77.6
=	-172.5	0.0	0.0	78.1
=	-171.9	0.0	0.0	78.6
=	-171.3	0.0	0.0	79.0
=	-170.7	0.0	0.0	79.4
=	-170.2	0.0	0.0	79.8
=	-169.7	0.0	0.0	80.2
=	-169.1	0.0	0.0	80.7
=	-168.6	0.0	0.0	81.0
=	-168.0	0.0	0.0	81.4
=	-167.4	0.0	0.0	81.9
=	-166.8	0.0	0.0	82.4
=	-166.2	0.0	0.0	82.8
=	-165.6	0.0	0.0	83.2
=	-165.0	0.0	0.0	83.6
=	-164.4	0.0	0.0	84.0
=	-163.8	0.0	0.0	84.4
=	-163.2	0.0	0.0	84.8
=	-162.6	0.0	0.0	85.2
=	-162.0	0.0	0.0	85.6
=	-161.4	0.0	0.0	86.0
=	-160.8	0.0	0.0	86.4
=	-160.2	0.0	0.0	86.8
=	-159.6	0.0	0.0	87.2
=	-159.0	0.0	0.0	87.5
=	-158.4	0.0	0.0	87.8
=	-157.8	0.0	0.0	88.2
=	-157.2	0.0	0.0	88.6
=	-156.6	0.0	0.0	88.9
=	-156.0	0.0	0.0	89.3
=	-155.6	0.0	0.0	89.5
=	-155.2	0.0	0.0	89.7
=	-154.7	0.0	0.0	89.9
=	-154.1	0.0	0.0	90.3
=	-153.5	0.0	0.0	90.6
=	-152.9	0.0	0.0	90.9
=	-152.3	0.0	0.0	91.2
=	-151.8	0.0	0.0	91.4
=	-151.4	0.0	0.0	91.7
=	-151.0	0.0	0.0	92.0
=	-150.6	0.0	0.0	92.2
=	-150.0	0.0	0.0	92.5
=	-149.5	0.0	0.0	92.8
=	-148.8	0.0	0.0	93.0
=	-148.3	0.0	0.0	93.3
=	-147.6	0.0	0.0	93.6
=	-147.0	0.0	0.0	93.8
=	-146.4	0.0	0.0	94.1
=	-145.9	0.0	0.0	94.4
=	-145.3	0.0	0.0	94.6
=	-144.7	0.0	0.0	94.8
=	-144.2	0.0	0.0	95.1
=	-143.5	0.0	0.0	95.4
=	-143.0	0.0	0.0	95.6
=	-142.1	0.0	0.0	95.9
=	-140.9	0.0	0.0	96.4
=	-140.0	0.0	0.0	96.7
=	-139.5	0.0	0.0	96.9
=	-138.8	0.0	0.0	97.2
=	-138.0	0.0	0.0	97.4
=	-136.8	0.0	0.0	97.9
=	-135.6	0.0	0.0	98.2
=	-134.4	0.0	0.0	98.6
=	-133.5	0.0	0.0	98.9
=	-132.9	0.0	0.0	99.0
=	-132.3	0.0	0.0	99.2
=	-131.7	0.0	0.0	99.4
=	-131.2	0.0	0.0	99.5
=	-130.5	0.0	0.0	99.7
=	-130.0	0.0	0.0	99.9
=	-129.3	0.0	0.0	100.1
=	-128.8	0.0	0.0	100.2
=	-128.1	0.0	0.0	100.3
=	-127.6	0.0	0.0	100.4
=	-126.8	0.0	0.0	100.5
=	-125.9	0.0	0.0	100.8
=	-125.0	0.0	0.0	101.0
=	-124.6	0.0	0.0	101.1
=	-124.1	0.0	0.0	101.2
=	-123.5	0.0	0.0	101.3
=	-122.9	0.0	0.0	101.4
=	-122.3	0.0	0.0	101.5
=	-121.9	0.0	0.0	101.6
=	-121.3	0.0	0.0	101.7
=	-120.7	0.0	0.0	101.7
=	-120.1	0.0	0.0	101.8
=	-119.5	0.0	0.0	101.9
=	-118.9	0.0	0.0	102.0
=	-118.4	0.0	0.0	102.1
=	-117.9	0.0	0.0	102.2
=	-117.5	0.0	0.0	102.2
=	-116.9	0.0	0.0	102.3
=	-116.4	0.0	0.0	102.3
=	-116.0	0.0	0.0	102.4
=	-115.6	0.0	0.0	102.4
=	-115.1	0.0	0.0	102.5
=	-114.7	0.0	0.0	102.5
=	-114.1	0.0	0.0	102.5
=	-113.5	0.0	0.0	102.6
=	-113.1	0.0	0.0	102.6
=	-112.6	0.0	0.0	102.6
=	-112.2	0.0	0.0	102.7
=	-111.8	0.0	0.0	102.8
=	-111.4	0.0	0.0	102.8
=	-110.9	0.0	0.0	102.9
=	-110.2	0.0	0.0	102.9
=	-109.8	0.0	0.0	102.9
=	-109.3	0.0	0.0	102.9
=	-108.9	0.0	0.0	102.9
=	-108.4	0.0	0.0	103.0
=	-107.8	0.0	0.0	103.0
=	-107.2	0.0	0.0	103.0
=	-106.6	0.0	0.0	103.0
=	-106.1	0.0	0.0	103.0
=	-105.6	0.0	0.0	103.0
=	-105.0	0.0	0.0	103.0
=	-104.4	0.0	0.0	103.1
=	-103.8	0.0	0.0	103.1
=	-103.2	0.0	0.0	103.1
=	-102.6	0.0	0.0	103.1
=	-102.0	0.0	0.0	103.1
=	-101.6	0.0	0.0	103.1
=	-101.1	0.0	0.0	103.1
=	-100.7	0.0	0.0	103.1
=	-100.1	0.0	0.0	103.1
=	-99.5	0.0	0.0	103.1
=	-98.9	0.0	0.0	103.1
=	-98.3	0.0	0.0	103.1
=	-97.7	0.0	0.0	103.0
=	-97.1	0.0	0.0	103.0
=	-96.4	0.0	0.0	103.0
=	-95.9	0.0	0.0	103.0
=	-95.0	0.0	0.0	103.0
=	-93.9	0.0	0.0	103.0
=	-93.0	0.0	0.0	102.9
=	-92.1	0.0	0.0	102.9
=	-91.2	0.0	0.0	102.9
=	-90.6	0.0	0.0	102.8
=	-90.0	0.0	0.0	102.8
=	-89.4	0.0	0.0	102.8
=	-88.8	0.0	0.0	102.7
=	-88.3	0.0	0.0	102.7
=	-87.7	0.0	0.0	102.7
=	-87.1	0.0	0.0	102.7
=	-86.5	0.0	0.0	102.6
=	-85.9	0.0	0.0	102.6
=	-85.2	0.0	0.0	102.6
=	-84.1	0.0	0.0	102.5
=	-82.8	0.0	0.0	102.4
=	-81.6	0.0	0.0	102.4
=	-80.4	0.0	0.0	102.3
=	-79.3	0.0	0.0	102.2
=	-78.6	0.0	0.0	102.2
=	-78.0	0.0	0.0	102.1
=	-77.2	0.0	0.0	102.1
=	-76.3	0.0	0.0	102.0
=	-75.7	0.0	0.0	102.0
=	-75.1	0.0	0.0	101.9
=	-74.5	0.0	0.0	101.9
=	-73.9	0.0	0.0	101.9
=	-73.4	0.0	0.0	101.8
=	-72.7	0.0	0.0	101.8
=	-72.1	0.0	0.0	101.8
=	-71.5	0.0	0.0	101.7
=	-70.9	0.0	0.0	101.6
=	-70.3	0.0	0.0	101.6
=	-69.7	0.0	0.0	101.5
=	-69.1	0.0	0.0	101.5
=	-68.4	0.0	0.0	101.5
=	-67.7	0.0	0.0	101.4
=	-67.1	0.0	0.0	101.4
=	-66.5	0.0	0.0	101.4
=	-65.5	0.0	0.0	101.3
=	-64.8	0.0	0.0	101.3
=	-64.2	0.0	0.0	101.2
=	-63.6	0.0	0.0	101.2
=	-63.0	0.0	0.0	101.2
=	-62.4	0.0	0.0	101.1
=	-61.8	0.0	0.0	101.1
=	-61.2	0.0	0.0	101.1
=	-60.5	0.0	0.0	101.0
=	-60.0	0.0	0.0	101.0
=	-59.3	0.0	0.0	101.0
=	-58.7	0.0	0.0	101.0
=	-58.1	0.0	0.0	100.9
=	-57.5	0.0	0.0	100.9
=	-57.0	0.0	0.0	100.9
=	-56.5	0.0	0.0	100.8
=	-56.1	0.0	0.0	100.8
=	-55.7	0.0	0.0	100.8
=	-55.1	0.0	0.0	100.7
=	-54.4	0.0	0.0	100.7
=	-53.8	0.0	0.0	100.7
=	-53.1	0.0	0.0	100.6
=	-52.4	0.0	0.0	100.6
=	-51.6	0.0	0.0	100.6
=	-51.0	0.0	0.0	100.6
=	-50.4	0.0	0.0	100.5
=	-49.8	0.0	0.0	100.5
=	-49.2	0.0	0.0	100.5
=	-48.6	0.0	0.0	100.5
=	-47.9	0.0	0.0	100.5
=	-47.3	0.0	0.0	100.4
=	-46.7	0.0	0.0	100.4
=	-46.1	0.0	0.0	100.4
=	-45.5	0.0	0.0	100.3
=	-44.9	0.0	0.0	100.3
=	-44.3	0.0	0.0	100.3
=	-43.7	0.0	0.0	100.3
=	-43.1	0.0	0.0	100.3
=	-42.5	0.0	0.0	100.3
=	-41.9	0.0	0.0	100.3
=	-41.3	0.0	0.0	100.3
=	-40.7	0.0	0.0	100.3
=	-40.1	0.0	0.0	100.2
=	-39.5	0.0	0.0	100.2
=	-39.0	0.0	0.0	100.2
=	-38.5	0.0	0.0	100.2
=	-37.9	0.0	0.0	100.2
=	-37.3	0.0	0.0	100.1
=	-36.7	0.0	0.0	100.1
=	-36.1	0.0	0.0	100.1
=	-35.5	0.0	0.0	100.1
=	-34.8	0.0	0.0	100.1
=	-34.2	0.0	0.0	100.1
=	-33.7	0.0	0.0	100.1
=	-33.0	0.0	0.0	100.1
=	-32.4	0.0	0.0	100.1
=	-31.8	0.0	0.0	100.0
=	-31.2	0.0	0.0	100.0
=	-30.6	0.0	0.0	100.0
=	-30.1	0.0	0.0	100.0
=	-29.6	0.0	0.0	100.0
=	-29.0	0.0	0.0	100.0
=	-28.4	0.0	0.0	100.0
=	-27.8	0.0	0.0	100.0
=	-27.2	0.0	0.0	100.0
=	-26.6	0.0	0.0	100.0
=	-26.0	0.0	0.0	100.0
=	-25.6	0.0	0.0	100.0
=	-25.1	0.0	0.0	100.0
=	-24.6	0.0	0.0	100.0
=	-23.9	0.0	0.0	100.0
=	-23.4	0.0	0.0	100.0
=	-22.7	0.0	0.0	100.0
=	-22.2	0.0	0.0	100.0
=	-21.8	0.0	0.0	100.0
=	-21.3	0.0	0.0	100.0
=	-20.7	0.0	0.0	100.0
=	-20.2	0.0	0.0	100.0
=	-19.8	0.0	0.0	100.0
=	-19.3	0.0	0.0	100.0
=	-18.7	0.0	0.0	100.0
=	-18.1	0.0	0.0	100.0
=	-17.5	0.0	0.0	100.0
=	-16.9	0.0	0.0	100.0
=	-16.3	0.0	0.0	100.0
=	-15.7	0.0	0.0	100.0
=	-15.1	0.0	0.0	100.0
=	-14.5	0.0	0.0	100.0
=	-13.9	0.0	0.0	100.0
=	-13.3	0.0	0.0	100.0
=	-12.7	0.0	0.0	100.0
=	-12.1	0.0	0.0	100.0
=	-11.4	0.0	0.0	100.0
=	-10.9	0.0	0.0	100.0
=	-10.2	0.0	0.0	100.0
=	-9.6	0.0	0.0	100.0
=	-9.0	0.0	0.0	100.0
=	-8.5	0.0	0.0	100.0
=	-8.1	0.0	0.0	100.0
=	-7.6	0.0	0.0	100.0
=	-7.0	0.0	0.0	100.0
=	-6.5	0.0	0.0	100.0
=	-6.0	0.0	0.0	100.0
=	-5.4	0.0	0.0	100.0
=	-5.0	0.0	0.0	100.0
=	-4.6	0.0	0.0	100.0
=	-4.0	0.0	0.0	100.0
=	-3.4	0.0	0.0	100.0
=	-2.8	0.0	0.0	100.0
=	-2.4	0.0	0.0	100.0
=	-2.0	0.0	0.0	100.0
=	-1.4	0.0	0.0	100.0
=	-0.8	0.0	0.0	100.0
=	-0.4	0.0	0.0	100.0
=	0.0	0.0	0.0	100.0
=	0.2	0.0	0.0	100.0
=	0.8	0.0	0.0	100.0
=	1.2	0.0	0.0	100.0
=	1.8	0.0	0.0	100.0
=	2.3	0.0	0.0	100.0
=	2.8	0.0	0.0	100.0
=	3.5	0.0	0.0	100.0
=	4.1	0.0	0.0	100.0
=	4.7	0.0	0.0	100.0
=	5.3	0.0	0.0	100.0
=	5.8	0.0	0.0	100.0
=	6.2	0.0	0.0	100.0
=	6.7	0.0	0.0	100.0
=	7.2	0.0	0.0	100.0
=	7.5	0.0	0.0	100.0
=	7.9	0.0	0.0	100.0
=	8.4	0.0	0.0	100.0
=	9.0	0.0	0.0	100.0
=	9.6	0.0	0.0	100.0
=	10.2	0.0	0.0	100.0
=	10.8	0.0	0.0	100.1
=	11.4	0.0	0.0	100.1
=	12.1	0.0	0.0	100.1
=	12.6	0.0	0.0	100.1
=	13.3	0.0	0.0	100.1
=	13.9	0.0	0.0	100.1
=	14.5	0.0	0.0	100.1
=	15.1	0.0	0.0	100.1
=	15.7	0.0	0.0	100.1
=	16.3	0.0	0.0	100.1
=	16.8	0.0	0.0	100.1
=	17.3	0.0	0.0	100.0
=	17.9	0.0	0.0	100.0
=	18.5	0.0	0.0	100.1
=	19.0	0.0	0.0	100.1
=	19.5	0.0	0.0	100.1
=	20.1	0.0	0.0	100.1
=	20.7	0.0	0.0	100.1
=	21.3	0.0	0.0	100.1
=	21.8	0.0	0.0	100.1
=	22.3	0.0	0.0	100.1
=	22.9	0.0	0.0	100.1
=	23.5	0.0	0.0	100.1
=	24.1	0.0	0.0	100.1
=	24.7	0.0	0.0	100.1
=	25.3	0.0	0.0	100.1
=	26.0	0.0	0.0	100.1
=	26.6	0.0	0.0	100.1
=	27.2	0.0	0.0	100.1
=	27.8	0.0	0.0	100.2
=	28.4	0.0	0.0	100.2
=	29.0	0.0	0.0	100.2
=	29.6	0.0	0.0	100.2
=	30.1	0.0	0.0	100.2
=	30.6	0.0	0.0	100.2
=	31.2	0.0	0.0	100.2
=	31.8	0.0	0.0	100.2
=	32.4	0.0	0.0	100.2
=	33.0	0.0	0.0	100.2
=	33.6	0.0	0.0	100.3
=	34.2	0.0	0.0	100.3
=	34.8	0.0	0.0	100.3
=	35.4	0.0	0.0	100.3
=	36.0	0.0	0.0	100.3
=	36.6	0.0	0.0	100.3
=	37.3	0.0	0.0	100.3
=	37.8	0.0	0.0	100.3
=	38.4	0.0	0.0	100.4
=	39.0	0.0	0.0	100.4
=	39.5	0.0	0.0	100.4
=	40.0	0.0	0.0	100.4
=	40.4	0.0	0.0	100.4
=	40.9	0.0	0.0	100.4
=	41.5	0.0	0.0	100.4
=	42.1	0.0	0.0	100.4
=	42.7	0.0	0.0	100.5
=	43.3	0.0	0.0	100.5
=	43.9	0.0	0.0	100.5
=	44.5	0.0	0.0	100.5
=	45.1	0.0	0.0	100.5
=	45.7	0.0	0.0	100.5
=	46.3	0.0	0.0	100.6
=	46.9	0.0	0.0	100.6
=	47.5	0.0	0.0	100.7
=	48.2	0.0	0.0	100.7
=	48.7	0.0	0.0	100.7
=	49.1	0.0	0.0	100.7
=	49.7	0.0	0.0	100.7
=	50.2	0.0	0.0	100.8
=	50.6	0.0	0.0	100.8
=	51.2	0.0	0.0	100.8
=	51.8	0.0	0.0	100.8
=	52.4	0.0	0.0	100.8
=	53.0	0.0	0.0	100.8
=	53.6	0.0	0.0	100.9
=	54.2	0.0	0.0	100.9
=	54.7	0.0	0.0	100.9
=	55.2	0.0	0.0	101.0
=	55.9	0.0	0.0	101.0
=	56.4	0.0	0.0	101.0
=	57.1	0.0	0.0	101.1
=	57.6	0.0	0.0	101.1
=	58.3	0.0	0.0	101.1
=	58.9	0.0	0.0	101.2
=	59.5	0.0	0.0	101.2
=	60.1	0.0	0.0	101.2
=	60.8	0.0	0.0	101.3
=	61.4	0.0	0.0	101.3
=	62.0	0.0	0.0	101.4
=	62.6	0.0	0.0	101.4
=	63.2	0.0	0.0	101.4
=	63.8	0.0	0.0	101.5
=	64.4	0.0	0.0	101.5
=	65.0	0.0	0.0	101.6
=	65.7	0.0	0.0	101.6
=	66.3	0.0	0.0	101.6
=	66.8	0.0	0.0	101.6
=	67.7	0.0	0.0	101.7
=	68.7	0.0	0.0	101.7
=	69.9	0.0	0.0	101.8
=	71.0	0.0	0.0	101.9
=	71.8	0.0	0.0	101.9
=	72.7	0.0	0.0	102.0
=	73.8	0.0	0.0	102.1
=	74.6	0.0	0.0	102.1
=	75.2	0.0	0.0	102.2
=	75.8	0.0	0.0	102.2
=	76.4	0.0	0.0	102.3
=	77.0	0.0	0.0	102.3
=	77.6	0.0	0.0	102.3
=	78.2	0.0	0.0	102.4
=	78.7	0.0	0.0	102.4
=	79.4	0.0	0.0	102.4
=	80.0	0.0	0.0	102.5
=	80.6	0.0	0.0	102.5
=	81.1	0.0	0.0	102.6
=	81.9	0.0	0.0	102.6
=	82.5	0.0	0.0	102.6
=	83.1	0.0	0.0	102.7
=	83.8	0.0	0.0	102.7
=	84.6	0.0	0.0	102.8
=	85.5	0.0	0.0	102.8
=	86.4	0.0	0.0	102.8
=	87.4	0.0	0.0	102.9
=	88.0	0.0	0.0	102.9
=	88.6	0.0	0.0	102.9
=	89.5	0.0	0.0	103.0
=	90.5	0.0	0.0	103.0
=	91.7	0.0	0.0	103.1
=	92.9	0.0	0.0	103.2
=	93.9	0.0	0.0	103.2
=	94.5	0.0	0.0	103.2
=	95.4	0.0	0.0	103.2
=	96.4	0.0	0.0	103.2
=	97.1	0.0	0.0	103.3
=	97.7	0.0	0.0	103.3
=	98.3	0.0	0.0	103.3
=	98.9	0.0	0.0	103.3
=	99.5	0.0	0.0	103.3
=	100.1	0.0	0.0	103.3
=	100.7	0.0	0.0	103.3
=	101.3	0.0	0.0	103.3
=	101.9	0.0	0.0	103.3
=	102.5	0.0	0.0	103.3
=	103.1	0.0	0.0	103.3
=	103.8	0.0	0.0	103.3
=	104.4	0.0	0.0	103.2
=	105.0	0.0	0.0	103.2
=	105.6	0.0	0.0	103.2
=	106.0	0.0	0.0	103.2
=	106.6	0.0	0.0	103.2
=	107.2	0.0	0.0	103.2
=	107.8	0.0	0.0	103.1
=	108.3	0.0	0.0	103.1
=	108.7	0.0	0.0	103.1
=	109.2	0.0	0.0	103.1
=	109.6	0.0	0.0	103.1
=	110.1	0.0	0.0	103.0
=	110.6	0.0	0.0	103.0
=	111.3	0.0	0.0	103.0
=	111.7	0.0	0.0	102.9
=	112.1	0.0	0.0	102.9
=	112.5	0.0	0.0	102.8
=	112.9	0.0	0.0	102.8
=	113.3	0.0	0.0	102.8
=	113.9	0.0	0.0	102.8
=	114.5	0.0	0.0	102.7
=	114.9	0.0	0.0	102.6
=	115.3	0.0	0.0	102.6
=	115.7	0.0	0.0	102.5
=	116.2	0.0	0.0	102.5
=	116.6	0.0	0.0	102.4
=	117.1	0.0	0.0	102.4
=	117.5	0.0	0.0	102.3
=	117.9	0.0	0.0	102.3
=	118.3	0.0	0.0	102.2
=	118.7	0.0	0.0	102.2
=	119.1	0.0	0.0	102.1
=	119.5	0.0	0.0	102.1
=	120.0	0.0	0.0	102.0
=	120.6	0.0	0.0	101.9
=	121.2	0.0	0.0	101.8
=	121.7	0.0	0.0	101.8
=	122.1	0.0	0.0	101.7
=	122.7	0.0	0.0	101.6
=	123.5	0.0	0.0	101.5
=	124.1	0.0	0.0	101.4
=	124.7	0.0	0.0	101.2
=	125.4	0.0	0.0	101.1
=	126.0	0.0	0.0	100.9
=	126.6	0.0	0.0	100.8
=	127.3	0.0	0.0	100.6
=	128.3	0.0	0.0	100.5
=	129.0	0.0	0.0	100.3
=	129.8	0.0	0.0	100.1
=	130.7	0.0	0.0	99.9
=	131.5	0.0	0.0	99.7
=	132.3	0.0	0.0	99.5
=	133.2	0.0	0.0	99.2
=	134.1	0.0	0.0	99.0
=	135.2	0.0	0.0	98.6
=	136.0	0.0	0.0	98.4
=	136.6	0.0	0.0	98.2
=	137.2	0.0	0.0	98.0
=	137.8	0.0	0.0	97.8
=	138.4	0.0	0.0	97.6
=	139.0	0.0	0.0	97.4
=	139.7	0.0	0.0	97.1
=	140.9	0.0	0.0	96.6
=	141.7	0.0	0.0	96.4
=	142.4	0.0	0.0	96.1
=	142.9	0.0	0.0	95.9
=	143.3	0.0	0.0	95.7
=	143.7	0.0	0.0	95.6
=	144.1	0.0	0.0	95.4
=	144.5	0.0	0.0	95.2
=	145.1	0.0	0.0	95.0
=	145.6	0.0	0.0	94.8
=	146.0	0.0	0.0	94.7
=	146.4	0.0	0.0	94.5
=	147.0	0.0	0.0	94.1
=	147.5	0.0	0.0	93.9
=	148.0	0.0	0.0	93.7
=	148.5	0.0	0.0	93.5
=	149.0	0.0	0.0	93.2
=	149.4	0.0	0.0	93.1
=	149.8	0.0	0.0	92.9
=	150.3	0.0	0.0	92.6
=	150.7	0.0	0.0	92.3
=	151.2	0.0	0.0	92.1
=	151.9	0.0	0.0	91.8
=	152.5	0.0	0.0	91.5
=	153.1	0.0	0.0	91.2
=	153.7	0.0	0.0	90.9
=	154.3	0.0	0.0	90.5
=	154.9	0.0	0.0	90.3
=	155.5	0.0	0.0	89.9
=	156.1	0.0	0.0	89.6
=	156.7	0.0	0.0	89.3
=	157.1	0.0	0.0	89.0
=	157.7	0.0	0.0	88.7
=	158.3	0.0	0.0	88.3
=	159.0	0.0	0.0	87.9
=	159.6	0.0	0.0	87.6
=	160.2	0.0	0.0	87.2
=	160.8	0.0	0.0	86.8
=	161.4	0.0	0.0	86.4
=	162.0	0.0	0.0	86.0
=	162.6	0.0	0.0	85.6
=	163.2	0.0	0.0	85.2
=	163.8	0.0	0.0	84.8
=	164.4	0.0	0.0	84.5
=	165.0	0.0	0.0	84.1
=	165.6	0.0	0.0	83.6
=	166.2	0.0	0.0	83.3
=	166.8	0.0	0.0	82.8
=	167.4	0.0	0.0	82.4
=	168.0	0.0	0.0	81.9
=	168.6	0.0	0.0	81.5
=	169.2	0.0	0.0	81.1
=	169.8	0.0	0.0	80.6
=	170.4	0.0	0.0	80.1
=	171.1	0.0	0.0	79.7
=	171.7	0.0	0.0	79.2
=	172.3	0.0	0.0	78.8
=	172.8	0.0	0.0	78.3
=	173.3	0.0	0.0	77.9
=	173.9	0.0	0.0	77.4
=	174.4	0.0	0.0	77.0
=	175.1	0.0	0.0	76.4
=	175.7	0.0	0.0	75.9
=	176.3	0.0	0.0	75.4
=	176.9	0.0	0.0	74.8
=	177.5	0.0	0.0	74.3
=	178.1	0.0	0.0	73.9
=	178.7	0.0	0.0	73.3
=	179.3	0.0	0.0	72.8
=	179.9	0.0	0.0	72.2
=	180.5	0.0	0.0	71.6
=	181.1	0.0	0.0	71.1
=	181.8	0.0	0.0	70.5
=	182.3	0.0	0.0	69.9
=	182.9	0.0	0.0	69.3
=	183.5	0.0	0.0	68.7
=	184.2	0.0	0.0	68.0
=	184.7	0.0	0.0	67.4
=	185.4	0.0	0.0	66.8
=	186.0	0.0	0.0	66.1
=	186.6	0.0	0.0	65.4
=	187.1	0.0	0.0	64.7
=	187.8	0.0	0.0	63.9
=	188.4	0.0	0.0	63.3
=	189.0	0.0	0.0	62.5
=	189.6	0.0	0.0	61.8
=	190.2	0.0	0.0	60.9
=	190.8	0.0	0.0	60.1
=	191.4	0.0	0.0	59.3
=	191.9	0.0	0.0	58.5
=	192.3	0.0	0.0	57.9
=	192.7	0.0	0.0	57.3
=	193.1	0.0	0.0	56.7
=	193.5	0.0	0.0	56.0
=	194.0	0.0	0.0	55.2
=	194.6	0.0	0.0	54.2
=	195.2	0.0	0.0	53.2
=	195.8	0.0	0.0	52.2
=	196.5	0.0	0.0	51.1
=	197.1	0.0	0.0	49.9
=	197.6	0.0	0.0	48.8
=	198.2	0.0	0.0	47.7
=	198.9	0.0	0.0	46.4
=	199.5	0.0	0.0	45.2
=	200.1	0.0	0.0	44.0
=	200.7	0.0	0.0	42.7
=	201.3	0.0	0.0	41.4
=	201.9	0.0	0.0	40.2
=	202.5	0.0	0.0	38.9
=	203.1	0.0	0.0	37.5
=	203.6	0.0	0.0	36.4
=	204.1	0.0	0.0	35.3
=	204.7	0.0	0.0	34.0
=	205.3	0.0	0.0	32.6
=	205.9	0.0	0.0	31.4
=	206.5	0.0	0.0	30.1
=	207.0	0.0	0.0	29.1
=	207.4	0.0	0.0	28.3
=	207.8	0.0	0.0	27.5
=	208.2	0.0	0.0	26.7
=	208.6	0.0	0.0	25.9
=	209.0	0.0	0.0	25.0
=	209.4	0.0	0.0	24.2
=	209.8	0.0	0.0	23.5
=	210.2	0.0	0.0	22.7
=	210.6	0.0	0.0	22.0
=	211.1	0.0	0.0	21.0
=	211.5	0.0	0.0	20.3
=	211.9	0.0	0.0	19.6
=	212.4	0.0	0.0	18.9
=	212.8	0.0	0.0	18.1
=	213.4	0.0	0.0	17.2
=	214.0	0.0	0.0	16.3
=	214.6	0.0	0.0	15.4
=	215.2	0.0	0.0	14.6
=	215.8	0.0	0.0	13.8
=	216.3	0.0	0.0	13.2
=	216.6	0.0	0.0	12.7
=	217.2	0.0	0.0	12.1
=	217.8	0.0	0.0	11.4
=	218.4	0.0	0.0	10.8
=	219.0	0.0	0.0	10.2
=	219.7	0.0	0.0	9.6
=	220.2	0.0	0.0	9.2
=	220.9	0.0	0.0	8.7
=	221.4	0.0	0.0	8.2
=	222.1	0.0	0.0	7.8
=	222.6	0.0	0.0	7.4
=	223.3	0.0	0.0	7.1
=	223.9	0.0	0.0	6.7
=	224.5	0.0	0.0	6.4
=	225.1	0.0	0.0	6.1
=	225.7	0.0	0.0	5.9
=	226.3	0.0	0.0	5.6
=	226.9	0.0	0.0	5.4
=	227.5	0.0	0.0	5.2
=	228.1	0.0	0.0	5.0
=	228.7	0.0	0.0	4.8
=	229.3	0.0	0.0	4.6
=	229.9	0.0	0.0	4.4
=	230.5	0.0	0.0	4.3
=	231.1	0.0	0.0	4.2
=	231.7	0.0	0.0	4.0
=	232.3	0.0	0.0	3.9
=	232.9	0.0	0.0	3.8
=	233.5	0.0	0.0	3.7
=	234.1	0.0	0.0	3.6
=	234.7	0.0	0.0	3.5
=	235.3	0.0	0.0	3.5
=	235.9	0.0	0.0	3.4
=	236.5	0.0	0.0	3.3
:EOM # End of Measurement

:EOF # End of File