:MSR 	1	 # No. of measurement in file
:SYS BDS 0   # Beam Data Scanner System
#
# RFA300 ASCII Measurement Dump ( BDS format )
#
# Measurement number 	1
#
%VNR 1.0
%MOD 	RAT
%TYP 	SCN
%SCN 	DPT
%FLD 	ION
%DAT 	10-06-2011
%TIM 	12:00:00
%FSZ 	200	200
%BMT 	ELE	   16.0
%SSD 	1000
%BUP 	0
%BRD 	1000
%FSH 	1
%ASC 	0
%WEG 	0
%GPO 	0
%CPO 	0
%MEA 	1
%PRD 	0,0
%PTS 	497
%STS 	    0.0	  0.0	   0.0 # Start Scan values in mm ( X , Y , Z )
%EDS 	    0.0	   0.0	   198.4 # End Scan values in mm ( X , Y , Z )
#
#	  X      Y      Z     Dose
#
=	0.0	0.0	0.0	91.4
=	0.0	0.0	0.1	91.4
=	0.0	0.0	0.5	91.7
=	0.0	0.0	0.9	92.0
=	0.0	0.0	1.3	92.2
=	0.0	0.0	1.7	92.5
=	0.0	0.0	2.1	92.9
=	0.0	0.0	2.5	93.2
=	0.0	0.0	2.9	93.6
=	0.0	0.0	3.3	94.0
=	0.0	0.0	3.7	94.4
=	0.0	0.0	4.1	94.7
=	0.0	0.0	4.5	94.9
=	0.0	0.0	4.9	95.2
=	0.0	0.0	5.3	95.4
=	0.0	0.0	5.7	95.6
=	0.0	0.0	6.1	95.8
=	0.0	0.0	6.5	95.9
=	0.0	0.0	6.9	96.1
=	0.0	0.0	7.3	96.3
=	0.0	0.0	7.7	96.5
=	0.0	0.0	8.1	96.6
=	0.0	0.0	8.5	96.8
=	0.0	0.0	8.9	96.9
=	0.0	0.0	9.3	97.0
=	0.0	0.0	9.7	97.1
=	0.0	0.0	10.1	97.3
=	0.0	0.0	10.5	97.4
=	0.0	0.0	10.9	97.5
=	0.0	0.0	11.3	97.6
=	0.0	0.0	11.7	97.7
=	0.0	0.0	12.1	97.8
=	0.0	0.0	12.5	97.8
=	0.0	0.0	12.9	97.9
=	0.0	0.0	13.3	98.0
=	0.0	0.0	13.7	98.1
=	0.0	0.0	14.1	98.2
=	0.0	0.0	14.5	98.3
=	0.0	0.0	14.9	98.3
=	0.0	0.0	15.3	98.4
=	0.0	0.0	15.7	98.5
=	0.0	0.0	16.1	98.5
=	0.0	0.0	16.5	98.6
=	0.0	0.0	16.9	98.7
=	0.0	0.0	17.4	98.8
=	0.0	0.0	17.8	98.8
=	0.0	0.0	18.2	98.9
=	0.0	0.0	18.6	98.9
=	0.0	0.0	19.0	99.0
=	0.0	0.0	19.4	99.0
=	0.0	0.0	19.8	99.1
=	0.0	0.0	20.2	99.2
=	0.0	0.0	20.6	99.2
=	0.0	0.0	21.0	99.3
=	0.0	0.0	21.4	99.3
=	0.0	0.0	21.8	99.4
=	0.0	0.0	22.2	99.4
=	0.0	0.0	22.6	99.4
=	0.0	0.0	23.0	99.5
=	0.0	0.0	23.4	99.5
=	0.0	0.0	23.8	99.6
=	0.0	0.0	24.2	99.6
=	0.0	0.0	24.6	99.6
=	0.0	0.0	25.0	99.7
=	0.0	0.0	25.4	99.7
=	0.0	0.0	25.8	99.8
=	0.0	0.0	26.2	99.8
=	0.0	0.0	26.6	99.8
=	0.0	0.0	27.0	99.8
=	0.0	0.0	27.4	99.9
=	0.0	0.0	27.8	99.9
=	0.0	0.0	28.2	99.9
=	0.0	0.0	28.6	99.9
=	0.0	0.0	29.0	100.0
=	0.0	0.0	29.4	100.0
=	0.0	0.0	29.8	100.0
=	0.0	0.0	30.2	100.0
=	0.0	0.0	30.6	100.0
=	0.0	0.0	31.0	100.0
=	0.0	0.0	31.4	100.0
=	0.0	0.0	31.8	100.0
=	0.0	0.0	32.2	100.0
=	0.0	0.0	32.6	99.9
=	0.0	0.0	33.0	99.9
=	0.0	0.0	33.4	99.9
=	0.0	0.0	33.8	99.9
=	0.0	0.0	34.2	99.8
=	0.0	0.0	34.6	99.8
=	0.0	0.0	35.0	99.8
=	0.0	0.0	35.4	99.7
=	0.0	0.0	35.8	99.7
=	0.0	0.0	36.2	99.6
=	0.0	0.0	36.6	99.5
=	0.0	0.0	37.0	99.5
=	0.0	0.0	37.4	99.5
=	0.0	0.0	37.8	99.3
=	0.0	0.0	38.2	99.2
=	0.0	0.0	38.6	99.1
=	0.0	0.0	39.0	99.0
=	0.0	0.0	39.4	98.9
=	0.0	0.0	39.8	98.8
=	0.0	0.0	40.2	98.7
=	0.0	0.0	40.6	98.5
=	0.0	0.0	41.0	98.4
=	0.0	0.0	41.4	98.2
=	0.0	0.0	41.8	98.0
=	0.0	0.0	42.2	97.8
=	0.0	0.0	42.6	97.5
=	0.0	0.0	43.0	97.3
=	0.0	0.0	43.4	97.0
=	0.0	0.0	43.8	96.8
=	0.0	0.0	44.2	96.6
=	0.0	0.0	44.6	96.3
=	0.0	0.0	45.0	96.0
=	0.0	0.0	45.4	95.7
=	0.0	0.0	45.8	95.3
=	0.0	0.0	46.2	94.9
=	0.0	0.0	46.6	94.6
=	0.0	0.0	47.0	94.2
=	0.0	0.0	47.4	93.9
=	0.0	0.0	47.8	93.5
=	0.0	0.0	48.2	93.0
=	0.0	0.0	48.6	92.5
=	0.0	0.0	49.0	92.0
=	0.0	0.0	49.4	91.5
=	0.0	0.0	49.8	90.8
=	0.0	0.0	50.2	90.3
=	0.0	0.0	50.6	89.8
=	0.0	0.0	51.0	89.3
=	0.0	0.0	51.4	88.7
=	0.0	0.0	51.8	88.0
=	0.0	0.0	52.3	87.3
=	0.0	0.0	52.7	86.6
=	0.0	0.0	53.1	85.8
=	0.0	0.0	53.5	85.2
=	0.0	0.0	53.9	84.4
=	0.0	0.0	54.3	83.6
=	0.0	0.0	54.7	82.8
=	0.0	0.0	55.1	82.0
=	0.0	0.0	55.5	81.2
=	0.0	0.0	55.9	80.3
=	0.0	0.0	56.3	79.4
=	0.0	0.0	56.7	78.5
=	0.0	0.0	57.1	77.6
=	0.0	0.0	57.5	76.6
=	0.0	0.0	57.9	75.4
=	0.0	0.0	58.3	74.4
=	0.0	0.0	58.7	73.4
=	0.0	0.0	59.1	72.4
=	0.0	0.0	59.5	71.2
=	0.0	0.0	59.9	70.0
=	0.0	0.0	60.3	69.0
=	0.0	0.0	60.7	67.8
=	0.0	0.0	61.1	66.6
=	0.0	0.0	61.5	65.4
=	0.0	0.0	61.9	64.0
=	0.0	0.0	62.3	62.8
=	0.0	0.0	62.7	61.6
=	0.0	0.0	63.1	60.4
=	0.0	0.0	63.5	59.1
=	0.0	0.0	63.9	57.8
=	0.0	0.0	64.3	56.5
=	0.0	0.0	64.7	55.2
=	0.0	0.0	65.1	53.7
=	0.0	0.0	65.5	52.3
=	0.0	0.0	65.9	51.0
=	0.0	0.0	66.3	49.6
=	0.0	0.0	66.7	48.3
=	0.0	0.0	67.1	46.9
=	0.0	0.0	67.5	45.5
=	0.0	0.0	67.9	44.2
=	0.0	0.0	68.3	42.9
=	0.0	0.0	68.7	41.5
=	0.0	0.0	69.1	40.0
=	0.0	0.0	69.5	38.7
=	0.0	0.0	69.9	37.3
=	0.0	0.0	70.3	36.0
=	0.0	0.0	70.7	34.6
=	0.0	0.0	71.1	33.2
=	0.0	0.0	71.5	31.9
=	0.0	0.0	71.9	30.6
=	0.0	0.0	72.3	29.4
=	0.0	0.0	72.7	28.1
=	0.0	0.0	73.1	26.9
=	0.0	0.0	73.5	25.7
=	0.0	0.0	73.9	24.5
=	0.0	0.0	74.3	23.3
=	0.0	0.0	74.7	22.2
=	0.0	0.0	75.1	21.1
=	0.0	0.0	75.5	19.9
=	0.0	0.0	75.9	18.9
=	0.0	0.0	76.3	17.9
=	0.0	0.0	76.7	17.0
=	0.0	0.0	77.1	16.0
=	0.0	0.0	77.5	15.1
=	0.0	0.0	77.9	14.3
=	0.0	0.0	78.3	13.5
=	0.0	0.0	78.7	12.7
=	0.0	0.0	79.1	12.0
=	0.0	0.0	79.5	11.3
=	0.0	0.0	79.9	10.6
=	0.0	0.0	80.3	10.0
=	0.0	0.0	80.7	9.3
=	0.0	0.0	81.1	8.8
=	0.0	0.0	81.5	8.3
=	0.0	0.0	81.9	7.8
=	0.0	0.0	82.3	7.4
=	0.0	0.0	82.7	7.0
=	0.0	0.0	83.1	6.6
=	0.0	0.0	83.5	6.3
=	0.0	0.0	83.9	6.0
=	0.0	0.0	84.3	5.7
=	0.0	0.0	84.7	5.4
=	0.0	0.0	85.1	5.2
=	0.0	0.0	85.5	5.0
=	0.0	0.0	85.9	4.8
=	0.0	0.0	86.3	4.6
=	0.0	0.0	86.8	4.5
=	0.0	0.0	87.2	4.3
=	0.0	0.0	87.6	4.2
=	0.0	0.0	88.0	4.1
=	0.0	0.0	88.4	4.1
=	0.0	0.0	88.8	4.0
=	0.0	0.0	89.2	3.9
=	0.0	0.0	89.6	3.9
=	0.0	0.0	90.0	3.8
=	0.0	0.0	90.4	3.8
=	0.0	0.0	90.8	3.8
=	0.0	0.0	91.2	3.7
=	0.0	0.0	91.6	3.7
=	0.0	0.0	92.0	3.7
=	0.0	0.0	92.4	3.6
=	0.0	0.0	92.8	3.6
=	0.0	0.0	93.2	3.6
=	0.0	0.0	93.6	3.6
=	0.0	0.0	94.0	3.6
=	0.0	0.0	94.4	3.6
=	0.0	0.0	94.8	3.6
=	0.0	0.0	95.2	3.6
=	0.0	0.0	95.6	3.6
=	0.0	0.0	96.0	3.6
=	0.0	0.0	96.4	3.6
=	0.0	0.0	96.8	3.6
=	0.0	0.0	97.2	3.6
=	0.0	0.0	97.6	3.6
=	0.0	0.0	98.0	3.6
=	0.0	0.0	98.4	3.6
=	0.0	0.0	98.8	3.6
=	0.0	0.0	99.2	3.5
=	0.0	0.0	99.6	3.5
=	0.0	0.0	100.0	3.5
=	0.0	0.0	100.4	3.5
=	0.0	0.0	100.8	3.5
=	0.0	0.0	101.2	3.5
=	0.0	0.0	101.6	3.5
=	0.0	0.0	102.0	3.5
=	0.0	0.0	102.4	3.5
=	0.0	0.0	102.8	3.5
=	0.0	0.0	103.2	3.5
=	0.0	0.0	103.6	3.5
=	0.0	0.0	104.0	3.5
=	0.0	0.0	104.4	3.5
=	0.0	0.0	104.8	3.5
=	0.0	0.0	105.2	3.5
=	0.0	0.0	105.6	3.5
=	0.0	0.0	106.0	3.5
=	0.0	0.0	106.4	3.5
=	0.0	0.0	106.8	3.5
=	0.0	0.0	107.2	3.5
=	0.0	0.0	107.6	3.5
=	0.0	0.0	108.0	3.5
=	0.0	0.0	108.4	3.5
=	0.0	0.0	108.8	3.5
=	0.0	0.0	109.2	3.5
=	0.0	0.0	109.6	3.5
=	0.0	0.0	110.0	3.5
=	0.0	0.0	110.4	3.5
=	0.0	0.0	110.8	3.5
=	0.0	0.0	111.2	3.5
=	0.0	0.0	111.6	3.5
=	0.0	0.0	112.0	3.5
=	0.0	0.0	112.4	3.5
=	0.0	0.0	112.8	3.5
=	0.0	0.0	113.2	3.5
=	0.0	0.0	113.6	3.5
=	0.0	0.0	114.0	3.5
=	0.0	0.0	114.4	3.5
=	0.0	0.0	114.8	3.5
=	0.0	0.0	115.2	3.5
=	0.0	0.0	115.6	3.5
=	0.0	0.0	116.0	3.5
=	0.0	0.0	116.4	3.5
=	0.0	0.0	116.8	3.5
=	0.0	0.0	117.2	3.4
=	0.0	0.0	117.6	3.4
=	0.0	0.0	118.0	3.4
=	0.0	0.0	118.4	3.4
=	0.0	0.0	118.8	3.4
=	0.0	0.0	119.2	3.4
=	0.0	0.0	119.6	3.4
=	0.0	0.0	120.0	3.4
=	0.0	0.0	120.4	3.4
=	0.0	0.0	120.8	3.4
=	0.0	0.0	121.2	3.4
=	0.0	0.0	121.6	3.4
=	0.0	0.0	122.0	3.4
=	0.0	0.0	122.4	3.3
=	0.0	0.0	122.8	3.3
=	0.0	0.0	123.2	3.3
=	0.0	0.0	123.6	3.3
=	0.0	0.0	124.0	3.3
=	0.0	0.0	124.4	3.3
=	0.0	0.0	124.8	3.3
=	0.0	0.0	125.2	3.3
=	0.0	0.0	125.6	3.3
=	0.0	0.0	126.0	3.3
=	0.0	0.0	126.4	3.2
=	0.0	0.0	126.8	3.2
=	0.0	0.0	127.2	3.2
=	0.0	0.0	127.6	3.2
=	0.0	0.0	128.0	3.2
=	0.0	0.0	128.4	3.2
=	0.0	0.0	128.8	3.2
=	0.0	0.0	129.2	3.2
=	0.0	0.0	129.6	3.2
=	0.0	0.0	130.0	3.2
=	0.0	0.0	130.4	3.2
=	0.0	0.0	130.8	3.2
=	0.0	0.0	131.2	3.2
=	0.0	0.0	131.6	3.2
=	0.0	0.0	132.0	3.2
=	0.0	0.0	132.4	3.2
=	0.0	0.0	132.8	3.1
=	0.0	0.0	133.2	3.1
=	0.0	0.0	133.6	3.1
=	0.0	0.0	134.0	3.1
=	0.0	0.0	134.4	3.1
=	0.0	0.0	134.8	3.1
=	0.0	0.0	135.2	3.1
=	0.0	0.0	135.6	3.1
=	0.0	0.0	136.0	3.1
=	0.0	0.0	136.4	3.1
=	0.0	0.0	136.8	3.1
=	0.0	0.0	137.2	3.1
=	0.0	0.0	137.6	3.1
=	0.0	0.0	138.0	3.1
=	0.0	0.0	138.4	3.1
=	0.0	0.0	138.8	3.0
=	0.0	0.0	139.2	3.0
=	0.0	0.0	139.6	3.0
=	0.0	0.0	140.0	3.0
=	0.0	0.0	140.4	3.0
=	0.0	0.0	140.8	3.0
=	0.0	0.0	141.2	3.0
=	0.0	0.0	141.6	3.0
=	0.0	0.0	142.0	3.0
=	0.0	0.0	142.4	3.0
=	0.0	0.0	142.8	3.0
=	0.0	0.0	143.2	3.0
=	0.0	0.0	143.6	3.0
=	0.0	0.0	144.0	3.0
=	0.0	0.0	144.4	3.0
=	0.0	0.0	144.8	2.9
=	0.0	0.0	145.2	2.9
=	0.0	0.0	145.6	2.9
=	0.0	0.0	146.0	2.9
=	0.0	0.0	146.4	2.9
=	0.0	0.0	146.8	2.9
=	0.0	0.0	147.2	2.9
=	0.0	0.0	147.6	2.9
=	0.0	0.0	148.0	2.9
=	0.0	0.0	148.4	2.9
=	0.0	0.0	148.8	2.9
=	0.0	0.0	149.2	2.9
=	0.0	0.0	149.6	2.9
=	0.0	0.0	150.0	2.9
=	0.0	0.0	150.4	2.9
=	0.0	0.0	150.8	2.9
=	0.0	0.0	151.2	2.9
=	0.0	0.0	151.6	2.9
=	0.0	0.0	152.0	2.9
=	0.0	0.0	152.4	2.8
=	0.0	0.0	152.8	2.8
=	0.0	0.0	153.2	2.8
=	0.0	0.0	153.6	2.8
=	0.0	0.0	154.0	2.8
=	0.0	0.0	154.4	2.8
=	0.0	0.0	154.8	2.8
=	0.0	0.0	155.2	2.8
=	0.0	0.0	155.6	2.8
=	0.0	0.0	156.0	2.8
=	0.0	0.0	156.4	2.8
=	0.0	0.0	156.8	2.8
=	0.0	0.0	157.2	2.8
=	0.0	0.0	157.6	2.8
=	0.0	0.0	158.0	2.7
=	0.0	0.0	158.4	2.7
=	0.0	0.0	158.8	2.7
=	0.0	0.0	159.2	2.7
=	0.0	0.0	159.6	2.7
=	0.0	0.0	160.0	2.7
=	0.0	0.0	160.4	2.7
=	0.0	0.0	160.8	2.7
=	0.0	0.0	161.2	2.7
=	0.0	0.0	161.6	2.7
=	0.0	0.0	162.0	2.7
=	0.0	0.0	162.4	2.7
=	0.0	0.0	162.8	2.7
=	0.0	0.0	163.2	2.7
=	0.0	0.0	163.6	2.7
=	0.0	0.0	164.0	2.7
=	0.0	0.0	164.4	2.7
=	0.0	0.0	164.8	2.7
=	0.0	0.0	165.2	2.7
=	0.0	0.0	165.6	2.6
=	0.0	0.0	166.0	2.6
=	0.0	0.0	166.4	2.6
=	0.0	0.0	166.8	2.6
=	0.0	0.0	167.2	2.6
=	0.0	0.0	167.6	2.6
=	0.0	0.0	168.0	2.6
=	0.0	0.0	168.4	2.6
=	0.0	0.0	168.8	2.6
=	0.0	0.0	169.2	2.6
=	0.0	0.0	169.6	2.6
=	0.0	0.0	170.0	2.6
=	0.0	0.0	170.4	2.6
=	0.0	0.0	170.8	2.6
=	0.0	0.0	171.2	2.6
=	0.0	0.0	171.6	2.6
=	0.0	0.0	172.0	2.5
=	0.0	0.0	172.4	2.5
=	0.0	0.0	172.8	2.5
=	0.0	0.0	173.2	2.5
=	0.0	0.0	173.6	2.5
=	0.0	0.0	174.0	2.5
=	0.0	0.0	174.4	2.5
=	0.0	0.0	174.8	2.5
=	0.0	0.0	175.2	2.5
=	0.0	0.0	175.6	2.5
=	0.0	0.0	176.0	2.5
=	0.0	0.0	176.4	2.5
=	0.0	0.0	176.8	2.5
=	0.0	0.0	177.2	2.5
=	0.0	0.0	177.6	2.5
=	0.0	0.0	178.0	2.5
=	0.0	0.0	178.4	2.5
=	0.0	0.0	178.8	2.5
=	0.0	0.0	179.2	2.5
=	0.0	0.0	179.6	2.4
=	0.0	0.0	180.0	2.4
=	0.0	0.0	180.4	2.4
=	0.0	0.0	180.8	2.4
=	0.0	0.0	181.2	2.4
=	0.0	0.0	181.6	2.4
=	0.0	0.0	182.0	2.4
=	0.0	0.0	182.4	2.4
=	0.0	0.0	182.8	2.4
=	0.0	0.0	183.2	2.4
=	0.0	0.0	183.6	2.4
=	0.0	0.0	184.0	2.4
=	0.0	0.0	184.4	2.4
=	0.0	0.0	184.8	2.4
=	0.0	0.0	185.2	2.4
=	0.0	0.0	185.6	2.4
=	0.0	0.0	186.0	2.4
=	0.0	0.0	186.4	2.4
=	0.0	0.0	186.8	2.4
=	0.0	0.0	187.2	2.4
=	0.0	0.0	187.6	2.4
=	0.0	0.0	188.0	2.3
=	0.0	0.0	188.4	2.3
=	0.0	0.0	188.8	2.3
=	0.0	0.0	189.2	2.3
=	0.0	0.0	189.6	2.3
=	0.0	0.0	190.0	2.3
=	0.0	0.0	190.4	2.3
=	0.0	0.0	190.8	2.3
=	0.0	0.0	191.2	2.3
=	0.0	0.0	191.6	2.3
=	0.0	0.0	192.0	2.3
=	0.0	0.0	192.4	2.3
=	0.0	0.0	192.8	2.3
=	0.0	0.0	193.2	2.3
=	0.0	0.0	193.6	2.3
=	0.0	0.0	194.0	2.3
=	0.0	0.0	194.4	2.3
=	0.0	0.0	194.8	2.3
=	0.0	0.0	195.2	2.3
=	0.0	0.0	195.6	2.2
=	0.0	0.0	196.0	2.2
=	0.0	0.0	196.4	2.2
=	0.0	0.0	196.8	2.2
=	0.0	0.0	197.2	2.2
=	0.0	0.0	197.6	2.2
=	0.0	0.0	198.0	2.2
=	0.0	0.0	198.4	2.2
:EOM # End of Measurement

:EOF # End of File