:MSR 	5	 # No. of measurement in file
:SYS BDS 0   # Beam Data Scanner System
#
# RFA300 ASCII Measurement Dump ( BDS format )
#
# Measurement number 	1
#
%VNR 1.0
%MOD 	RAT
%TYP 	SCN
%SCN 	DIA
%FLD 	ION
%DAT 	02-03-2012
%TIM 	12:00:00
%FSZ 	400	400
%BMT 	PHO	   4.0
%SSD 	1000
%BUP 	0
%BRD 	1000
%FSH 	1
%ASC 	0
%WEG 	0
%GPO 	0
%CPO 	0
%MEA 	2
%PRD 	12,0
%PTS 	785
%STS 	    282.2	  -282.2	   12.0 # Start Scan values in mm ( X , Y , Z )
%EDS 	    -282.1	   282.1	   12.0 # End Scan values in mm ( X , Y , Z )
#
#	  X      Y      Z     Dose
#
=	282.2	-282.2	12.0	1.5
=	281.7	-281.7	12.0	1.6
=	281.1	-281.1	12.0	1.6
=	280.2	-280.2	12.0	1.6
=	279.1	-279.1	12.0	1.6
=	278.5	-278.5	12.0	1.6
=	278.0	-278.0	12.0	1.6
=	277.3	-277.3	12.0	1.6
=	276.6	-276.6	12.0	1.6
=	276.0	-276.0	12.0	1.7
=	275.4	-275.4	12.0	1.7
=	274.7	-274.7	12.0	1.7
=	274.0	-274.0	12.0	1.7
=	273.2	-273.2	12.0	1.7
=	272.5	-272.5	12.0	1.7
=	271.8	-271.8	12.0	1.7
=	271.3	-271.3	12.0	1.7
=	270.7	-270.7	12.0	1.8
=	270.0	-270.0	12.0	1.8
=	269.3	-269.3	12.0	1.8
=	268.6	-268.6	12.0	1.8
=	267.9	-267.9	12.0	1.8
=	267.2	-267.2	12.0	1.8
=	266.5	-266.5	12.0	1.8
=	265.8	-265.8	12.0	1.8
=	265.1	-265.1	12.0	1.9
=	264.4	-264.4	12.0	1.9
=	263.4	-263.4	12.0	1.9
=	262.1	-262.1	12.0	1.9
=	260.8	-260.8	12.0	2.0
=	260.2	-260.2	12.0	2.0
=	259.7	-259.7	12.0	2.0
=	259.2	-259.2	12.0	2.0
=	258.8	-258.8	12.0	2.0
=	258.3	-258.3	12.0	2.0
=	257.8	-257.8	12.0	2.0
=	257.2	-257.2	12.0	2.0
=	256.5	-256.5	12.0	2.1
=	255.8	-255.8	12.0	2.1
=	255.1	-255.1	12.0	2.1
=	254.3	-254.3	12.0	2.1
=	253.6	-253.6	12.0	2.1
=	252.9	-252.9	12.0	2.2
=	252.2	-252.2	12.0	2.2
=	251.5	-251.5	12.0	2.2
=	250.8	-250.8	12.0	2.2
=	250.1	-250.1	12.0	2.2
=	249.4	-249.4	12.0	2.3
=	248.9	-248.9	12.0	2.3
=	248.4	-248.4	12.0	2.3
=	247.7	-247.7	12.0	2.3
=	247.0	-247.0	12.0	2.3
=	246.3	-246.3	12.0	2.4
=	245.6	-245.6	12.0	2.4
=	244.9	-244.9	12.0	2.4
=	244.1	-244.1	12.0	2.4
=	242.9	-242.9	12.0	2.5
=	242.0	-242.0	12.0	2.5
=	241.3	-241.3	12.0	2.6
=	240.6	-240.6	12.0	2.6
=	239.9	-239.9	12.0	2.6
=	239.2	-239.2	12.0	2.7
=	238.5	-238.5	12.0	2.7
=	237.8	-237.8	12.0	2.7
=	237.1	-237.1	12.0	2.8
=	236.4	-236.4	12.0	2.8
=	235.7	-235.7	12.0	2.8
=	235.0	-235.0	12.0	2.9
=	234.2	-234.2	12.0	2.9
=	233.3	-233.3	12.0	2.9
=	232.6	-232.6	12.0	3.0
=	231.9	-231.9	12.0	3.0
=	231.2	-231.2	12.0	3.1
=	230.5	-230.5	12.0	3.1
=	229.8	-229.8	12.0	3.2
=	229.1	-229.1	12.0	3.2
=	228.5	-228.5	12.0	3.3
=	227.5	-227.5	12.0	3.3
=	226.6	-226.6	12.0	3.4
=	225.9	-225.9	12.0	3.4
=	225.2	-225.2	12.0	3.5
=	224.5	-224.5	12.0	3.5
=	223.8	-223.8	12.0	3.6
=	223.1	-223.1	12.0	3.6
=	222.4	-222.4	12.0	3.7
=	221.7	-221.7	12.0	3.8
=	220.9	-220.9	12.0	3.8
=	220.2	-220.2	12.0	3.9
=	219.5	-219.5	12.0	3.9
=	218.1	-218.1	12.0	4.1
=	216.7	-216.7	12.0	4.2
=	215.3	-215.3	12.0	4.4
=	213.9	-213.9	12.0	4.5
=	212.4	-212.4	12.0	4.7
=	211.0	-211.0	12.0	4.8
=	210.0	-210.0	12.0	4.9
=	209.3	-209.3	12.0	5.0
=	208.6	-208.6	12.0	5.1
=	207.9	-207.9	12.0	5.2
=	207.2	-207.2	12.0	5.3
=	206.5	-206.5	12.0	5.4
=	205.8	-205.8	12.0	5.5
=	205.1	-205.1	12.0	5.6
=	204.4	-204.4	12.0	5.7
=	203.7	-203.7	12.0	5.8
=	203.0	-203.0	12.0	5.9
=	202.3	-202.3	12.0	6.0
=	201.6	-201.6	12.0	6.1
=	200.7	-200.7	12.0	6.2
=	199.7	-199.7	12.0	6.4
=	198.6	-198.6	12.0	6.6
=	197.3	-197.3	12.0	6.8
=	196.5	-196.5	12.0	7.0
=	195.8	-195.8	12.0	7.1
=	195.1	-195.1	12.0	7.3
=	194.4	-194.4	12.0	7.4
=	193.7	-193.7	12.0	7.6
=	192.6	-192.6	12.0	7.9
=	191.7	-191.7	12.0	8.1
=	191.0	-191.0	12.0	8.3
=	190.3	-190.3	12.0	8.5
=	189.6	-189.6	12.0	8.8
=	188.9	-188.9	12.0	9.0
=	188.2	-188.2	12.0	9.4
=	187.5	-187.5	12.0	9.9
=	186.8	-186.8	12.0	10.5
=	186.1	-186.1	12.0	11.2
=	185.1	-185.1	12.0	12.8
=	183.6	-183.6	12.0	16.0
=	182.4	-182.4	12.0	20.6
=	181.7	-181.7	12.0	24.6
=	181.0	-181.0	12.0	29.6
=	180.3	-180.3	12.0	35.8
=	179.7	-179.7	12.0	42.7
=	179.0	-179.0	12.0	50.0
=	178.3	-178.3	12.0	57.8
=	177.5	-177.5	12.0	65.7
=	176.6	-176.6	12.0	73.1
=	175.8	-175.8	12.0	77.9
=	175.0	-175.0	12.0	81.0
=	173.8	-173.8	12.0	83.6
=	173.0	-173.0	12.0	84.9
=	172.3	-172.3	12.0	86.0
=	171.7	-171.7	12.0	87.2
=	171.0	-171.0	12.0	88.4
=	170.3	-170.3	12.0	89.7
=	169.6	-169.6	12.0	91.1
=	168.7	-168.7	12.0	92.9
=	167.6	-167.6	12.0	94.9
=	166.6	-166.6	12.0	96.9
=	165.9	-165.9	12.0	98.1
=	165.2	-165.2	12.0	99.3
=	164.5	-164.5	12.0	100.4
=	163.9	-163.9	12.0	101.3
=	163.2	-163.2	12.0	102.2
=	162.5	-162.5	12.0	103.0
=	162.0	-162.0	12.0	103.5
=	161.3	-161.3	12.0	104.1
=	160.5	-160.5	12.0	104.8
=	159.7	-159.7	12.0	105.3
=	159.2	-159.2	12.0	105.6
=	158.5	-158.5	12.0	106.0
=	157.8	-157.8	12.0	106.3
=	157.1	-157.1	12.0	106.5
=	156.4	-156.4	12.0	106.7
=	155.9	-155.9	12.0	106.9
=	155.2	-155.2	12.0	107.1
=	154.5	-154.5	12.0	107.2
=	153.8	-153.8	12.0	107.3
=	152.9	-152.9	12.0	107.5
=	151.7	-151.7	12.0	107.5
=	150.8	-150.8	12.0	107.6
=	150.1	-150.1	12.0	107.6
=	149.4	-149.4	12.0	107.6
=	148.8	-148.8	12.0	107.7
=	148.1	-148.1	12.0	107.7
=	147.3	-147.3	12.0	107.7
=	146.6	-146.6	12.0	107.7
=	145.6	-145.6	12.0	107.8
=	144.2	-144.2	12.0	107.8
=	142.8	-142.8	12.0	107.8
=	141.4	-141.4	12.0	107.7
=	140.6	-140.6	12.0	107.7
=	139.9	-139.9	12.0	107.7
=	139.2	-139.2	12.0	107.8
=	138.5	-138.5	12.0	107.8
=	137.8	-137.8	12.0	107.8
=	137.1	-137.1	12.0	107.8
=	136.5	-136.5	12.0	107.8
=	135.8	-135.8	12.0	107.8
=	135.1	-135.1	12.0	107.7
=	134.4	-134.4	12.0	107.8
=	133.7	-133.7	12.0	107.8
=	133.0	-133.0	12.0	107.8
=	132.3	-132.3	12.0	107.8
=	131.6	-131.6	12.0	107.8
=	130.9	-130.9	12.0	107.8
=	130.4	-130.4	12.0	107.8
=	129.9	-129.9	12.0	107.8
=	129.4	-129.4	12.0	107.8
=	128.9	-128.9	12.0	107.8
=	128.5	-128.5	12.0	107.8
=	127.7	-127.7	12.0	107.8
=	126.7	-126.7	12.0	107.8
=	126.0	-126.0	12.0	107.8
=	125.3	-125.3	12.0	107.8
=	124.6	-124.6	12.0	107.8
=	123.9	-123.9	12.0	107.8
=	123.2	-123.2	12.0	107.8
=	122.7	-122.7	12.0	107.8
=	122.1	-122.1	12.0	107.8
=	121.5	-121.5	12.0	107.8
=	120.9	-120.9	12.0	107.8
=	120.3	-120.3	12.0	107.8
=	119.6	-119.6	12.0	107.8
=	118.9	-118.9	12.0	107.9
=	118.2	-118.2	12.0	107.9
=	117.5	-117.5	12.0	107.8
=	116.8	-116.8	12.0	107.8
=	116.0	-116.0	12.0	107.8
=	115.5	-115.5	12.0	107.8
=	114.8	-114.8	12.0	107.8
=	114.3	-114.3	12.0	107.9
=	113.8	-113.8	12.0	107.9
=	113.4	-113.4	12.0	107.9
=	112.9	-112.9	12.0	107.9
=	112.4	-112.4	12.0	107.8
=	111.8	-111.8	12.0	107.9
=	111.1	-111.1	12.0	107.9
=	110.4	-110.4	12.0	107.9
=	109.6	-109.6	12.0	107.9
=	108.9	-108.9	12.0	107.9
=	108.2	-108.2	12.0	107.9
=	107.5	-107.5	12.0	107.9
=	106.8	-106.8	12.0	107.9
=	106.3	-106.3	12.0	107.9
=	105.8	-105.8	12.0	107.9
=	105.3	-105.3	12.0	107.9
=	104.7	-104.7	12.0	107.9
=	104.0	-104.0	12.0	107.9
=	103.3	-103.3	12.0	107.8
=	102.5	-102.5	12.0	107.8
=	102.0	-102.0	12.0	107.8
=	101.5	-101.5	12.0	107.7
=	101.1	-101.1	12.0	107.7
=	100.4	-100.4	12.0	107.7
=	99.7	-99.7	12.0	107.6
=	99.1	-99.1	12.0	107.6
=	98.5	-98.5	12.0	107.5
=	97.9	-97.9	12.0	107.4
=	97.4	-97.4	12.0	107.4
=	96.8	-96.8	12.0	107.3
=	96.1	-96.1	12.0	107.3
=	95.4	-95.4	12.0	107.2
=	94.9	-94.9	12.0	107.1
=	94.3	-94.3	12.0	107.1
=	93.8	-93.8	12.0	107.0
=	93.1	-93.1	12.0	107.0
=	92.4	-92.4	12.0	106.9
=	91.8	-91.8	12.0	106.8
=	91.1	-91.1	12.0	106.7
=	90.4	-90.4	12.0	106.7
=	89.7	-89.7	12.0	106.6
=	89.1	-89.1	12.0	106.6
=	88.6	-88.6	12.0	106.5
=	88.1	-88.1	12.0	106.5
=	87.5	-87.5	12.0	106.5
=	86.9	-86.9	12.0	106.4
=	86.3	-86.3	12.0	106.4
=	85.6	-85.6	12.0	106.3
=	84.9	-84.9	12.0	106.3
=	84.2	-84.2	12.0	106.3
=	83.5	-83.5	12.0	106.2
=	82.9	-82.9	12.0	106.2
=	82.3	-82.3	12.0	106.1
=	81.8	-81.8	12.0	106.1
=	81.2	-81.2	12.0	106.1
=	80.6	-80.6	12.0	106.1
=	79.9	-79.9	12.0	106.0
=	79.2	-79.2	12.0	106.0
=	78.5	-78.5	12.0	106.0
=	77.8	-77.8	12.0	105.9
=	77.2	-77.2	12.0	105.9
=	76.8	-76.8	12.0	105.8
=	76.1	-76.1	12.0	105.8
=	75.5	-75.5	12.0	105.8
=	74.9	-74.9	12.0	105.7
=	74.2	-74.2	12.0	105.6
=	73.5	-73.5	12.0	105.6
=	72.8	-72.8	12.0	105.5
=	72.1	-72.1	12.0	105.5
=	71.2	-71.2	12.0	105.4
=	70.5	-70.5	12.0	105.3
=	69.8	-69.8	12.0	105.3
=	69.1	-69.1	12.0	105.2
=	68.4	-68.4	12.0	105.1
=	67.1	-67.1	12.0	105.0
=	66.0	-66.0	12.0	104.9
=	65.3	-65.3	12.0	104.9
=	64.7	-64.7	12.0	104.8
=	64.0	-64.0	12.0	104.8
=	63.3	-63.3	12.0	104.7
=	62.5	-62.5	12.0	104.7
=	61.3	-61.3	12.0	104.6
=	59.9	-59.9	12.0	104.4
=	58.5	-58.5	12.0	104.4
=	57.7	-57.7	12.0	104.3
=	57.0	-57.0	12.0	104.3
=	56.3	-56.3	12.0	104.3
=	55.6	-55.6	12.0	104.2
=	54.9	-54.9	12.0	104.2
=	54.2	-54.2	12.0	104.1
=	53.2	-53.2	12.0	104.1
=	51.7	-51.7	12.0	104.0
=	50.3	-50.3	12.0	104.0
=	49.3	-49.3	12.0	103.9
=	48.7	-48.7	12.0	103.8
=	47.9	-47.9	12.0	103.7
=	47.1	-47.1	12.0	103.6
=	46.4	-46.4	12.0	103.6
=	46.0	-46.0	12.0	103.6
=	45.4	-45.4	12.0	103.5
=	44.9	-44.9	12.0	103.5
=	44.4	-44.4	12.0	103.5
=	43.9	-43.9	12.0	103.5
=	43.5	-43.5	12.0	103.4
=	43.0	-43.0	12.0	103.4
=	42.3	-42.3	12.0	103.3
=	41.4	-41.4	12.0	103.3
=	40.7	-40.7	12.0	103.2
=	40.0	-40.0	12.0	103.2
=	39.1	-39.1	12.0	103.1
=	38.4	-38.4	12.0	103.1
=	37.7	-37.7	12.0	103.0
=	37.0	-37.0	12.0	102.9
=	36.4	-36.4	12.0	102.9
=	35.9	-35.9	12.0	102.9
=	35.4	-35.4	12.0	102.9
=	34.9	-34.9	12.0	102.8
=	34.4	-34.4	12.0	102.8
=	33.9	-33.9	12.0	102.8
=	33.4	-33.4	12.0	102.7
=	32.7	-32.7	12.0	102.6
=	32.0	-32.0	12.0	102.5
=	31.3	-31.3	12.0	102.4
=	30.5	-30.5	12.0	102.4
=	29.8	-29.8	12.0	102.3
=	29.1	-29.1	12.0	102.3
=	28.4	-28.4	12.0	102.2
=	27.7	-27.7	12.0	102.1
=	27.0	-27.0	12.0	102.1
=	26.3	-26.3	12.0	102.1
=	25.5	-25.5	12.0	102.0
=	24.9	-24.9	12.0	101.9
=	24.3	-24.3	12.0	101.9
=	23.6	-23.6	12.0	101.8
=	22.9	-22.9	12.0	101.7
=	22.2	-22.2	12.0	101.6
=	21.5	-21.5	12.0	101.6
=	20.9	-20.9	12.0	101.5
=	20.2	-20.2	12.0	101.4
=	19.7	-19.7	12.0	101.4
=	19.2	-19.2	12.0	101.3
=	18.7	-18.7	12.0	101.3
=	18.3	-18.3	12.0	101.3
=	17.8	-17.8	12.0	101.3
=	17.3	-17.3	12.0	101.2
=	16.6	-16.6	12.0	101.2
=	15.9	-15.9	12.0	101.1
=	15.2	-15.2	12.0	101.0
=	14.5	-14.5	12.0	100.9
=	13.8	-13.8	12.0	100.8
=	13.2	-13.2	12.0	100.8
=	12.7	-12.7	12.0	100.8
=	12.0	-12.0	12.0	100.7
=	11.5	-11.5	12.0	100.7
=	10.8	-10.8	12.0	100.7
=	10.1	-10.1	12.0	100.6
=	9.4	-9.4	12.0	100.5
=	8.6	-8.6	12.0	100.5
=	7.9	-7.9	12.0	100.4
=	7.2	-7.2	12.0	100.3
=	6.5	-6.5	12.0	100.3
=	5.8	-5.8	12.0	100.2
=	5.1	-5.1	12.0	100.2
=	4.3	-4.3	12.0	100.2
=	3.6	-3.6	12.0	100.1
=	3.0	-3.0	12.0	100.1
=	2.6	-2.6	12.0	100.1
=	2.1	-2.1	12.0	100.1
=	1.5	-1.5	12.0	100.0
=	0.9	-0.9	12.0	100.0
=	-0.3	0.3	12.0	100.0
=	-0.7	0.7	12.0	100.0
=	-1.3	1.3	12.0	100.0
=	-2.0	2.0	12.0	100.0
=	-2.5	2.5	12.0	100.1
=	-2.9	2.9	12.0	100.1
=	-3.5	3.5	12.0	100.1
=	-4.2	4.2	12.0	100.2
=	-4.9	4.9	12.0	100.2
=	-5.6	5.6	12.0	100.2
=	-6.3	6.3	12.0	100.3
=	-7.0	7.0	12.0	100.3
=	-7.7	7.7	12.0	100.4
=	-8.5	8.5	12.0	100.5
=	-9.2	9.2	12.0	100.5
=	-9.9	9.9	12.0	100.6
=	-10.6	10.6	12.0	100.7
=	-11.3	11.3	12.0	100.7
=	-11.9	11.9	12.0	100.7
=	-12.5	12.5	12.0	100.8
=	-13.0	13.0	12.0	100.8
=	-13.6	13.6	12.0	100.8
=	-14.3	14.3	12.0	100.9
=	-15.0	15.0	12.0	101.0
=	-15.7	15.7	12.0	101.1
=	-16.5	16.5	12.0	101.2
=	-17.1	17.1	12.0	101.2
=	-17.7	17.7	12.0	101.3
=	-18.1	18.1	12.0	101.3
=	-18.6	18.6	12.0	101.3
=	-19.1	19.1	12.0	101.3
=	-19.6	19.6	12.0	101.4
=	-20.0	20.0	12.0	101.4
=	-20.7	20.7	12.0	101.5
=	-21.3	21.3	12.0	101.5
=	-22.0	22.0	12.0	101.6
=	-22.7	22.7	12.0	101.7
=	-23.4	23.4	12.0	101.8
=	-24.1	24.1	12.0	101.9
=	-24.8	24.8	12.0	101.9
=	-25.3	25.3	12.0	102.0
=	-26.1	26.1	12.0	102.1
=	-26.8	26.8	12.0	102.1
=	-27.5	27.5	12.0	102.1
=	-28.2	28.2	12.0	102.2
=	-28.9	28.9	12.0	102.2
=	-29.7	29.7	12.0	102.3
=	-30.4	30.4	12.0	102.4
=	-31.1	31.1	12.0	102.4
=	-31.8	31.8	12.0	102.5
=	-32.5	32.5	12.0	102.6
=	-33.2	33.2	12.0	102.7
=	-33.8	33.8	12.0	102.8
=	-34.2	34.2	12.0	102.8
=	-34.8	34.8	12.0	102.8
=	-35.3	35.3	12.0	102.8
=	-35.7	35.7	12.0	102.9
=	-36.3	36.3	12.0	102.9
=	-36.8	36.8	12.0	102.9
=	-37.5	37.5	12.0	103.0
=	-38.2	38.2	12.0	103.1
=	-38.9	38.9	12.0	103.1
=	-39.8	39.8	12.0	103.2
=	-40.5	40.5	12.0	103.2
=	-41.2	41.2	12.0	103.3
=	-42.0	42.0	12.0	103.3
=	-42.8	42.8	12.0	103.4
=	-43.4	43.4	12.0	103.4
=	-43.8	43.8	12.0	103.5
=	-44.3	44.3	12.0	103.5
=	-44.8	44.8	12.0	103.5
=	-45.2	45.2	12.0	103.5
=	-45.8	45.8	12.0	103.5
=	-46.3	46.3	12.0	103.6
=	-46.9	46.9	12.0	103.6
=	-47.6	47.6	12.0	103.7
=	-48.5	48.5	12.0	103.8
=	-49.1	49.1	12.0	103.9
=	-50.0	50.0	12.0	103.9
=	-51.4	51.4	12.0	104.0
=	-52.8	52.8	12.0	104.1
=	-54.0	54.0	12.0	104.1
=	-54.8	54.8	12.0	104.1
=	-55.4	55.4	12.0	104.2
=	-56.1	56.1	12.0	104.3
=	-56.8	56.8	12.0	104.3
=	-57.5	57.5	12.0	104.3
=	-58.3	58.3	12.0	104.4
=	-59.6	59.6	12.0	104.4
=	-61.0	61.0	12.0	104.5
=	-62.2	62.2	12.0	104.6
=	-63.1	63.1	12.0	104.7
=	-63.8	63.8	12.0	104.7
=	-64.5	64.5	12.0	104.8
=	-65.2	65.2	12.0	104.9
=	-65.9	65.9	12.0	104.9
=	-66.7	66.7	12.0	105.0
=	-68.1	68.1	12.0	105.0
=	-68.9	68.9	12.0	105.1
=	-69.6	69.6	12.0	105.2
=	-70.3	70.3	12.0	105.3
=	-71.0	71.0	12.0	105.4
=	-71.9	71.9	12.0	105.5
=	-72.6	72.6	12.0	105.5
=	-73.3	73.3	12.0	105.6
=	-74.0	74.0	12.0	105.6
=	-74.7	74.7	12.0	105.7
=	-75.4	75.4	12.0	105.8
=	-76.0	76.0	12.0	105.8
=	-76.6	76.6	12.0	105.8
=	-77.1	77.1	12.0	105.9
=	-77.6	77.6	12.0	105.9
=	-78.3	78.3	12.0	106.0
=	-79.0	79.0	12.0	106.0
=	-79.7	79.7	12.0	106.0
=	-80.4	80.4	12.0	106.0
=	-81.1	81.1	12.0	106.1
=	-81.6	81.6	12.0	106.1
=	-82.1	82.1	12.0	106.1
=	-82.8	82.8	12.0	106.1
=	-83.3	83.3	12.0	106.2
=	-84.0	84.0	12.0	106.2
=	-84.7	84.7	12.0	106.3
=	-85.4	85.4	12.0	106.3
=	-86.1	86.1	12.0	106.4
=	-86.8	86.8	12.0	106.4
=	-87.4	87.4	12.0	106.4
=	-88.0	88.0	12.0	106.5
=	-88.5	88.5	12.0	106.5
=	-89.0	89.0	12.0	106.6
=	-89.6	89.6	12.0	106.6
=	-90.3	90.3	12.0	106.6
=	-91.0	91.0	12.0	106.7
=	-91.7	91.7	12.0	106.8
=	-92.2	92.2	12.0	106.9
=	-92.9	92.9	12.0	106.9
=	-93.6	93.6	12.0	107.0
=	-94.2	94.2	12.0	107.1
=	-94.8	94.8	12.0	107.1
=	-95.3	95.3	12.0	107.1
=	-96.0	96.0	12.0	107.2
=	-96.7	96.7	12.0	107.3
=	-97.2	97.2	12.0	107.3
=	-97.8	97.8	12.0	107.4
=	-98.3	98.3	12.0	107.5
=	-98.9	98.9	12.0	107.5
=	-99.5	99.5	12.0	107.6
=	-100.2	100.2	12.0	107.7
=	-100.9	100.9	12.0	107.7
=	-101.4	101.4	12.0	107.7
=	-101.9	101.9	12.0	107.8
=	-102.4	102.4	12.0	107.8
=	-103.1	103.1	12.0	107.8
=	-103.8	103.8	12.0	107.9
=	-104.5	104.5	12.0	107.9
=	-105.2	105.2	12.0	107.9
=	-105.7	105.7	12.0	107.9
=	-106.2	106.2	12.0	107.9
=	-106.7	106.7	12.0	107.9
=	-107.3	107.3	12.0	107.9
=	-108.0	108.0	12.0	107.9
=	-108.7	108.7	12.0	107.9
=	-109.4	109.4	12.0	107.9
=	-110.2	110.2	12.0	107.9
=	-110.9	110.9	12.0	107.9
=	-111.6	111.6	12.0	107.9
=	-112.3	112.3	12.0	107.8
=	-112.8	112.8	12.0	107.9
=	-113.3	113.3	12.0	107.9
=	-113.7	113.7	12.0	107.9
=	-114.2	114.2	12.0	107.9
=	-114.7	114.7	12.0	107.9
=	-115.3	115.3	12.0	107.8
=	-115.9	115.9	12.0	107.8
=	-116.6	116.6	12.0	107.8
=	-117.3	117.3	12.0	107.8
=	-118.0	118.0	12.0	107.9
=	-118.7	118.7	12.0	107.9
=	-119.4	119.4	12.0	107.8
=	-120.1	120.1	12.0	107.8
=	-120.8	120.8	12.0	107.8
=	-121.3	121.3	12.0	107.8
=	-121.9	121.9	12.0	107.8
=	-122.5	122.5	12.0	107.8
=	-123.1	123.1	12.0	107.8
=	-123.7	123.7	12.0	107.8
=	-124.4	124.4	12.0	107.8
=	-125.1	125.1	12.0	107.8
=	-125.8	125.8	12.0	107.8
=	-126.6	126.6	12.0	107.8
=	-127.4	127.4	12.0	107.8
=	-128.3	128.3	12.0	107.8
=	-128.8	128.8	12.0	107.8
=	-129.3	129.3	12.0	107.8
=	-129.8	129.8	12.0	107.8
=	-130.2	130.2	12.0	107.8
=	-130.7	130.7	12.0	107.8
=	-131.4	131.4	12.0	107.8
=	-132.1	132.1	12.0	107.8
=	-132.8	132.8	12.0	107.8
=	-133.5	133.5	12.0	107.8
=	-134.2	134.2	12.0	107.8
=	-134.9	134.9	12.0	107.8
=	-135.6	135.6	12.0	107.7
=	-136.4	136.4	12.0	107.8
=	-137.0	137.0	12.0	107.8
=	-137.6	137.6	12.0	107.8
=	-138.3	138.3	12.0	107.8
=	-139.1	139.1	12.0	107.8
=	-139.8	139.8	12.0	107.7
=	-140.5	140.5	12.0	107.7
=	-141.2	141.2	12.0	107.7
=	-142.4	142.4	12.0	107.7
=	-143.8	143.8	12.0	107.8
=	-145.2	145.2	12.0	107.8
=	-146.5	146.5	12.0	107.7
=	-147.2	147.2	12.0	107.7
=	-147.9	147.9	12.0	107.7
=	-148.6	148.6	12.0	107.7
=	-149.3	149.3	12.0	107.7
=	-150.0	150.0	12.0	107.6
=	-150.6	150.6	12.0	107.6
=	-151.4	151.4	12.0	107.6
=	-152.6	152.6	12.0	107.5
=	-153.6	153.6	12.0	107.4
=	-154.3	154.3	12.0	107.2
=	-155.0	155.0	12.0	107.1
=	-155.7	155.7	12.0	106.9
=	-156.3	156.3	12.0	106.8
=	-156.9	156.9	12.0	106.5
=	-157.7	157.7	12.0	106.3
=	-158.3	158.3	12.0	106.1
=	-159.0	159.0	12.0	105.7
=	-159.6	159.6	12.0	105.4
=	-160.3	160.3	12.0	104.9
=	-161.1	161.1	12.0	104.3
=	-161.8	161.8	12.0	103.6
=	-162.3	162.3	12.0	103.1
=	-163.0	163.0	12.0	102.4
=	-163.7	163.7	12.0	101.5
=	-164.4	164.4	12.0	100.6
=	-165.0	165.0	12.0	99.6
=	-165.7	165.7	12.0	98.4
=	-166.4	166.4	12.0	97.2
=	-167.3	167.3	12.0	95.6
=	-168.4	168.4	12.0	93.4
=	-169.4	169.4	12.0	91.4
=	-170.1	170.1	12.0	90.0
=	-170.8	170.8	12.0	88.7
=	-171.5	171.5	12.0	87.5
=	-172.2	172.2	12.0	86.2
=	-172.9	172.9	12.0	85.1
=	-173.6	173.6	12.0	84.0
=	-174.7	174.7	12.0	81.7
=	-175.6	175.6	12.0	78.7
=	-176.3	176.3	12.0	74.8
=	-177.3	177.3	12.0	67.5
=	-178.1	178.1	12.0	59.6
=	-178.8	178.8	12.0	52.0
=	-179.5	179.5	12.0	44.5
=	-180.2	180.2	12.0	37.6
=	-180.9	180.9	12.0	31.0
=	-181.6	181.6	12.0	25.8
=	-182.3	182.3	12.0	21.5
=	-183.3	183.3	12.0	17.2
=	-184.7	184.7	12.0	13.4
=	-185.9	185.9	12.0	11.5
=	-186.6	186.6	12.0	10.7
=	-187.3	187.3	12.0	10.0
=	-188.0	188.0	12.0	9.5
=	-188.7	188.7	12.0	9.1
=	-189.4	189.4	12.0	8.8
=	-190.1	190.1	12.0	8.6
=	-190.8	190.8	12.0	8.3
=	-191.5	191.5	12.0	8.1
=	-192.3	192.3	12.0	7.9
=	-193.5	193.5	12.0	7.6
=	-194.2	194.2	12.0	7.5
=	-194.9	194.9	12.0	7.3
=	-195.6	195.6	12.0	7.2
=	-196.3	196.3	12.0	7.0
=	-197.0	197.0	12.0	6.9
=	-198.2	198.2	12.0	6.7
=	-199.5	199.5	12.0	6.4
=	-200.4	200.4	12.0	6.3
=	-201.4	201.4	12.0	6.1
=	-202.1	202.1	12.0	6.0
=	-202.8	202.8	12.0	5.9
=	-203.5	203.5	12.0	5.8
=	-204.2	204.2	12.0	5.7
=	-204.9	204.9	12.0	5.6
=	-205.6	205.6	12.0	5.5
=	-206.3	206.3	12.0	5.4
=	-207.0	207.0	12.0	5.3
=	-207.7	207.7	12.0	5.2
=	-208.4	208.4	12.0	5.1
=	-209.1	209.1	12.0	5.0
=	-209.8	209.8	12.0	5.0
=	-210.7	210.7	12.0	4.9
=	-212.1	212.1	12.0	4.7
=	-213.5	213.5	12.0	4.5
=	-214.9	214.9	12.0	4.4
=	-216.4	216.4	12.0	4.2
=	-217.8	217.8	12.0	4.1
=	-219.2	219.2	12.0	4.0
=	-220.1	220.1	12.0	3.9
=	-220.8	220.8	12.0	3.8
=	-221.5	221.5	12.0	3.8
=	-222.2	222.2	12.0	3.7
=	-222.9	222.9	12.0	3.7
=	-223.6	223.6	12.0	3.6
=	-224.3	224.3	12.0	3.5
=	-225.0	225.0	12.0	3.5
=	-225.7	225.7	12.0	3.4
=	-226.4	226.4	12.0	3.4
=	-227.3	227.3	12.0	3.3
=	-228.3	228.3	12.0	3.3
=	-229.0	229.0	12.0	3.2
=	-229.7	229.7	12.0	3.2
=	-230.3	230.3	12.0	3.1
=	-231.0	231.0	12.0	3.1
=	-231.8	231.8	12.0	3.0
=	-232.5	232.5	12.0	3.0
=	-233.1	233.1	12.0	3.0
=	-233.9	233.9	12.0	2.9
=	-234.8	234.8	12.0	2.9
=	-235.5	235.5	12.0	2.8
=	-236.2	236.2	12.0	2.8
=	-236.9	236.9	12.0	2.8
=	-237.6	237.6	12.0	2.7
=	-238.3	238.3	12.0	2.7
=	-239.0	239.0	12.0	2.7
=	-239.7	239.7	12.0	2.6
=	-240.4	240.4	12.0	2.6
=	-241.1	241.1	12.0	2.6
=	-241.9	241.9	12.0	2.5
=	-242.6	242.6	12.0	2.5
=	-243.8	243.8	12.0	2.5
=	-244.7	244.7	12.0	2.4
=	-245.4	245.4	12.0	2.4
=	-246.1	246.1	12.0	2.4
=	-246.9	246.9	12.0	2.3
=	-247.6	247.6	12.0	2.3
=	-248.2	248.2	12.0	2.3
=	-248.7	248.7	12.0	2.3
=	-249.2	249.2	12.0	2.3
=	-249.9	249.9	12.0	2.2
=	-250.6	250.6	12.0	2.2
=	-251.3	251.3	12.0	2.2
=	-252.0	252.0	12.0	2.2
=	-252.7	252.7	12.0	2.2
=	-253.5	253.5	12.0	2.1
=	-254.2	254.2	12.0	2.1
=	-254.9	254.9	12.0	2.1
=	-255.6	255.6	12.0	2.1
=	-256.3	256.3	12.0	2.1
=	-257.0	257.0	12.0	2.1
=	-257.7	257.7	12.0	2.0
=	-258.2	258.2	12.0	2.0
=	-258.6	258.6	12.0	2.0
=	-259.1	259.1	12.0	2.0
=	-259.6	259.6	12.0	2.0
=	-260.1	260.1	12.0	2.0
=	-260.6	260.6	12.0	2.0
=	-261.7	261.7	12.0	1.9
=	-263.1	263.1	12.0	1.9
=	-264.1	264.1	12.0	1.9
=	-264.9	264.9	12.0	1.9
=	-265.6	265.6	12.0	1.8
=	-266.3	266.3	12.0	1.8
=	-267.0	267.0	12.0	1.8
=	-267.7	267.7	12.0	1.8
=	-268.4	268.4	12.0	1.8
=	-269.1	269.1	12.0	1.8
=	-269.8	269.8	12.0	1.8
=	-270.5	270.5	12.0	1.8
=	-271.2	271.2	12.0	1.7
=	-271.7	271.7	12.0	1.7
=	-272.4	272.4	12.0	1.7
=	-273.1	273.1	12.0	1.7
=	-273.8	273.8	12.0	1.7
=	-274.5	274.5	12.0	1.7
=	-275.2	275.2	12.0	1.7
=	-275.9	275.9	12.0	1.7
=	-276.4	276.4	12.0	1.6
=	-277.1	277.1	12.0	1.6
=	-277.8	277.8	12.0	1.6
=	-278.4	278.4	12.0	1.6
=	-278.9	278.9	12.0	1.6
=	-279.9	279.9	12.0	1.6
=	-280.9	280.9	12.0	1.6
=	-281.6	281.6	12.0	1.6
=	-282.1	282.1	12.0	1.5
:EOM # End of Measurement
#
# RFA300 ASCII Measurement Dump ( BDS format )
#
# Measurement number 	2
#
%VNR 1.0
%MOD 	RAT
%TYP 	SCN
%SCN 	DIA
%FLD 	ION
%DAT 	02-03-2012
%TIM 	12:00:00
%FSZ 	400	400
%BMT 	PHO	   4.0
%SSD 	1000
%BUP 	0
%BRD 	1000
%FSH 	1
%ASC 	0
%WEG 	0
%GPO 	0
%CPO 	0
%MEA 	2
%PRD 	50,0
%PTS 	810
%STS 	    289.8	  -289.8	   50.0 # Start Scan values in mm ( X , Y , Z )
%EDS 	    -289.0	   289.0	   50.0 # End Scan values in mm ( X , Y , Z )
#
#	  X      Y      Z     Dose
#
=	289.8	-289.8	50.0	1.9
=	288.8	-288.8	50.0	1.9
=	288.1	-288.1	50.0	2.0
=	287.4	-287.4	50.0	2.0
=	286.7	-286.7	50.0	2.0
=	286.0	-286.0	50.0	2.0
=	285.5	-285.5	50.0	2.0
=	284.9	-284.9	50.0	2.0
=	284.2	-284.2	50.0	2.0
=	283.5	-283.5	50.0	2.0
=	282.7	-282.7	50.0	2.1
=	282.0	-282.0	50.0	2.1
=	281.3	-281.3	50.0	2.1
=	280.6	-280.6	50.0	2.1
=	279.7	-279.7	50.0	2.1
=	278.6	-278.6	50.0	2.2
=	277.9	-277.9	50.0	2.2
=	277.2	-277.2	50.0	2.2
=	276.5	-276.5	50.0	2.2
=	275.8	-275.8	50.0	2.2
=	275.1	-275.1	50.0	2.3
=	274.5	-274.5	50.0	2.3
=	273.9	-273.9	50.0	2.3
=	273.2	-273.2	50.0	2.3
=	272.7	-272.7	50.0	2.3
=	272.1	-272.1	50.0	2.3
=	271.2	-271.2	50.0	2.4
=	270.5	-270.5	50.0	2.4
=	269.8	-269.8	50.0	2.4
=	269.1	-269.1	50.0	2.4
=	268.4	-268.4	50.0	2.5
=	267.6	-267.6	50.0	2.5
=	267.0	-267.0	50.0	2.5
=	266.4	-266.4	50.0	2.5
=	265.9	-265.9	50.0	2.5
=	265.5	-265.5	50.0	2.5
=	265.0	-265.0	50.0	2.6
=	264.4	-264.4	50.0	2.6
=	263.7	-263.7	50.0	2.6
=	263.0	-263.0	50.0	2.6
=	262.3	-262.3	50.0	2.7
=	261.6	-261.6	50.0	2.7
=	260.9	-260.9	50.0	2.7
=	260.2	-260.2	50.0	2.7
=	259.4	-259.4	50.0	2.8
=	258.7	-258.7	50.0	2.8
=	258.0	-258.0	50.0	2.8
=	257.5	-257.5	50.0	2.9
=	256.8	-256.8	50.0	2.9
=	256.1	-256.1	50.0	2.9
=	255.4	-255.4	50.0	2.9
=	254.6	-254.6	50.0	3.0
=	253.9	-253.9	50.0	3.0
=	253.2	-253.2	50.0	3.0
=	252.5	-252.5	50.0	3.1
=	251.8	-251.8	50.0	3.1
=	251.1	-251.1	50.0	3.1
=	250.5	-250.5	50.0	3.2
=	249.8	-249.8	50.0	3.2
=	249.1	-249.1	50.0	3.2
=	248.4	-248.4	50.0	3.3
=	247.6	-247.6	50.0	3.3
=	246.3	-246.3	50.0	3.4
=	244.9	-244.9	50.0	3.5
=	243.8	-243.8	50.0	3.5
=	243.0	-243.0	50.0	3.6
=	242.3	-242.3	50.0	3.6
=	241.4	-241.4	50.0	3.7
=	240.7	-240.7	50.0	3.7
=	240.0	-240.0	50.0	3.8
=	239.3	-239.3	50.0	3.9
=	238.6	-238.6	50.0	3.9
=	237.9	-237.9	50.0	4.0
=	237.2	-237.2	50.0	4.0
=	236.5	-236.5	50.0	4.1
=	235.8	-235.8	50.0	4.1
=	235.1	-235.1	50.0	4.2
=	234.4	-234.4	50.0	4.2
=	233.7	-233.7	50.0	4.3
=	233.0	-233.0	50.0	4.4
=	232.0	-232.0	50.0	4.5
=	231.2	-231.2	50.0	4.5
=	230.0	-230.0	50.0	4.7
=	228.9	-228.9	50.0	4.8
=	227.5	-227.5	50.0	4.9
=	226.1	-226.1	50.0	5.1
=	224.7	-224.7	50.0	5.3
=	223.3	-223.3	50.0	5.4
=	222.2	-222.2	50.0	5.6
=	221.2	-221.2	50.0	5.7
=	220.4	-220.4	50.0	5.8
=	219.7	-219.7	50.0	5.9
=	219.0	-219.0	50.0	6.0
=	218.3	-218.3	50.0	6.1
=	217.6	-217.6	50.0	6.2
=	216.9	-216.9	50.0	6.3
=	216.3	-216.3	50.0	6.4
=	215.4	-215.4	50.0	6.5
=	214.0	-214.0	50.0	6.8
=	213.0	-213.0	50.0	7.0
=	212.3	-212.3	50.0	7.1
=	211.6	-211.6	50.0	7.2
=	210.9	-210.9	50.0	7.3
=	210.0	-210.0	50.0	7.5
=	208.8	-208.8	50.0	7.8
=	208.1	-208.1	50.0	7.9
=	207.4	-207.4	50.0	8.1
=	206.7	-206.7	50.0	8.2
=	206.1	-206.1	50.0	8.4
=	205.4	-205.4	50.0	8.6
=	204.7	-204.7	50.0	8.8
=	204.0	-204.0	50.0	8.9
=	203.2	-203.2	50.0	9.2
=	201.9	-201.9	50.0	9.5
=	201.2	-201.2	50.0	9.7
=	200.5	-200.5	50.0	10.0
=	199.8	-199.8	50.0	10.2
=	199.0	-199.0	50.0	10.5
=	198.3	-198.3	50.0	10.7
=	197.7	-197.7	50.0	11.0
=	197.1	-197.1	50.0	11.2
=	196.5	-196.5	50.0	11.5
=	195.7	-195.7	50.0	11.9
=	194.9	-194.9	50.0	12.5
=	193.9	-193.9	50.0	13.3
=	193.0	-193.0	50.0	14.4
=	192.1	-192.1	50.0	15.6
=	191.4	-191.4	50.0	16.8
=	190.7	-190.7	50.0	18.3
=	190.0	-190.0	50.0	20.4
=	189.3	-189.3	50.0	23.0
=	188.6	-188.6	50.0	26.3
=	187.9	-187.9	50.0	30.4
=	187.2	-187.2	50.0	35.5
=	186.5	-186.5	50.0	41.6
=	185.8	-185.8	50.0	48.0
=	185.1	-185.1	50.0	54.5
=	184.4	-184.4	50.0	60.2
=	183.9	-183.9	50.0	64.9
=	182.8	-182.8	50.0	71.7
=	182.0	-182.0	50.0	74.9
=	181.3	-181.3	50.0	76.8
=	180.7	-180.7	50.0	78.1
=	180.1	-180.1	50.0	79.1
=	179.4	-179.4	50.0	80.3
=	178.7	-178.7	50.0	81.4
=	177.9	-177.9	50.0	82.7
=	176.8	-176.8	50.0	84.6
=	176.0	-176.0	50.0	86.2
=	175.2	-175.2	50.0	87.5
=	174.5	-174.5	50.0	88.8
=	173.8	-173.8	50.0	90.0
=	173.1	-173.1	50.0	91.2
=	172.4	-172.4	50.0	92.2
=	172.0	-172.0	50.0	93.1
=	171.5	-171.5	50.0	93.8
=	170.9	-170.9	50.0	94.7
=	170.4	-170.4	50.0	95.3
=	169.7	-169.7	50.0	96.3
=	169.0	-169.0	50.0	97.1
=	168.3	-168.3	50.0	97.9
=	167.5	-167.5	50.0	98.5
=	166.9	-166.9	50.0	99.1
=	166.2	-166.2	50.0	99.5
=	165.5	-165.5	50.0	100.1
=	164.8	-164.8	50.0	100.5
=	164.1	-164.1	50.0	100.9
=	163.4	-163.4	50.0	101.3
=	162.7	-162.7	50.0	101.6
=	162.2	-162.2	50.0	101.8
=	161.7	-161.7	50.0	101.9
=	161.2	-161.2	50.0	102.1
=	160.8	-160.8	50.0	102.3
=	160.3	-160.3	50.0	102.4
=	159.8	-159.8	50.0	102.5
=	159.3	-159.3	50.0	102.6
=	158.8	-158.8	50.0	102.7
=	158.2	-158.2	50.0	102.9
=	157.5	-157.5	50.0	103.0
=	156.8	-156.8	50.0	103.1
=	156.0	-156.0	50.0	103.3
=	155.0	-155.0	50.0	103.4
=	154.2	-154.2	50.0	103.5
=	153.4	-153.4	50.0	103.6
=	152.7	-152.7	50.0	103.7
=	152.0	-152.0	50.0	103.7
=	151.4	-151.4	50.0	103.8
=	150.8	-150.8	50.0	103.9
=	150.2	-150.2	50.0	103.9
=	149.5	-149.5	50.0	104.0
=	148.8	-148.8	50.0	104.0
=	147.9	-147.9	50.0	104.1
=	146.7	-146.7	50.0	104.2
=	146.0	-146.0	50.0	104.3
=	145.3	-145.3	50.0	104.3
=	144.6	-144.6	50.0	104.4
=	143.9	-143.9	50.0	104.4
=	143.2	-143.2	50.0	104.5
=	142.4	-142.4	50.0	104.5
=	141.8	-141.8	50.0	104.5
=	141.0	-141.0	50.0	104.6
=	140.3	-140.3	50.0	104.6
=	139.6	-139.6	50.0	104.7
=	138.6	-138.6	50.0	104.7
=	138.0	-138.0	50.0	104.8
=	137.3	-137.3	50.0	104.8
=	136.6	-136.6	50.0	104.8
=	135.9	-135.9	50.0	104.9
=	135.0	-135.0	50.0	104.9
=	133.6	-133.6	50.0	105.0
=	132.3	-132.3	50.0	105.1
=	131.5	-131.5	50.0	105.1
=	130.6	-130.6	50.0	105.2
=	129.9	-129.9	50.0	105.2
=	129.2	-129.2	50.0	105.2
=	128.5	-128.5	50.0	105.2
=	127.9	-127.9	50.0	105.2
=	127.3	-127.3	50.0	105.3
=	126.6	-126.6	50.0	105.3
=	126.0	-126.0	50.0	105.3
=	125.5	-125.5	50.0	105.4
=	125.0	-125.0	50.0	105.4
=	124.4	-124.4	50.0	105.4
=	123.5	-123.5	50.0	105.5
=	122.8	-122.8	50.0	105.5
=	122.0	-122.0	50.0	105.5
=	121.3	-121.3	50.0	105.6
=	120.6	-120.6	50.0	105.6
=	119.9	-119.9	50.0	105.6
=	119.2	-119.2	50.0	105.6
=	118.7	-118.7	50.0	105.7
=	118.1	-118.1	50.0	105.7
=	117.4	-117.4	50.0	105.7
=	116.7	-116.7	50.0	105.7
=	116.0	-116.0	50.0	105.7
=	115.3	-115.3	50.0	105.8
=	114.7	-114.7	50.0	105.8
=	114.1	-114.1	50.0	105.9
=	113.6	-113.6	50.0	105.9
=	113.1	-113.1	50.0	105.9
=	112.6	-112.6	50.0	105.9
=	112.1	-112.1	50.0	105.9
=	111.6	-111.6	50.0	105.9
=	111.0	-111.0	50.0	105.9
=	110.2	-110.2	50.0	105.9
=	109.7	-109.7	50.0	105.9
=	109.2	-109.2	50.0	105.9
=	108.5	-108.5	50.0	105.9
=	107.8	-107.8	50.0	105.9
=	107.0	-107.0	50.0	106.0
=	106.3	-106.3	50.0	106.0
=	105.7	-105.7	50.0	106.0
=	105.1	-105.1	50.0	105.9
=	104.4	-104.4	50.0	105.8
=	103.9	-103.9	50.0	105.8
=	103.4	-103.4	50.0	105.8
=	102.7	-102.7	50.0	105.8
=	102.0	-102.0	50.0	105.7
=	101.3	-101.3	50.0	105.7
=	100.7	-100.7	50.0	105.7
=	100.2	-100.2	50.0	105.6
=	99.8	-99.8	50.0	105.6
=	99.3	-99.3	50.0	105.6
=	98.7	-98.7	50.0	105.5
=	98.0	-98.0	50.0	105.5
=	97.2	-97.2	50.0	105.4
=	96.5	-96.5	50.0	105.4
=	95.8	-95.8	50.0	105.4
=	95.1	-95.1	50.0	105.3
=	94.4	-94.4	50.0	105.3
=	93.7	-93.7	50.0	105.3
=	93.0	-93.0	50.0	105.2
=	92.3	-92.3	50.0	105.2
=	91.6	-91.6	50.0	105.1
=	91.1	-91.1	50.0	105.1
=	90.6	-90.6	50.0	105.0
=	89.9	-89.9	50.0	105.0
=	89.1	-89.1	50.0	105.0
=	88.3	-88.3	50.0	105.0
=	87.6	-87.6	50.0	104.9
=	86.7	-86.7	50.0	104.9
=	86.0	-86.0	50.0	104.9
=	85.4	-85.4	50.0	104.9
=	84.9	-84.9	50.0	104.9
=	84.4	-84.4	50.0	104.9
=	83.9	-83.9	50.0	104.8
=	83.3	-83.3	50.0	104.8
=	82.7	-82.7	50.0	104.8
=	82.1	-82.1	50.0	104.8
=	81.5	-81.5	50.0	104.7
=	80.8	-80.8	50.0	104.7
=	80.1	-80.1	50.0	104.7
=	79.4	-79.4	50.0	104.7
=	78.2	-78.2	50.0	104.6
=	76.8	-76.8	50.0	104.6
=	75.7	-75.7	50.0	104.5
=	75.0	-75.0	50.0	104.4
=	74.3	-74.3	50.0	104.4
=	73.6	-73.6	50.0	104.4
=	72.9	-72.9	50.0	104.3
=	72.2	-72.2	50.0	104.3
=	71.5	-71.5	50.0	104.3
=	70.8	-70.8	50.0	104.2
=	70.1	-70.1	50.0	104.2
=	69.4	-69.4	50.0	104.1
=	68.7	-68.7	50.0	104.0
=	68.0	-68.0	50.0	103.9
=	67.0	-67.0	50.0	103.9
=	65.7	-65.7	50.0	103.8
=	64.3	-64.3	50.0	103.8
=	62.8	-62.8	50.0	103.7
=	61.4	-61.4	50.0	103.7
=	60.0	-60.0	50.0	103.7
=	59.2	-59.2	50.0	103.6
=	58.5	-58.5	50.0	103.6
=	57.7	-57.7	50.0	103.6
=	57.0	-57.0	50.0	103.5
=	56.3	-56.3	50.0	103.5
=	55.6	-55.6	50.0	103.4
=	54.9	-54.9	50.0	103.4
=	54.3	-54.3	50.0	103.4
=	53.6	-53.6	50.0	103.3
=	52.9	-52.9	50.0	103.3
=	51.8	-51.8	50.0	103.3
=	50.7	-50.7	50.0	103.2
=	49.7	-49.7	50.0	103.2
=	49.0	-49.0	50.0	103.2
=	48.4	-48.4	50.0	103.1
=	47.7	-47.7	50.0	103.1
=	47.0	-47.0	50.0	103.0
=	46.2	-46.2	50.0	103.0
=	45.4	-45.4	50.0	103.0
=	44.7	-44.7	50.0	102.9
=	44.0	-44.0	50.0	102.9
=	43.3	-43.3	50.0	102.9
=	42.8	-42.8	50.0	102.8
=	42.4	-42.4	50.0	102.8
=	41.9	-41.9	50.0	102.8
=	41.4	-41.4	50.0	102.8
=	40.9	-40.9	50.0	102.7
=	40.3	-40.3	50.0	102.7
=	39.9	-39.9	50.0	102.6
=	39.4	-39.4	50.0	102.6
=	38.9	-38.9	50.0	102.6
=	38.4	-38.4	50.0	102.6
=	38.0	-38.0	50.0	102.5
=	37.5	-37.5	50.0	102.5
=	37.0	-37.0	50.0	102.4
=	36.3	-36.3	50.0	102.4
=	35.6	-35.6	50.0	102.4
=	34.9	-34.9	50.0	102.3
=	34.2	-34.2	50.0	102.3
=	33.5	-33.5	50.0	102.2
=	32.7	-32.7	50.0	102.1
=	32.0	-32.0	50.0	102.1
=	31.3	-31.3	50.0	102.0
=	30.6	-30.6	50.0	102.0
=	29.9	-29.9	50.0	101.9
=	29.2	-29.2	50.0	101.9
=	28.6	-28.6	50.0	101.8
=	28.0	-28.0	50.0	101.8
=	27.4	-27.4	50.0	101.7
=	26.7	-26.7	50.0	101.7
=	26.2	-26.2	50.0	101.6
=	25.4	-25.4	50.0	101.5
=	24.7	-24.7	50.0	101.5
=	24.0	-24.0	50.0	101.4
=	23.3	-23.3	50.0	101.4
=	22.6	-22.6	50.0	101.3
=	21.9	-21.9	50.0	101.3
=	21.3	-21.3	50.0	101.3
=	20.8	-20.8	50.0	101.2
=	20.3	-20.3	50.0	101.2
=	19.9	-19.9	50.0	101.2
=	19.4	-19.4	50.0	101.1
=	18.9	-18.9	50.0	101.1
=	18.4	-18.4	50.0	101.0
=	18.0	-18.0	50.0	100.9
=	17.5	-17.5	50.0	100.9
=	17.0	-17.0	50.0	100.9
=	16.5	-16.5	50.0	100.9
=	16.0	-16.0	50.0	100.9
=	15.3	-15.3	50.0	100.9
=	14.6	-14.6	50.0	100.8
=	13.9	-13.9	50.0	100.8
=	13.1	-13.1	50.0	100.7
=	12.4	-12.4	50.0	100.7
=	11.8	-11.8	50.0	100.6
=	11.2	-11.2	50.0	100.6
=	10.5	-10.5	50.0	100.5
=	10.0	-10.0	50.0	100.5
=	9.5	-9.5	50.0	100.4
=	9.0	-9.0	50.0	100.3
=	8.6	-8.6	50.0	100.3
=	8.1	-8.1	50.0	100.3
=	7.6	-7.6	50.0	100.2
