:MSR 	25	 # No. of measurement in file
:SYS BDS 0   # Beam Data Scanner System
#
# RFA300 ASCII Measurement Dump ( BDS format )
#
# Measurement number 	1
#
%VNR 1.0
%MOD 	RAT
%TYP 	SCN
%SCN 	PRO
%FLD 	ION
%DAT 	09-23-2011
%TIM 	12:00:00
%FSZ 	040	040
%BMT 	PHO	   15.0
%SSD 	1000
%BUP 	0
%BRD 	1000
%FSH 	1
%ASC 	0
%WEG 	30
%GPO 	0
%CPO 	0
%MEA 	6
%PRD 	30,0
%PTS 	502
%STS 	    -70.3	  0.0	   30.0 # Start Scan values in mm ( X , Y , Z )
%EDS 	    70.5	   0.0	   30.0 # End Scan values in mm ( X , Y , Z )
#
#	  X      Y      Z     Dose
#
=	-70.3	0.0	30.0	0.9
=	-70.0	0.0	30.0	0.9
=	-69.7	0.0	30.0	0.9
=	-69.5	0.0	30.0	0.9
=	-69.2	0.0	30.0	0.9
=	-68.9	0.0	30.0	0.9
=	-68.7	0.0	30.0	0.9
=	-68.4	0.0	30.0	0.9
=	-68.2	0.0	30.0	0.9
=	-67.9	0.0	30.0	0.9
=	-67.7	0.0	30.0	1.0
=	-67.5	0.0	30.0	1.0
=	-67.1	0.0	30.0	1.0
=	-66.9	0.0	30.0	1.0
=	-66.6	0.0	30.0	1.0
=	-66.3	0.0	30.0	1.0
=	-65.8	0.0	30.0	1.0
=	-65.5	0.0	30.0	1.0
=	-65.2	0.0	30.0	1.0
=	-64.9	0.0	30.0	1.0
=	-64.6	0.0	30.0	1.0
=	-64.3	0.0	30.0	1.0
=	-64.1	0.0	30.0	1.0
=	-63.8	0.0	30.0	1.0
=	-63.6	0.0	30.0	1.0
=	-63.3	0.0	30.0	1.0
=	-63.0	0.0	30.0	1.0
=	-62.7	0.0	30.0	1.0
=	-62.5	0.0	30.0	1.0
=	-62.1	0.0	30.0	1.0
=	-61.8	0.0	30.0	1.1
=	-61.5	0.0	30.0	1.1
=	-61.3	0.0	30.0	1.1
=	-61.0	0.0	30.0	1.1
=	-60.6	0.0	30.0	1.1
=	-60.4	0.0	30.0	1.1
=	-60.1	0.0	30.0	1.1
=	-59.9	0.0	30.0	1.1
=	-59.5	0.0	30.0	1.1
=	-59.2	0.0	30.0	1.1
=	-58.9	0.0	30.0	1.1
=	-58.7	0.0	30.0	1.1
=	-58.4	0.0	30.0	1.1
=	-58.2	0.0	30.0	1.1
=	-57.9	0.0	30.0	1.1
=	-57.6	0.0	30.0	1.2
=	-57.3	0.0	30.0	1.2
=	-57.1	0.0	30.0	1.2
=	-56.9	0.0	30.0	1.2
=	-56.7	0.0	30.0	1.2
=	-56.4	0.0	30.0	1.2
=	-56.0	0.0	30.0	1.2
=	-55.8	0.0	30.0	1.2
=	-55.4	0.0	30.0	1.2
=	-55.1	0.0	30.0	1.2
=	-54.8	0.0	30.0	1.2
=	-54.6	0.0	30.0	1.2
=	-54.3	0.0	30.0	1.2
=	-54.0	0.0	30.0	1.3
=	-53.8	0.0	30.0	1.3
=	-53.5	0.0	30.0	1.3
=	-53.2	0.0	30.0	1.3
=	-52.9	0.0	30.0	1.3
=	-52.6	0.0	30.0	1.3
=	-52.2	0.0	30.0	1.3
=	-52.0	0.0	30.0	1.3
=	-51.6	0.0	30.0	1.4
=	-51.3	0.0	30.0	1.4
=	-51.0	0.0	30.0	1.4
=	-50.8	0.0	30.0	1.4
=	-50.4	0.0	30.0	1.4
=	-50.1	0.0	30.0	1.4
=	-49.8	0.0	30.0	1.4
=	-49.5	0.0	30.0	1.4
=	-49.2	0.0	30.0	1.5
=	-48.9	0.0	30.0	1.5
=	-48.6	0.0	30.0	1.5
=	-48.3	0.0	30.0	1.5
=	-48.1	0.0	30.0	1.5
=	-47.8	0.0	30.0	1.5
=	-47.5	0.0	30.0	1.6
=	-47.3	0.0	30.0	1.6
=	-47.0	0.0	30.0	1.6
=	-46.8	0.0	30.0	1.6
=	-46.5	0.0	30.0	1.6
=	-46.2	0.0	30.0	1.6
=	-45.8	0.0	30.0	1.7
=	-45.5	0.0	30.0	1.7
=	-45.2	0.0	30.0	1.7
=	-44.9	0.0	30.0	1.7
=	-44.5	0.0	30.0	1.7
=	-44.2	0.0	30.0	1.7
=	-43.9	0.0	30.0	1.8
=	-43.7	0.0	30.0	1.8
=	-43.4	0.0	30.0	1.8
=	-43.1	0.0	30.0	1.8
=	-42.8	0.0	30.0	1.8
=	-42.6	0.0	30.0	1.9
=	-42.3	0.0	30.0	1.9
=	-42.0	0.0	30.0	1.9
=	-41.7	0.0	30.0	1.9
=	-41.4	0.0	30.0	1.9
=	-41.1	0.0	30.0	2.0
=	-40.8	0.0	30.0	2.0
=	-40.6	0.0	30.0	2.0
=	-40.3	0.0	30.0	2.1
=	-40.1	0.0	30.0	2.1
=	-39.8	0.0	30.0	2.1
=	-39.5	0.0	30.0	2.1
=	-39.3	0.0	30.0	2.2
=	-39.0	0.0	30.0	2.2
=	-38.7	0.0	30.0	2.3
=	-38.4	0.0	30.0	2.3
=	-38.2	0.0	30.0	2.4
=	-37.9	0.0	30.0	2.4
=	-37.5	0.0	30.0	2.5
=	-37.3	0.0	30.0	2.5
=	-37.0	0.0	30.0	2.5
=	-36.7	0.0	30.0	2.6
=	-36.4	0.0	30.0	2.6
=	-36.0	0.0	30.0	2.7
=	-35.7	0.0	30.0	2.7
=	-35.5	0.0	30.0	2.8
=	-35.2	0.0	30.0	2.9
=	-35.0	0.0	30.0	2.9
=	-34.7	0.0	30.0	3.0
=	-34.4	0.0	30.0	3.1
=	-34.1	0.0	30.0	3.2
=	-33.8	0.0	30.0	3.3
=	-33.5	0.0	30.0	3.4
=	-33.3	0.0	30.0	3.4
=	-33.0	0.0	30.0	3.5
=	-32.7	0.0	30.0	3.6
=	-32.4	0.0	30.0	3.7
=	-32.0	0.0	30.0	3.9
=	-31.7	0.0	30.0	4.0
=	-31.5	0.0	30.0	4.1
=	-31.3	0.0	30.0	4.3
=	-31.0	0.0	30.0	4.4
=	-30.7	0.0	30.0	4.7
=	-30.4	0.0	30.0	4.8
=	-30.1	0.0	30.0	5.0
=	-29.7	0.0	30.0	5.3
=	-29.4	0.0	30.0	5.6
=	-29.0	0.0	30.0	5.9
=	-28.7	0.0	30.0	6.3
=	-28.4	0.0	30.0	6.7
=	-28.1	0.0	30.0	7.0
=	-27.9	0.0	30.0	7.3
=	-27.6	0.0	30.0	7.6
=	-27.2	0.0	30.0	8.2
=	-26.9	0.0	30.0	8.6
=	-26.7	0.0	30.0	9.2
=	-26.4	0.0	30.0	9.7
=	-26.2	0.0	30.0	10.3
=	-25.8	0.0	30.0	11.1
=	-25.5	0.0	30.0	11.8
=	-25.3	0.0	30.0	12.8
=	-25.0	0.0	30.0	13.5
=	-24.8	0.0	30.0	14.3
=	-24.4	0.0	30.0	15.7
=	-24.1	0.0	30.0	17.1
=	-23.9	0.0	30.0	18.4
=	-23.6	0.0	30.0	20.1
=	-23.3	0.0	30.0	21.9
=	-23.1	0.0	30.0	23.9
=	-22.7	0.0	30.0	26.6
=	-22.5	0.0	30.0	28.9
=	-22.2	0.0	30.0	31.3
=	-22.0	0.0	30.0	33.9
=	-21.7	0.0	30.0	37.2
=	-21.4	0.0	30.0	39.6
=	-21.2	0.0	30.0	42.3
=	-20.9	0.0	30.0	45.0
=	-20.7	0.0	30.0	47.6
=	-20.5	0.0	30.0	50.1
=	-20.3	0.0	30.0	52.7
=	-19.9	0.0	30.0	56.8
=	-19.6	0.0	30.0	60.4
=	-19.2	0.0	30.0	64.6
=	-19.0	0.0	30.0	67.6
=	-18.7	0.0	30.0	70.0
=	-18.5	0.0	30.0	72.3
=	-18.2	0.0	30.0	75.6
=	-17.9	0.0	30.0	78.1
=	-17.6	0.0	30.0	81.2
=	-17.3	0.0	30.0	84.3
=	-17.0	0.0	30.0	86.2
=	-16.6	0.0	30.0	88.4
=	-16.3	0.0	30.0	90.0
=	-16.1	0.0	30.0	91.3
=	-15.9	0.0	30.0	92.2
=	-15.6	0.0	30.0	93.3
=	-15.3	0.0	30.0	94.2
=	-15.0	0.0	30.0	94.9
=	-14.8	0.0	30.0	96.1
=	-14.5	0.0	30.0	96.6
=	-14.1	0.0	30.0	97.2
=	-13.9	0.0	30.0	97.6
=	-13.6	0.0	30.0	98.0
=	-13.4	0.0	30.0	98.3
=	-13.1	0.0	30.0	98.8
=	-12.8	0.0	30.0	99.2
=	-12.6	0.0	30.0	99.3
=	-12.4	0.0	30.0	99.5
=	-12.1	0.0	30.0	99.8
=	-11.8	0.0	30.0	100.0
=	-11.5	0.0	30.0	100.2
=	-11.2	0.0	30.0	100.3
=	-11.0	0.0	30.0	100.5
=	-10.7	0.0	30.0	100.6
=	-10.4	0.0	30.0	100.7
=	-10.2	0.0	30.0	100.8
=	-9.9	0.0	30.0	100.9
=	-9.7	0.0	30.0	100.9
=	-9.4	0.0	30.0	101.1
=	-9.1	0.0	30.0	101.1
=	-8.8	0.0	30.0	101.1
=	-8.6	0.0	30.0	101.2
=	-8.3	0.0	30.0	101.2
=	-8.1	0.0	30.0	101.2
=	-7.8	0.0	30.0	101.3
=	-7.5	0.0	30.0	101.3
=	-7.3	0.0	30.0	101.3
=	-7.1	0.0	30.0	101.3
=	-6.8	0.0	30.0	101.3
=	-6.5	0.0	30.0	101.3
=	-6.3	0.0	30.0	101.3
=	-5.9	0.0	30.0	101.3
=	-5.5	0.0	30.0	101.2
=	-5.2	0.0	30.0	101.2
=	-4.9	0.0	30.0	101.2
=	-4.6	0.0	30.0	101.2
=	-4.4	0.0	30.0	101.1
=	-4.1	0.0	30.0	101.0
=	-3.8	0.0	30.0	101.0
=	-3.5	0.0	30.0	100.9
=	-3.2	0.0	30.0	100.9
=	-2.9	0.0	30.0	100.8
=	-2.7	0.0	30.0	100.8
=	-2.5	0.0	30.0	100.7
=	-2.2	0.0	30.0	100.6
=	-1.8	0.0	30.0	100.5
=	-1.4	0.0	30.0	100.4
=	-1.2	0.0	30.0	100.2
=	-1.0	0.0	30.0	100.1
=	-0.6	0.0	30.0	100.1
=	-0.3	0.0	30.0	100.0
=	0.0	0.0	30.0	100.0
=	0.3	0.0	30.0	100.0
=	0.6	0.0	30.0	99.9
=	0.8	0.0	30.0	99.8
=	1.1	0.0	30.0	99.7
=	1.3	0.0	30.0	99.6
=	1.6	0.0	30.0	99.6
=	1.9	0.0	30.0	99.6
=	2.2	0.0	30.0	99.5
=	2.5	0.0	30.0	99.5
=	2.7	0.0	30.0	99.4
=	3.0	0.0	30.0	99.4
=	3.2	0.0	30.0	99.4
=	3.5	0.0	30.0	99.3
=	3.8	0.0	30.0	99.2
=	4.0	0.0	30.0	99.1
=	4.3	0.0	30.0	99.0
=	4.6	0.0	30.0	99.0
=	5.0	0.0	30.0	98.9
=	5.3	0.0	30.0	98.8
=	5.6	0.0	30.0	98.7
=	5.9	0.0	30.0	98.6
=	6.2	0.0	30.0	98.5
=	6.4	0.0	30.0	98.4
=	6.7	0.0	30.0	98.3
=	7.0	0.0	30.0	98.2
=	7.4	0.0	30.0	98.1
=	7.7	0.0	30.0	98.0
=	7.9	0.0	30.0	97.8
=	8.2	0.0	30.0	97.7
=	8.5	0.0	30.0	97.5
=	8.8	0.0	30.0	97.4
=	9.1	0.0	30.0	97.3
=	9.5	0.0	30.0	97.1
=	9.7	0.0	30.0	97.0
=	10.0	0.0	30.0	96.9
=	10.2	0.0	30.0	96.7
=	10.5	0.0	30.0	96.5
=	10.8	0.0	30.0	96.3
=	11.0	0.0	30.0	96.1
=	11.3	0.0	30.0	95.8
=	11.6	0.0	30.0	95.4
=	11.8	0.0	30.0	95.2
=	12.1	0.0	30.0	95.0
=	12.4	0.0	30.0	94.8
=	12.6	0.0	30.0	94.4
=	12.8	0.0	30.0	94.1
=	13.1	0.0	30.0	93.7
=	13.4	0.0	30.0	93.2
=	13.7	0.0	30.0	92.8
=	14.0	0.0	30.0	92.2
=	14.3	0.0	30.0	91.5
=	14.6	0.0	30.0	91.0
=	14.8	0.0	30.0	90.5
=	15.1	0.0	30.0	89.6
=	15.4	0.0	30.0	88.6
=	15.7	0.0	30.0	87.8
=	16.0	0.0	30.0	86.8
=	16.3	0.0	30.0	85.9
=	16.5	0.0	30.0	85.0
=	16.8	0.0	30.0	83.6
=	17.0	0.0	30.0	82.0
=	17.3	0.0	30.0	80.0
=	17.6	0.0	30.0	78.2
=	17.9	0.0	30.0	75.6
=	18.2	0.0	30.0	73.5
=	18.4	0.0	30.0	71.7
=	18.7	0.0	30.0	69.0
=	19.1	0.0	30.0	64.9
=	19.4	0.0	30.0	61.6
=	19.7	0.0	30.0	58.4
=	20.0	0.0	30.0	55.9
=	20.3	0.0	30.0	52.4
=	20.5	0.0	30.0	49.2
=	20.9	0.0	30.0	45.9
=	21.1	0.0	30.0	42.9
=	21.4	0.0	30.0	40.3
=	21.6	0.0	30.0	37.6
=	21.9	0.0	30.0	34.7
=	22.2	0.0	30.0	31.7
=	22.5	0.0	30.0	28.7
=	22.8	0.0	30.0	26.5
=	23.0	0.0	30.0	24.4
=	23.4	0.0	30.0	22.0
=	23.6	0.0	30.0	20.1
=	23.9	0.0	30.0	18.5
=	24.2	0.0	30.0	17.0
=	24.4	0.0	30.0	15.6
=	24.7	0.0	30.0	14.6
=	25.0	0.0	30.0	13.4
=	25.3	0.0	30.0	12.5
=	25.6	0.0	30.0	11.5
=	25.8	0.0	30.0	10.9
=	26.1	0.0	30.0	10.2
=	26.3	0.0	30.0	9.6
=	26.6	0.0	30.0	9.2
=	26.9	0.0	30.0	8.6
=	27.2	0.0	30.0	8.0
=	27.5	0.0	30.0	7.5
=	27.7	0.0	30.0	7.2
=	28.0	0.0	30.0	6.8
=	28.4	0.0	30.0	6.3
=	28.7	0.0	30.0	6.0
=	28.9	0.0	30.0	5.7
=	29.2	0.0	30.0	5.5
=	29.5	0.0	30.0	5.2
=	29.8	0.0	30.0	4.9
=	30.1	0.0	30.0	4.7
=	30.4	0.0	30.0	4.6
=	30.7	0.0	30.0	4.4
=	30.9	0.0	30.0	4.2
=	31.2	0.0	30.0	4.1
=	31.5	0.0	30.0	4.0
=	31.8	0.0	30.0	3.8
=	32.1	0.0	30.0	3.6
=	32.3	0.0	30.0	3.5
=	32.7	0.0	30.0	3.4
=	33.0	0.0	30.0	3.3
=	33.2	0.0	30.0	3.2
=	33.5	0.0	30.0	3.2
=	33.7	0.0	30.0	3.1
=	34.0	0.0	30.0	3.0
=	34.3	0.0	30.0	2.9
=	34.6	0.0	30.0	2.9
=	34.8	0.0	30.0	2.8
=	35.1	0.0	30.0	2.7
=	35.4	0.0	30.0	2.6
=	35.6	0.0	30.0	2.6
=	35.9	0.0	30.0	2.5
=	36.1	0.0	30.0	2.5
=	36.4	0.0	30.0	2.4
=	36.6	0.0	30.0	2.4
=	36.9	0.0	30.0	2.3
=	37.1	0.0	30.0	2.2
=	37.3	0.0	30.0	2.2
=	37.6	0.0	30.0	2.2
=	37.9	0.0	30.0	2.2
=	38.1	0.0	30.0	2.2
=	38.3	0.0	30.0	2.1
=	38.6	0.0	30.0	2.1
=	38.9	0.0	30.0	2.0
=	39.2	0.0	30.0	2.0
=	39.6	0.0	30.0	2.0
=	39.8	0.0	30.0	1.9
=	40.2	0.0	30.0	1.9
=	40.6	0.0	30.0	1.9
=	40.9	0.0	30.0	1.8
=	41.1	0.0	30.0	1.8
=	41.3	0.0	30.0	1.8
=	41.6	0.0	30.0	1.8
=	41.9	0.0	30.0	1.8
=	42.1	0.0	30.0	1.7
=	42.5	0.0	30.0	1.7
=	42.8	0.0	30.0	1.7
=	43.1	0.0	30.0	1.7
=	43.3	0.0	30.0	1.6
=	43.6	0.0	30.0	1.6
=	43.9	0.0	30.0	1.6
=	44.1	0.0	30.0	1.6
=	44.3	0.0	30.0	1.6
=	44.7	0.0	30.0	1.5
=	45.0	0.0	30.0	1.5
=	45.3	0.0	30.0	1.5
=	45.6	0.0	30.0	1.5
=	45.9	0.0	30.0	1.5
=	46.2	0.0	30.0	1.5
=	46.5	0.0	30.0	1.4
=	46.8	0.0	30.0	1.4
=	47.1	0.0	30.0	1.4
=	47.4	0.0	30.0	1.4
=	47.7	0.0	30.0	1.4
=	48.0	0.0	30.0	1.4
=	48.2	0.0	30.0	1.4
=	48.5	0.0	30.0	1.3
=	48.7	0.0	30.0	1.3
=	49.0	0.0	30.0	1.3
=	49.4	0.0	30.0	1.3
=	49.7	0.0	30.0	1.3
=	49.9	0.0	30.0	1.3
=	50.3	0.0	30.0	1.3
=	50.6	0.0	30.0	1.2
=	50.9	0.0	30.0	1.2
=	51.2	0.0	30.0	1.2
=	51.5	0.0	30.0	1.2
=	51.8	0.0	30.0	1.2
=	52.0	0.0	30.0	1.2
=	52.3	0.0	30.0	1.2
=	52.5	0.0	30.0	1.2
=	52.8	0.0	30.0	1.2
=	53.0	0.0	30.0	1.1
=	53.3	0.0	30.0	1.1
=	53.6	0.0	30.0	1.1
=	53.9	0.0	30.0	1.1
=	54.3	0.0	30.0	1.1
=	54.6	0.0	30.0	1.1
=	54.8	0.0	30.0	1.1
=	55.0	0.0	30.0	1.1
=	55.3	0.0	30.0	1.1
=	55.7	0.0	30.0	1.1
=	55.9	0.0	30.0	1.1
=	56.2	0.0	30.0	1.1
=	56.5	0.0	30.0	1.1
=	56.7	0.0	30.0	1.1
=	57.0	0.0	30.0	1.0
=	57.4	0.0	30.0	1.0
=	57.6	0.0	30.0	1.0
=	57.9	0.0	30.0	1.0
=	58.2	0.0	30.0	1.0
=	58.4	0.0	30.0	1.0
=	58.6	0.0	30.0	1.0
=	58.9	0.0	30.0	1.0
=	59.2	0.0	30.0	1.0
=	59.4	0.0	30.0	1.0
=	59.6	0.0	30.0	1.0
=	59.9	0.0	30.0	1.0
=	60.2	0.0	30.0	1.0
=	60.4	0.0	30.0	1.0
=	60.7	0.0	30.0	1.0
=	61.0	0.0	30.0	1.0
=	61.2	0.0	30.0	1.0
=	61.5	0.0	30.0	1.0
=	61.8	0.0	30.0	0.9
=	62.0	0.0	30.0	0.9
=	62.2	0.0	30.0	0.9
=	62.5	0.0	30.0	0.9
=	62.8	0.0	30.0	0.9
=	63.1	0.0	30.0	0.9
=	63.3	0.0	30.0	0.9
=	63.6	0.0	30.0	0.9
=	63.8	0.0	30.0	0.9
=	64.1	0.0	30.0	0.9
=	64.5	0.0	30.0	0.9
=	64.7	0.0	30.0	0.9
=	65.0	0.0	30.0	0.9
=	65.2	0.0	30.0	0.9
=	65.5	0.0	30.0	0.9
=	65.8	0.0	30.0	0.8
=	66.0	0.0	30.0	0.8
=	66.4	0.0	30.0	0.8
=	66.6	0.0	30.0	0.8
=	66.8	0.0	30.0	0.8
=	67.1	0.0	30.0	0.8
=	67.4	0.0	30.0	0.8
=	67.7	0.0	30.0	0.8
=	68.1	0.0	30.0	0.8
=	68.4	0.0	30.0	0.8
=	68.7	0.0	30.0	0.8
=	69.0	0.0	30.0	0.8
=	69.2	0.0	30.0	0.8
=	69.4	0.0	30.0	0.8
=	69.7	0.0	30.0	0.8
=	70.0	0.0	30.0	0.8
=	70.3	0.0	30.0	0.8
=	70.5	0.0	30.0	0.7
:EOM # End of Measurement
#
# RFA300 ASCII Measurement Dump ( BDS format )
#
# Measurement number 	2
#
%VNR 1.0
%MOD 	RAT
%TYP 	SCN
%SCN 	PRO
%FLD 	ION
%DAT 	09-23-2011
%TIM 	12:00:00
%FSZ 	040	040
%BMT 	PHO	   15.0
%SSD 	1000
%BUP 	0
%BRD 	1000
%FSH 	1
%ASC 	0
%WEG 	30
%GPO 	0
%CPO 	0
%MEA 	6
%PRD 	50,0
%PTS 	998
%STS 	    -71.0	  0.0	   50.0 # Start Scan values in mm ( X , Y , Z )
%EDS 	    71.0	   0.0	   50.0 # End Scan values in mm ( X , Y , Z )
#
#	  X      Y      Z     Dose
#
=	-71.0	0.0	50.0	0.8
=	-70.8	0.0	50.0	0.8
=	-70.6	0.0	50.0	0.8
=	-70.5	0.0	50.0	0.8
=	-70.3	0.0	50.0	0.8
=	-70.2	0.0	50.0	0.8
=	-70.1	0.0	50.0	0.8
=	-69.9	0.0	50.0	0.8
=	-69.7	0.0	50.0	0.8
=	-69.6	0.0	50.0	0.8
=	-69.5	0.0	50.0	0.8
=	-69.4	0.0	50.0	0.8
=	-69.3	0.0	50.0	0.8
=	-69.1	0.0	50.0	0.8
=	-69.0	0.0	50.0	0.8
=	-68.8	0.0	50.0	0.8
=	-68.7	0.0	50.0	0.8
=	-68.6	0.0	50.0	0.8
=	-68.4	0.0	50.0	0.8
=	-68.2	0.0	50.0	0.9
=	-68.0	0.0	50.0	0.9
=	-67.9	0.0	50.0	0.9
=	-67.8	0.0	50.0	0.9
=	-67.7	0.0	50.0	0.9
=	-67.6	0.0	50.0	0.9
=	-67.3	0.0	50.0	0.9
=	-67.2	0.0	50.0	0.9
=	-67.1	0.0	50.0	0.9
=	-66.9	0.0	50.0	0.9
=	-66.8	0.0	50.0	0.9
=	-66.7	0.0	50.0	0.9
=	-66.5	0.0	50.0	0.9
=	-66.3	0.0	50.0	0.9
=	-66.2	0.0	50.0	0.9
=	-66.0	0.0	50.0	0.9
=	-65.9	0.0	50.0	0.9
=	-65.8	0.0	50.0	0.9
=	-65.6	0.0	50.0	0.9
=	-65.5	0.0	50.0	0.9
=	-65.4	0.0	50.0	0.9
=	-65.3	0.0	50.0	0.9
=	-65.1	0.0	50.0	0.9
=	-65.0	0.0	50.0	0.9
=	-64.9	0.0	50.0	0.9
=	-64.7	0.0	50.0	0.9
=	-64.6	0.0	50.0	0.9
=	-64.5	0.0	50.0	0.9
=	-64.4	0.0	50.0	0.9
=	-64.2	0.0	50.0	0.9
=	-64.1	0.0	50.0	0.9
=	-64.0	0.0	50.0	0.9
=	-63.8	0.0	50.0	0.9
=	-63.7	0.0	50.0	0.9
=	-63.6	0.0	50.0	0.9
=	-63.4	0.0	50.0	0.9
=	-63.2	0.0	50.0	0.9
=	-63.0	0.0	50.0	0.9
=	-62.9	0.0	50.0	0.9
=	-62.8	0.0	50.0	0.9
=	-62.7	0.0	50.0	0.9
=	-62.5	0.0	50.0	1.0
=	-62.4	0.0	50.0	0.9
=	-62.3	0.0	50.0	0.9
=	-62.1	0.0	50.0	1.0
=	-62.0	0.0	50.0	1.0
=	-61.9	0.0	50.0	1.0
=	-61.7	0.0	50.0	1.0
=	-61.6	0.0	50.0	1.0
=	-61.5	0.0	50.0	1.0
=	-61.3	0.0	50.0	1.0
=	-61.1	0.0	50.0	1.0
=	-60.9	0.0	50.0	1.0
=	-60.7	0.0	50.0	1.0
=	-60.6	0.0	50.0	1.0
=	-60.5	0.0	50.0	1.0
=	-60.3	0.0	50.0	1.0
=	-60.1	0.0	50.0	1.0
=	-60.0	0.0	50.0	1.0
=	-59.9	0.0	50.0	1.0
=	-59.7	0.0	50.0	1.0
=	-59.6	0.0	50.0	1.0
=	-59.4	0.0	50.0	1.0
=	-59.3	0.0	50.0	1.0
=	-59.2	0.0	50.0	1.0
=	-59.0	0.0	50.0	1.0
=	-58.8	0.0	50.0	1.0
=	-58.7	0.0	50.0	1.0
=	-58.6	0.0	50.0	1.1
=	-58.5	0.0	50.0	1.1
=	-58.3	0.0	50.0	1.1
=	-58.2	0.0	50.0	1.1
=	-58.0	0.0	50.0	1.1
=	-57.9	0.0	50.0	1.1
=	-57.8	0.0	50.0	1.1
=	-57.7	0.0	50.0	1.1
=	-57.5	0.0	50.0	1.1
=	-57.3	0.0	50.0	1.1
=	-57.2	0.0	50.0	1.1
=	-57.0	0.0	50.0	1.1
=	-56.9	0.0	50.0	1.1
=	-56.8	0.0	50.0	1.1
=	-56.7	0.0	50.0	1.1
=	-56.5	0.0	50.0	1.1
=	-56.4	0.0	50.0	1.1
=	-56.3	0.0	50.0	1.1
=	-56.1	0.0	50.0	1.1
=	-55.9	0.0	50.0	1.1
=	-55.8	0.0	50.0	1.1
=	-55.7	0.0	50.0	1.1
=	-55.6	0.0	50.0	1.1
=	-55.4	0.0	50.0	1.1
=	-55.3	0.0	50.0	1.1
=	-55.1	0.0	50.0	1.1
=	-54.9	0.0	50.0	1.1
=	-54.8	0.0	50.0	1.1
=	-54.7	0.0	50.0	1.1
=	-54.6	0.0	50.0	1.2
=	-54.5	0.0	50.0	1.2
=	-54.3	0.0	50.0	1.2
=	-54.2	0.0	50.0	1.2
=	-54.1	0.0	50.0	1.2
=	-53.9	0.0	50.0	1.2
=	-53.7	0.0	50.0	1.2
=	-53.5	0.0	50.0	1.2
=	-53.4	0.0	50.0	1.2
=	-53.3	0.0	50.0	1.2
=	-53.2	0.0	50.0	1.2
=	-53.1	0.0	50.0	1.2
=	-52.9	0.0	50.0	1.2
=	-52.8	0.0	50.0	1.2
=	-52.7	0.0	50.0	1.3
=	-52.6	0.0	50.0	1.3
=	-52.4	0.0	50.0	1.3
=	-52.2	0.0	50.0	1.3
=	-52.0	0.0	50.0	1.3
=	-51.9	0.0	50.0	1.3
=	-51.8	0.0	50.0	1.3
=	-51.7	0.0	50.0	1.3
=	-51.5	0.0	50.0	1.3
=	-51.3	0.0	50.0	1.3
=	-51.1	0.0	50.0	1.3
=	-50.9	0.0	50.0	1.3
=	-50.7	0.0	50.0	1.3
=	-50.6	0.0	50.0	1.3
=	-50.5	0.0	50.0	1.3
=	-50.3	0.0	50.0	1.3
=	-50.2	0.0	50.0	1.3
=	-50.0	0.0	50.0	1.4
=	-49.9	0.0	50.0	1.4
=	-49.7	0.0	50.0	1.4
=	-49.6	0.0	50.0	1.4
=	-49.4	0.0	50.0	1.4
=	-49.2	0.0	50.0	1.4
=	-49.1	0.0	50.0	1.4
=	-48.9	0.0	50.0	1.4
=	-48.8	0.0	50.0	1.4
=	-48.7	0.0	50.0	1.4
=	-48.6	0.0	50.0	1.4
=	-48.5	0.0	50.0	1.4
=	-48.3	0.0	50.0	1.5
=	-48.1	0.0	50.0	1.5
=	-47.9	0.0	50.0	1.5
=	-47.8	0.0	50.0	1.5
=	-47.6	0.0	50.0	1.5
=	-47.5	0.0	50.0	1.5
=	-47.4	0.0	50.0	1.5
=	-47.2	0.0	50.0	1.5
=	-47.1	0.0	50.0	1.5
=	-47.0	0.0	50.0	1.5
=	-46.8	0.0	50.0	1.5
=	-46.7	0.0	50.0	1.5
=	-46.6	0.0	50.0	1.5
=	-46.5	0.0	50.0	1.5
=	-46.4	0.0	50.0	1.5
=	-46.2	0.0	50.0	1.6
=	-46.0	0.0	50.0	1.6
=	-45.9	0.0	50.0	1.6
=	-45.8	0.0	50.0	1.6
=	-45.6	0.0	50.0	1.6
=	-45.5	0.0	50.0	1.6
=	-45.4	0.0	50.0	1.6
=	-45.1	0.0	50.0	1.7
=	-45.0	0.0	50.0	1.7
=	-44.8	0.0	50.0	1.7
=	-44.7	0.0	50.0	1.7
=	-44.6	0.0	50.0	1.7
=	-44.5	0.0	50.0	1.7
=	-44.4	0.0	50.0	1.7
=	-44.3	0.0	50.0	1.7
=	-44.2	0.0	50.0	1.7
=	-44.0	0.0	50.0	1.8
=	-43.9	0.0	50.0	1.8
=	-43.7	0.0	50.0	1.8
=	-43.5	0.0	50.0	1.8
=	-43.4	0.0	50.0	1.8
=	-43.3	0.0	50.0	1.8
=	-43.2	0.0	50.0	1.8
=	-43.0	0.0	50.0	1.8
=	-42.8	0.0	50.0	1.8
=	-42.7	0.0	50.0	1.8
=	-42.6	0.0	50.0	1.8
=	-42.4	0.0	50.0	1.9
=	-42.2	0.0	50.0	1.9
=	-42.1	0.0	50.0	1.9
=	-42.0	0.0	50.0	1.9
=	-41.8	0.0	50.0	1.9
=	-41.6	0.0	50.0	2.0
=	-41.5	0.0	50.0	2.0
=	-41.4	0.0	50.0	2.0
=	-41.2	0.0	50.0	2.0
=	-41.0	0.0	50.0	2.0
=	-40.9	0.0	50.0	2.1
=	-40.8	0.0	50.0	2.1
=	-40.7	0.0	50.0	2.1
=	-40.5	0.0	50.0	2.1
=	-40.4	0.0	50.0	2.1
=	-40.2	0.0	50.0	2.1
=	-40.1	0.0	50.0	2.1
=	-39.9	0.0	50.0	2.2
=	-39.7	0.0	50.0	2.2
=	-39.5	0.0	50.0	2.2
=	-39.3	0.0	50.0	2.3
=	-39.2	0.0	50.0	2.3
=	-39.1	0.0	50.0	2.3
=	-38.9	0.0	50.0	2.3
=	-38.7	0.0	50.0	2.4
=	-38.6	0.0	50.0	2.4
=	-38.4	0.0	50.0	2.4
=	-38.3	0.0	50.0	2.5
=	-38.1	0.0	50.0	2.5
=	-38.0	0.0	50.0	2.5
=	-37.9	0.0	50.0	2.6
=	-37.7	0.0	50.0	2.6
=	-37.6	0.0	50.0	2.6
=	-37.5	0.0	50.0	2.6
=	-37.3	0.0	50.0	2.7
=	-37.2	0.0	50.0	2.7
=	-37.0	0.0	50.0	2.7
=	-36.9	0.0	50.0	2.7
=	-36.8	0.0	50.0	2.8
=	-36.7	0.0	50.0	2.8
=	-36.6	0.0	50.0	2.8
=	-36.5	0.0	50.0	2.9
=	-36.3	0.0	50.0	2.9
=	-36.2	0.0	50.0	2.9
=	-36.1	0.0	50.0	2.9
=	-36.0	0.0	50.0	2.9
=	-35.9	0.0	50.0	3.0
=	-35.7	0.0	50.0	3.0
=	-35.6	0.0	50.0	3.1
=	-35.5	0.0	50.0	3.1
=	-35.3	0.0	50.0	3.2
=	-35.1	0.0	50.0	3.2
=	-35.0	0.0	50.0	3.2
=	-34.9	0.0	50.0	3.3
=	-34.7	0.0	50.0	3.3
=	-34.6	0.0	50.0	3.4
=	-34.4	0.0	50.0	3.4
=	-34.3	0.0	50.0	3.4
=	-34.2	0.0	50.0	3.5
=	-34.1	0.0	50.0	3.5
=	-33.9	0.0	50.0	3.6
=	-33.7	0.0	50.0	3.7
=	-33.6	0.0	50.0	3.8
=	-33.4	0.0	50.0	3.8
=	-33.3	0.0	50.0	3.9
=	-33.2	0.0	50.0	3.9
=	-33.1	0.0	50.0	4.0
=	-32.9	0.0	50.0	4.0
=	-32.8	0.0	50.0	4.1
=	-32.6	0.0	50.0	4.2
=	-32.5	0.0	50.0	4.3
=	-32.3	0.0	50.0	4.4
=	-32.2	0.0	50.0	4.5
=	-32.1	0.0	50.0	4.5
=	-31.9	0.0	50.0	4.6
=	-31.8	0.0	50.0	4.7
=	-31.7	0.0	50.0	4.7
=	-31.6	0.0	50.0	4.8
=	-31.4	0.0	50.0	4.9
=	-31.3	0.0	50.0	4.9
=	-31.2	0.0	50.0	5.0
=	-31.1	0.0	50.0	5.1
=	-31.0	0.0	50.0	5.1
=	-30.8	0.0	50.0	5.3
=	-30.6	0.0	50.0	5.4
=	-30.5	0.0	50.0	5.5
=	-30.4	0.0	50.0	5.6
=	-30.2	0.0	50.0	5.7
=	-30.1	0.0	50.0	5.8
=	-30.0	0.0	50.0	5.9
=	-29.8	0.0	50.0	6.0
=	-29.7	0.0	50.0	6.2
=	-29.5	0.0	50.0	6.4
=	-29.3	0.0	50.0	6.6
=	-29.2	0.0	50.0	6.7
=	-29.1	0.0	50.0	6.8
=	-28.9	0.0	50.0	7.1
=	-28.8	0.0	50.0	7.3
=	-28.6	0.0	50.0	7.4
=	-28.5	0.0	50.0	7.6
=	-28.4	0.0	50.0	7.8
=	-28.2	0.0	50.0	8.0
=	-28.1	0.0	50.0	8.2
=	-28.0	0.0	50.0	8.4
=	-27.9	0.0	50.0	8.5
=	-27.6	0.0	50.0	8.9
=	-27.5	0.0	50.0	9.1
=	-27.3	0.0	50.0	9.5
=	-27.1	0.0	50.0	9.8
=	-27.0	0.0	50.0	10.2
=	-26.9	0.0	50.0	10.4
=	-26.7	0.0	50.0	10.7
=	-26.6	0.0	50.0	11.0
=	-26.5	0.0	50.0	11.4
=	-26.3	0.0	50.0	11.6
=	-26.2	0.0	50.0	11.9
=	-26.1	0.0	50.0	12.1
=	-26.0	0.0	50.0	12.4
=	-25.8	0.0	50.0	12.8
=	-25.7	0.0	50.0	13.2
=	-25.6	0.0	50.0	13.6
=	-25.5	0.0	50.0	14.1
=	-25.3	0.0	50.0	14.6
=	-25.1	0.0	50.0	15.3
=	-25.0	0.0	50.0	15.7
=	-24.9	0.0	50.0	16.1
=	-24.8	0.0	50.0	16.6
=	-24.7	0.0	50.0	17.1
=	-24.5	0.0	50.0	17.6
=	-24.4	0.0	50.0	18.3
=	-24.3	0.0	50.0	19.0
=	-24.1	0.0	50.0	19.7
=	-24.0	0.0	50.0	20.3
=	-23.9	0.0	50.0	21.2
=	-23.8	0.0	50.0	22.1
=	-23.6	0.0	50.0	23.4
=	-23.5	0.0	50.0	24.2
=	-23.3	0.0	50.0	25.3
=	-23.1	0.0	50.0	26.9
=	-22.9	0.0	50.0	28.5
=	-22.8	0.0	50.0	29.4
=	-22.7	0.0	50.0	30.7
=	-22.5	0.0	50.0	32.1
=	-22.4	0.0	50.0	33.7
=	-22.2	0.0	50.0	34.8
=	-22.1	0.0	50.0	36.5
=	-21.9	0.0	50.0	37.8
=	-21.8	0.0	50.0	39.3
=	-21.7	0.0	50.0	40.7
=	-21.6	0.0	50.0	41.9
=	-21.5	0.0	50.0	42.9
=	-21.4	0.0	50.0	44.2
=	-21.2	0.0	50.0	45.5
=	-21.1	0.0	50.0	46.8
=	-21.0	0.0	50.0	48.0
=	-20.9	0.0	50.0	49.2
=	-20.8	0.0	50.0	50.5
=	-20.7	0.0	50.0	51.8
=	-20.5	0.0	50.0	54.2
=	-20.3	0.0	50.0	55.7
=	-20.1	0.0	50.0	57.9
=	-20.0	0.0	50.0	59.6
=	-19.9	0.0	50.0	60.9
=	-19.7	0.0	50.0	62.9
=	-19.5	0.0	50.0	64.6
=	-19.3	0.0	50.0	66.5
=	-19.2	0.0	50.0	67.8
=	-19.1	0.0	50.0	69.0
=	-19.0	0.0	50.0	70.0
=	-18.8	0.0	50.0	72.1
=	-18.7	0.0	50.0	73.4
=	-18.5	0.0	50.0	74.7
=	-18.4	0.0	50.0	75.9
=	-18.3	0.0	50.0	76.8
=	-18.2	0.0	50.0	77.7
=	-18.0	0.0	50.0	79.2
=	-17.8	0.0	50.0	80.9
=	-17.6	0.0	50.0	82.7
=	-17.5	0.0	50.0	83.8
=	-17.3	0.0	50.0	85.1
=	-17.1	0.0	50.0	86.1
=	-17.0	0.0	50.0	86.8
=	-16.8	0.0	50.0	88.0
=	-16.7	0.0	50.0	88.6
=	-16.5	0.0	50.0	89.2
=	-16.4	0.0	50.0	89.7
=	-16.3	0.0	50.0	90.1
=	-16.2	0.0	50.0	90.7
=	-16.1	0.0	50.0	91.1
=	-15.9	0.0	50.0	91.7
=	-15.8	0.0	50.0	92.2
=	-15.7	0.0	50.0	92.6
=	-15.5	0.0	50.0	93.1
=	-15.3	0.0	50.0	93.9
=	-15.2	0.0	50.0	94.3
=	-15.0	0.0	50.0	94.6
=	-14.9	0.0	50.0	94.8
=	-14.7	0.0	50.0	95.1
=	-14.5	0.0	50.0	95.6
=	-14.4	0.0	50.0	96.0
=	-14.2	0.0	50.0	96.3
=	-14.1	0.0	50.0	96.4
=	-14.0	0.0	50.0	96.6
=	-13.9	0.0	50.0	96.7
=	-13.8	0.0	50.0	96.9
=	-13.7	0.0	50.0	97.2
=	-13.5	0.0	50.0	97.6
=	-13.3	0.0	50.0	97.9
=	-13.2	0.0	50.0	98.2
=	-13.0	0.0	50.0	98.5
=	-12.8	0.0	50.0	98.5
=	-12.7	0.0	50.0	98.6
=	-12.5	0.0	50.0	98.7
=	-12.4	0.0	50.0	98.9
=	-12.2	0.0	50.0	99.0
=	-12.0	0.0	50.0	99.1
=	-11.9	0.0	50.0	99.2
=	-11.8	0.0	50.0	99.2
=	-11.7	0.0	50.0	99.3
=	-11.5	0.0	50.0	99.4
=	-11.4	0.0	50.0	99.4
=	-11.3	0.0	50.0	99.5
=	-11.2	0.0	50.0	99.5
=	-11.0	0.0	50.0	99.6
=	-10.8	0.0	50.0	99.8
=	-10.7	0.0	50.0	99.9
=	-10.6	0.0	50.0	99.9
=	-10.5	0.0	50.0	100.0
=	-10.4	0.0	50.0	100.0
=	-10.2	0.0	50.0	100.1
=	-10.1	0.0	50.0	100.1
=	-10.0	0.0	50.0	100.2
=	-9.8	0.0	50.0	100.2
=	-9.7	0.0	50.0	100.3
=	-9.6	0.0	50.0	100.3
=	-9.5	0.0	50.0	100.4
=	-9.3	0.0	50.0	100.4
=	-9.2	0.0	50.0	100.5
=	-9.1	0.0	50.0	100.5
=	-8.9	0.0	50.0	100.6
=	-8.8	0.0	50.0	100.6
=	-8.6	0.0	50.0	100.6
=	-8.5	0.0	50.0	100.6
=	-8.4	0.0	50.0	100.6
=	-8.3	0.0	50.0	100.6
=	-8.1	0.0	50.0	100.7
=	-8.0	0.0	50.0	100.7
=	-7.8	0.0	50.0	100.7
=	-7.7	0.0	50.0	100.7
=	-7.6	0.0	50.0	100.7
=	-7.4	0.0	50.0	100.7
=	-7.3	0.0	50.0	100.8
=	-7.2	0.0	50.0	100.8
=	-7.0	0.0	50.0	100.8
=	-6.9	0.0	50.0	100.8
=	-6.8	0.0	50.0	100.8
=	-6.7	0.0	50.0	100.8
=	-6.6	0.0	50.0	100.8
=	-6.3	0.0	50.0	100.8
=	-6.2	0.0	50.0	100.8
=	-6.1	0.0	50.0	100.8
=	-6.0	0.0	50.0	100.8
=	-5.9	0.0	50.0	100.8
=	-5.7	0.0	50.0	100.8
=	-5.6	0.0	50.0	100.8
=	-5.4	0.0	50.0	100.8
=	-5.2	0.0	50.0	100.8
=	-4.9	0.0	50.0	100.8
=	-4.7	0.0	50.0	100.8
=	-4.6	0.0	50.0	100.7
=	-4.4	0.0	50.0	100.7
=	-4.2	0.0	50.0	100.7
=	-4.1	0.0	50.0	100.7
=	-4.0	0.0	50.0	100.7
=	-3.8	0.0	50.0	100.7
=	-3.6	0.0	50.0	100.6
=	-3.5	0.0	50.0	100.6
=	-3.4	0.0	50.0	100.6
=	-3.2	0.0	50.0	100.6
=	-3.1	0.0	50.0	100.5
=	-3.0	0.0	50.0	100.5
=	-2.9	0.0	50.0	100.5
=	-2.7	0.0	50.0	100.4
=	-2.5	0.0	50.0	100.4
=	-2.3	0.0	50.0	100.4
=	-2.2	0.0	50.0	100.3
=	-2.1	0.0	50.0	100.3
=	-1.9	0.0	50.0	100.3
=	-1.8	0.0	50.0	100.3
=	-1.7	0.0	50.0	100.3
=	-1.5	0.0	50.0	100.2
=	-1.4	0.0	50.0	100.2
=	-1.3	0.0	50.0	100.2
=	-1.1	0.0	50.0	100.2
=	-1.0	0.0	50.0	100.2
=	-0.8	0.0	50.0	100.2
=	-0.6	0.0	50.0	100.2
=	-0.5	0.0	50.0	100.1
=	-0.3	0.0	50.0	100.1
=	-0.1	0.0	50.0	100.0
=	0.0	0.0	50.0	100.0
=	0.1	0.0	50.0	100.0
=	0.3	0.0	50.0	99.9
=	0.4	0.0	50.0	99.9
=	0.5	0.0	50.0	99.9
=	0.7	0.0	50.0	99.9
=	0.8	0.0	50.0	99.9
=	1.0	0.0	50.0	99.8
=	1.1	0.0	50.0	99.8
=	1.3	0.0	50.0	99.8
=	1.4	0.0	50.0	99.7
=	1.5	0.0	50.0	99.7
=	1.6	0.0	50.0	99.6
=	1.7	0.0	50.0	99.6
=	1.8	0.0	50.0	99.5
=	2.0	0.0	50.0	99.5
=	2.1	0.0	50.0	99.5
=	2.2	0.0	50.0	99.4
=	2.3	0.0	50.0	99.4
=	2.4	0.0	50.0	99.4
=	2.7	0.0	50.0	99.3
=	2.9	0.0	50.0	99.3
=	3.0	0.0	50.0	99.2
=	3.1	0.0	50.0	99.2
=	3.3	0.0	50.0	99.2
=	3.4	0.0	50.0	99.1
=	3.6	0.0	50.0	99.1
=	3.7	0.0	50.0	99.0
=	3.9	0.0	50.0	98.9
=	4.1	0.0	50.0	98.9
=	4.2	0.0	50.0	98.8
=	4.3	0.0	50.0	98.8
=	4.4	0.0	50.0	98.8
=	4.5	0.0	50.0	98.7
=	4.7	0.0	50.0	98.7
=	4.8	0.0	50.0	98.6
=	4.9	0.0	50.0	98.6
=	5.1	0.0	50.0	98.5
=	5.2	0.0	50.0	98.5
=	5.3	0.0	50.0	98.5
=	5.4	0.0	50.0	98.5
=	5.6	0.0	50.0	98.5
=	5.7	0.0	50.0	98.4
=	5.9	0.0	50.0	98.3
=	6.0	0.0	50.0	98.3
=	6.2	0.0	50.0	98.3
=	6.3	0.0	50.0	98.2
=	6.5	0.0	50.0	98.2
=	6.6	0.0	50.0	98.0
=	6.8	0.0	50.0	97.9
=	6.9	0.0	50.0	97.8
=	7.1	0.0	50.0	97.7
=	7.2	0.0	50.0	97.7
=	7.3	0.0	50.0	97.6
=	7.5	0.0	50.0	97.6
=	7.7	0.0	50.0	97.5
=	7.8	0.0	50.0	97.4
=	7.9	0.0	50.0	97.3
=	8.1	0.0	50.0	97.2
=	8.2	0.0	50.0	97.2
=	8.3	0.0	50.0	97.1
=	8.4	0.0	50.0	97.1
=	8.6	0.0	50.0	97.0
=	8.7	0.0	50.0	96.9
=	8.9	0.0	50.0	96.9
=	9.1	0.0	50.0	96.7
=	9.2	0.0	50.0	96.7
=	9.3	0.0	50.0	96.6
=	9.4	0.0	50.0	96.6
=	9.5	0.0	50.0	96.6
=	9.7	0.0	50.0	96.5
=	9.8	0.0	50.0	96.4
=	9.9	0.0	50.0	96.2
=	10.1	0.0	50.0	96.1
=	10.2	0.0	50.0	96.0
=	10.4	0.0	50.0	95.9
=	10.6	0.0	50.0	95.8
=	10.7	0.0	50.0	95.7
=	10.8	0.0	50.0	95.6
=	11.0	0.0	50.0	95.5
=	11.2	0.0	50.0	95.3
=	11.3	0.0	50.0	95.2
=	11.4	0.0	50.0	95.1
=	11.5	0.0	50.0	95.0
=	11.6	0.0	50.0	95.0
=	11.8	0.0	50.0	94.9
=	11.9	0.0	50.0	94.8
=	12.0	0.0	50.0	94.6
=	12.2	0.0	50.0	94.4
=	12.3	0.0	50.0	94.3
=	12.4	0.0	50.0	94.2
=	12.6	0.0	50.0	94.0
=	12.7	0.0	50.0	93.9
=	12.9	0.0	50.0	93.7
=	13.1	0.0	50.0	93.4
=	13.2	0.0	50.0	93.2
=	13.3	0.0	50.0	93.0
=	13.5	0.0	50.0	92.8
=	13.6	0.0	50.0	92.6
=	13.7	0.0	50.0	92.2
=	13.9	0.0	50.0	92.0
=	14.0	0.0	50.0	91.9
=	14.1	0.0	50.0	91.7
=	14.3	0.0	50.0	91.4
=	14.4	0.0	50.0	91.1
=	14.6	0.0	50.0	90.7
=	14.8	0.0	50.0	90.2
=	15.0	0.0	50.0	90.1
=	15.1	0.0	50.0	89.8
=	15.3	0.0	50.0	89.3
=	15.4	0.0	50.0	89.0
=	15.6	0.0	50.0	88.3
=	15.8	0.0	50.0	87.7
=	15.9	0.0	50.0	87.4
=	16.1	0.0	50.0	87.1
=	16.2	0.0	50.0	86.8
=	16.3	0.0	50.0	86.2
=	16.5	0.0	50.0	85.3
=	16.7	0.0	50.0	84.5
=	16.9	0.0	50.0	83.6
=	17.1	0.0	50.0	82.7
=	17.2	0.0	50.0	82.1
=	17.3	0.0	50.0	81.5
=	17.5	0.0	50.0	80.9
=	17.6	0.0	50.0	80.2
=	17.7	0.0	50.0	79.4
=	17.8	0.0	50.0	78.6
=	18.0	0.0	50.0	77.5
=	18.1	0.0	50.0	76.2
=	18.3	0.0	50.0	75.2
=	18.4	0.0	50.0	74.2
=	18.6	0.0	50.0	72.7
=	18.8	0.0	50.0	71.2
=	18.9	0.0	50.0	70.1
=	19.0	0.0	50.0	69.1
=	19.1	0.0	50.0	67.8
=	19.3	0.0	50.0	66.0
=	19.5	0.0	50.0	64.4
=	19.6	0.0	50.0	63.4
=	19.8	0.0	50.0	62.0
=	19.9	0.0	50.0	60.5
=	20.1	0.0	50.0	58.8
=	20.2	0.0	50.0	57.7
=	20.3	0.0	50.0	56.3
=	20.5	0.0	50.0	55.1
=	20.6	0.0	50.0	54.0
=	20.7	0.0	50.0	52.2
=	20.8	0.0	50.0	50.9
=	21.0	0.0	50.0	49.3
=	21.2	0.0	50.0	47.4
=	21.3	0.0	50.0	45.9
=	21.5	0.0	50.0	44.4
=	21.6	0.0	50.0	42.9
=	21.7	0.0	50.0	41.6
=	21.8	0.0	50.0	40.6
=	22.0	0.0	50.0	39.2
=	22.1	0.0	50.0	38.0
=	22.2	0.0	50.0	36.4
=	22.4	0.0	50.0	35.0
=	22.6	0.0	50.0	32.9
=	22.8	0.0	50.0	31.5
=	22.9	0.0	50.0	30.4
=	23.0	0.0	50.0	29.5
=	23.2	0.0	50.0	27.9
=	23.3	0.0	50.0	27.1
=	23.4	0.0	50.0	26.2
=	23.6	0.0	50.0	24.7
=	23.8	0.0	50.0	23.5
=	23.9	0.0	50.0	22.5
=	24.1	0.0	50.0	21.4
=	24.2	0.0	50.0	20.4
=	24.4	0.0	50.0	19.6
=	24.5	0.0	50.0	19.0
=	24.6	0.0	50.0	18.3
=	24.7	0.0	50.0	17.7
=	24.8	0.0	50.0	17.3
=	24.9	0.0	50.0	16.8
=	25.0	0.0	50.0	16.3
=	25.2	0.0	50.0	15.7
=	25.3	0.0	50.0	15.3
=	25.5	0.0	50.0	14.5
=	25.6	0.0	50.0	14.1
=	25.7	0.0	50.0	13.8
=	25.9	0.0	50.0	13.3
=	26.1	0.0	50.0	12.7
=	26.2	0.0	50.0	12.4
=	26.3	0.0	50.0	12.0
=	26.4	0.0	50.0	11.7
=	26.6	0.0	50.0	11.3
=	26.7	0.0	50.0	11.1
=	26.9	0.0	50.0	10.5
=	27.0	0.0	50.0	10.3
=	27.1	0.0	50.0	10.1
=	27.3	0.0	50.0	9.7
=	27.5	0.0	50.0	9.4
=	27.7	0.0	50.0	9.1
=	27.8	0.0	50.0	8.9
=	27.9	0.0	50.0	8.6
=	28.1	0.0	50.0	8.4
=	28.2	0.0	50.0	8.3
=	28.3	0.0	50.0	8.1
=	28.4	0.0	50.0	7.9
=	28.6	0.0	50.0	7.7
=	28.7	0.0	50.0	7.6
=	28.8	0.0	50.0	7.4
=	29.0	0.0	50.0	7.2
=	29.1	0.0	50.0	7.1
=	29.2	0.0	50.0	7.0
=	29.3	0.0	50.0	6.8
=	29.4	0.0	50.0	6.6
=	29.6	0.0	50.0	6.5
=	29.7	0.0	50.0	6.3
=	29.9	0.0	50.0	6.2
=	30.0	0.0	50.0	6.0
=	30.2	0.0	50.0	5.9
=	30.3	0.0	50.0	5.7
=	30.5	0.0	50.0	5.6
=	30.6	0.0	50.0	5.5
=	30.7	0.0	50.0	5.3
=	30.9	0.0	50.0	5.2
=	31.1	0.0	50.0	5.1
=	31.2	0.0	50.0	5.0
=	31.4	0.0	50.0	5.0
=	31.6	0.0	50.0	4.8
=	31.7	0.0	50.0	4.7
=	31.8	0.0	50.0	4.7
=	31.9	0.0	50.0	4.6
=	32.1	0.0	50.0	4.5
=	32.2	0.0	50.0	4.5
=	32.4	0.0	50.0	4.3
=	32.5	0.0	50.0	4.2
=	32.6	0.0	50.0	4.2
=	32.7	0.0	50.0	4.2
=	32.9	0.0	50.0	4.1
=	33.0	0.0	50.0	4.0
=	33.1	0.0	50.0	3.9
=	33.3	0.0	50.0	3.9
=	33.4	0.0	50.0	3.7
=	33.6	0.0	50.0	3.7
=	33.7	0.0	50.0	3.6
=	33.8	0.0	50.0	3.6
=	33.9	0.0	50.0	3.5
=	34.1	0.0	50.0	3.5
=	34.2	0.0	50.0	3.4
=	34.3	0.0	50.0	3.4
=	34.4	0.0	50.0	3.3
=	34.5	0.0	50.0	3.3
=	34.7	0.0	50.0	3.3
=	34.8	0.0	50.0	3.2
=	34.9	0.0	50.0	3.2
=	35.1	0.0	50.0	3.2
=	35.3	0.0	50.0	3.1
=	35.4	0.0	50.0	3.0
=	35.5	0.0	50.0	3.0
=	35.6	0.0	50.0	3.0
=	35.7	0.0	50.0	3.0
=	35.8	0.0	50.0	2.9
=	36.0	0.0	50.0	2.9
=	36.1	0.0	50.0	2.9
=	36.3	0.0	50.0	2.8
=	36.4	0.0	50.0	2.8
=	36.5	0.0	50.0	2.8
=	36.6	0.0	50.0	2.7
=	36.8	0.0	50.0	2.7
=	37.0	0.0	50.0	2.6
=	37.1	0.0	50.0	2.6
=	37.2	0.0	50.0	2.6
=	37.4	0.0	50.0	2.5
=	37.5	0.0	50.0	2.5
=	37.7	0.0	50.0	2.5
=	37.8	0.0	50.0	2.5
=	37.9	0.0	50.0	2.4
=	38.0	0.0	50.0	2.4
=	38.1	0.0	50.0	2.4
=	38.2	0.0	50.0	2.3
=	38.4	0.0	50.0	2.3
=	38.5	0.0	50.0	2.3
=	38.6	0.0	50.0	2.3
=	38.8	0.0	50.0	2.3
=	39.0	0.0	50.0	2.2
=	39.1	0.0	50.0	2.2
=	39.2	0.0	50.0	2.2
=	39.3	0.0	50.0	2.2
=	39.5	0.0	50.0	2.2
=	39.6	0.0	50.0	2.1
=	39.8	0.0	50.0	2.1
=	39.9	0.0	50.0	2.1
=	40.0	0.0	50.0	2.1
=	40.1	0.0	50.0	2.1
=	40.3	0.0	50.0	2.0
=	40.4	0.0	50.0	2.0
=	40.5	0.0	50.0	2.0
=	40.6	0.0	50.0	2.0
=	40.8	0.0	50.0	2.0
=	41.0	0.0	50.0	2.0
=	41.2	0.0	50.0	1.9
=	41.4	0.0	50.0	1.9
=	41.5	0.0	50.0	1.9
=	41.6	0.0	50.0	1.9
=	41.8	0.0	50.0	1.9
=	41.9	0.0	50.0	1.8
=	42.0	0.0	50.0	1.8
=	42.2	0.0	50.0	1.8
=	42.4	0.0	50.0	1.8
=	42.5	0.0	50.0	1.8
=	42.7	0.0	50.0	1.7
=	42.8	0.0	50.0	1.7
=	42.9	0.0	50.0	1.7
=	43.1	0.0	50.0	1.7
=	43.2	0.0	50.0	1.7
=	43.3	0.0	50.0	1.7
=	43.5	0.0	50.0	1.7
=	43.6	0.0	50.0	1.7
=	43.8	0.0	50.0	1.7
=	43.9	0.0	50.0	1.6
=	44.1	0.0	50.0	1.6
=	44.2	0.0	50.0	1.6
=	44.4	0.0	50.0	1.6
=	44.5	0.0	50.0	1.6
=	44.8	0.0	50.0	1.6
=	45.0	0.0	50.0	1.5
=	45.1	0.0	50.0	1.5
=	45.3	0.0	50.0	1.5
=	45.5	0.0	50.0	1.5
=	45.7	0.0	50.0	1.5
=	45.8	0.0	50.0	1.5
=	46.0	0.0	50.0	1.5
=	46.2	0.0	50.0	1.5
=	46.4	0.0	50.0	1.4
=	46.5	0.0	50.0	1.4
=	46.6	0.0	50.0	1.4
=	46.8	0.0	50.0	1.4
=	47.0	0.0	50.0	1.4
=	47.1	0.0	50.0	1.4
=	47.2	0.0	50.0	1.4
=	47.3	0.0	50.0	1.4
=	47.6	0.0	50.0	1.4
=	47.7	0.0	50.0	1.4
=	47.8	0.0	50.0	1.4
=	48.0	0.0	50.0	1.3
=	48.2	0.0	50.0	1.3
=	48.3	0.0	50.0	1.3
=	48.4	0.0	50.0	1.3
=	48.5	0.0	50.0	1.3
=	48.6	0.0	50.0	1.3
=	48.7	0.0	50.0	1.3
=	48.8	0.0	50.0	1.3
=	49.0	0.0	50.0	1.3
=	49.1	0.0	50.0	1.3
=	49.3	0.0	50.0	1.3
=	49.4	0.0	50.0	1.3
=	49.6	0.0	50.0	1.3
=	49.7	0.0	50.0	1.2
=	49.9	0.0	50.0	1.2
=	50.0	0.0	50.0	1.2
=	50.1	0.0	50.0	1.2
=	50.3	0.0	50.0	1.2
=	50.5	0.0	50.0	1.2
=	50.7	0.0	50.0	1.2
=	50.9	0.0	50.0	1.2
=	51.1	0.0	50.0	1.2
=	51.2	0.0	50.0	1.2
=	51.4	0.0	50.0	1.2
=	51.5	0.0	50.0	1.2
=	51.6	0.0	50.0	1.2
=	51.7	0.0	50.0	1.2
=	51.8	0.0	50.0	1.2
=	52.0	0.0	50.0	1.1
=	52.2	0.0	50.0	1.1
=	52.3	0.0	50.0	1.1
=	52.4	0.0	50.0	1.1
=	52.6	0.0	50.0	1.1
=	52.7	0.0	50.0	1.1
=	52.8	0.0	50.0	1.1
=	52.9	0.0	50.0	1.1
=	53.1	0.0	50.0	1.1
=	53.2	0.0	50.0	1.1
=	53.4	0.0	50.0	1.1
=	53.6	0.0	50.0	1.1
=	53.7	0.0	50.0	1.1
=	53.9	0.0	50.0	1.1
=	54.1	0.0	50.0	1.1
=	54.2	0.0	50.0	1.1
=	54.5	0.0	50.0	1.1
