:MSR 	5	 # No. of measurement in file
:SYS BDS 0   # Beam Data Scanner System
#
# RFA300 ASCII Measurement Dump ( BDS format )
#
# Measurement number 	1
#
%VNR 1.0
%MOD 	RAT
%TYP 	SCN
%SCN 	PRO
%FLD 	ION
%DAT 	10-14-2011
%TIM 	12:00:00
%FSZ 	400	300
%BMT 	PHO	   15.0
%SSD 	1000
%BUP 	0
%BRD 	1000
%FSH 	1
%ASC 	0
%WEG 	30
%GPO 	0
%CPO 	0
%MEA 	6
%PRD 	30,0
%PTS 	837
%STS 	    0.0	  -255.7	   30.0 # Start Scan values in mm ( X , Y , Z )
%EDS 	    0.0	   255.7	   30.0 # End Scan values in mm ( X , Y , Z )
#
#	  X      Y      Z     Dose
#
=	0.0	-255.7	30.0	9.3
=	0.0	-255.0	30.0	9.4
=	0.0	-254.5	30.0	9.4
=	0.0	-253.9	30.0	9.5
=	0.0	-253.3	30.0	9.5
=	0.0	-252.6	30.0	9.5
=	0.0	-251.7	30.0	9.6
=	0.0	-251.1	30.0	9.7
=	0.0	-250.5	30.0	9.7
=	0.0	-249.9	30.0	9.8
=	0.0	-249.3	30.0	9.8
=	0.0	-248.7	30.0	9.9
=	0.0	-248.1	30.0	10.0
=	0.0	-247.5	30.0	10.0
=	0.0	-246.9	30.0	10.1
=	0.0	-246.3	30.0	10.1
=	0.0	-245.5	30.0	10.2
=	0.0	-244.9	30.0	10.3
=	0.0	-244.2	30.0	10.3
=	0.0	-243.5	30.0	10.4
=	0.0	-242.9	30.0	10.4
=	0.0	-242.2	30.0	10.5
=	0.0	-241.6	30.0	10.6
=	0.0	-240.9	30.0	10.6
=	0.0	-240.3	30.0	10.7
=	0.0	-239.8	30.0	10.7
=	0.0	-239.2	30.0	10.8
=	0.0	-238.5	30.0	10.9
=	0.0	-237.9	30.0	10.9
=	0.0	-237.4	30.0	11.0
=	0.0	-236.8	30.0	11.0
=	0.0	-236.2	30.0	11.1
=	0.0	-235.5	30.0	11.2
=	0.0	-234.9	30.0	11.3
=	0.0	-234.3	30.0	11.4
=	0.0	-233.5	30.0	11.4
=	0.0	-232.8	30.0	11.5
=	0.0	-232.1	30.0	11.6
=	0.0	-231.3	30.0	11.7
=	0.0	-230.8	30.0	11.8
=	0.0	-230.2	30.0	11.9
=	0.0	-229.6	30.0	12.0
=	0.0	-229.0	30.0	12.1
=	0.0	-228.5	30.0	12.2
=	0.0	-227.9	30.0	12.3
=	0.0	-227.3	30.0	12.4
=	0.0	-226.7	30.0	12.5
=	0.0	-226.1	30.0	12.6
=	0.0	-225.4	30.0	12.7
=	0.0	-224.7	30.0	12.8
=	0.0	-224.1	30.0	13.0
=	0.0	-223.3	30.0	13.1
=	0.0	-222.6	30.0	13.3
=	0.0	-222.0	30.0	13.4
=	0.0	-221.4	30.0	13.6
=	0.0	-220.9	30.0	13.7
=	0.0	-220.4	30.0	13.8
=	0.0	-219.8	30.0	14.1
=	0.0	-219.3	30.0	14.2
=	0.0	-218.6	30.0	14.5
=	0.0	-218.0	30.0	14.8
=	0.0	-217.2	30.0	15.2
=	0.0	-216.5	30.0	15.6
=	0.0	-215.8	30.0	16.1
=	0.0	-215.2	30.0	16.6
=	0.0	-214.5	30.0	17.2
=	0.0	-214.0	30.0	17.8
=	0.0	-213.2	30.0	18.7
=	0.0	-212.6	30.0	19.6
=	0.0	-211.9	30.0	20.8
=	0.0	-211.4	30.0	22.0
=	0.0	-210.7	30.0	23.6
=	0.0	-210.2	30.0	25.3
=	0.0	-209.7	30.0	27.1
=	0.0	-209.0	30.0	30.5
=	0.0	-208.3	30.0	34.1
=	0.0	-207.8	30.0	37.5
=	0.0	-207.1	30.0	42.0
=	0.0	-206.5	30.0	46.9
=	0.0	-205.7	30.0	53.2
=	0.0	-205.0	30.0	59.1
=	0.0	-204.5	30.0	63.3
=	0.0	-203.9	30.0	68.3
=	0.0	-203.1	30.0	73.7
=	0.0	-202.5	30.0	77.7
=	0.0	-201.9	30.0	81.0
=	0.0	-201.4	30.0	83.3
=	0.0	-200.7	30.0	85.5
=	0.0	-200.0	30.0	87.5
=	0.0	-199.4	30.0	88.8
=	0.0	-198.7	30.0	90.0
=	0.0	-198.1	30.0	90.8
=	0.0	-197.5	30.0	91.6
=	0.0	-196.8	30.0	92.2
=	0.0	-196.2	30.0	92.7
=	0.0	-195.6	30.0	93.3
=	0.0	-194.8	30.0	93.8
=	0.0	-194.1	30.0	94.3
=	0.0	-193.4	30.0	94.6
=	0.0	-192.7	30.0	94.8
=	0.0	-192.2	30.0	95.1
=	0.0	-191.7	30.0	95.4
=	0.0	-191.2	30.0	95.5
=	0.0	-190.6	30.0	95.6
=	0.0	-190.0	30.0	95.7
=	0.0	-189.4	30.0	95.8
=	0.0	-188.9	30.0	96.0
=	0.0	-188.2	30.0	96.2
=	0.0	-187.7	30.0	96.3
=	0.0	-187.2	30.0	96.4
=	0.0	-186.6	30.0	96.5
=	0.0	-186.1	30.0	96.6
=	0.0	-185.5	30.0	96.7
=	0.0	-184.8	30.0	96.8
=	0.0	-184.0	30.0	96.8
=	0.0	-183.4	30.0	96.9
=	0.0	-182.8	30.0	96.9
=	0.0	-182.2	30.0	97.0
=	0.0	-181.7	30.0	97.0
=	0.0	-181.2	30.0	97.0
=	0.0	-180.4	30.0	97.1
=	0.0	-179.6	30.0	97.1
=	0.0	-179.0	30.0	97.1
=	0.0	-178.4	30.0	97.1
=	0.0	-177.9	30.0	97.2
=	0.0	-177.2	30.0	97.2
=	0.0	-176.7	30.0	97.2
=	0.0	-176.1	30.0	97.3
=	0.0	-175.5	30.0	97.3
=	0.0	-174.9	30.0	97.4
=	0.0	-174.1	30.0	97.4
=	0.0	-173.5	30.0	97.5
=	0.0	-172.8	30.0	97.5
=	0.0	-172.2	30.0	97.6
=	0.0	-171.7	30.0	97.6
=	0.0	-171.1	30.0	97.7
=	0.0	-170.4	30.0	97.8
=	0.0	-169.9	30.0	97.8
=	0.0	-169.2	30.0	97.9
=	0.0	-168.6	30.0	98.0
=	0.0	-168.1	30.0	98.0
=	0.0	-167.6	30.0	98.1
=	0.0	-167.0	30.0	98.1
=	0.0	-166.3	30.0	98.2
=	0.0	-165.7	30.0	98.3
=	0.0	-164.9	30.0	98.4
=	0.0	-164.3	30.0	98.5
=	0.0	-163.7	30.0	98.5
=	0.0	-163.0	30.0	98.6
=	0.0	-162.4	30.0	98.6
=	0.0	-161.8	30.0	98.7
=	0.0	-161.3	30.0	98.8
=	0.0	-160.7	30.0	98.9
=	0.0	-160.0	30.0	99.0
=	0.0	-159.3	30.0	99.0
=	0.0	-158.7	30.0	99.1
=	0.0	-158.0	30.0	99.1
=	0.0	-157.4	30.0	99.2
=	0.0	-156.6	30.0	99.3
=	0.0	-156.0	30.0	99.3
=	0.0	-155.3	30.0	99.4
=	0.0	-154.7	30.0	99.4
=	0.0	-154.1	30.0	99.5
=	0.0	-153.5	30.0	99.5
=	0.0	-152.7	30.0	99.5
=	0.0	-152.1	30.0	99.5
=	0.0	-151.5	30.0	99.6
=	0.0	-150.8	30.0	99.6
=	0.0	-150.1	30.0	99.6
=	0.0	-149.4	30.0	99.6
=	0.0	-148.7	30.0	99.7
=	0.0	-148.2	30.0	99.7
=	0.0	-147.6	30.0	99.7
=	0.0	-147.0	30.0	99.8
=	0.0	-146.3	30.0	99.9
=	0.0	-145.8	30.0	99.9
=	0.0	-145.1	30.0	99.9
=	0.0	-144.6	30.0	99.9
=	0.0	-144.1	30.0	99.9
=	0.0	-143.5	30.0	99.9
=	0.0	-142.9	30.0	99.9
=	0.0	-142.3	30.0	99.9
=	0.0	-141.5	30.0	99.9
=	0.0	-140.9	30.0	100.0
=	0.0	-140.4	30.0	100.0
=	0.0	-139.7	30.0	100.1
=	0.0	-139.1	30.0	100.1
=	0.0	-138.3	30.0	100.2
=	0.0	-137.7	30.0	100.2
=	0.0	-137.2	30.0	100.2
=	0.0	-136.7	30.0	100.3
=	0.0	-136.2	30.0	100.3
=	0.0	-135.5	30.0	100.3
=	0.0	-134.9	30.0	100.4
=	0.0	-134.2	30.0	100.4
=	0.0	-133.6	30.0	100.5
=	0.0	-133.0	30.0	100.5
=	0.0	-132.5	30.0	100.5
=	0.0	-131.8	30.0	100.6
=	0.0	-131.2	30.0	100.6
=	0.0	-130.6	30.0	100.7
=	0.0	-129.8	30.0	100.8
=	0.0	-129.2	30.0	100.8
=	0.0	-128.6	30.0	100.8
=	0.0	-127.9	30.0	100.9
=	0.0	-127.2	30.0	100.9
=	0.0	-126.4	30.0	101.0
=	0.0	-125.9	30.0	101.0
=	0.0	-125.3	30.0	101.0
=	0.0	-124.8	30.0	101.1
=	0.0	-124.3	30.0	101.1
=	0.0	-123.7	30.0	101.1
=	0.0	-123.2	30.0	101.1
=	0.0	-122.5	30.0	101.2
=	0.0	-121.9	30.0	101.2
=	0.0	-121.2	30.0	101.3
=	0.0	-120.6	30.0	101.3
=	0.0	-120.1	30.0	101.3
=	0.0	-119.5	30.0	101.3
=	0.0	-118.8	30.0	101.4
=	0.0	-118.2	30.0	101.4
=	0.0	-117.5	30.0	101.4
=	0.0	-117.0	30.0	101.4
=	0.0	-116.4	30.0	101.4
=	0.0	-115.7	30.0	101.5
=	0.0	-115.1	30.0	101.5
=	0.0	-114.6	30.0	101.5
=	0.0	-114.0	30.0	101.6
=	0.0	-113.5	30.0	101.6
=	0.0	-112.8	30.0	101.6
=	0.0	-112.2	30.0	101.6
=	0.0	-111.6	30.0	101.6
=	0.0	-111.1	30.0	101.7
=	0.0	-110.7	30.0	101.7
=	0.0	-110.2	30.0	101.7
=	0.0	-109.6	30.0	101.7
=	0.0	-109.0	30.0	101.7
=	0.0	-108.4	30.0	101.7
=	0.0	-107.9	30.0	101.7
=	0.0	-107.3	30.0	101.7
=	0.0	-106.5	30.0	101.7
=	0.0	-105.8	30.0	101.7
=	0.0	-105.2	30.0	101.7
=	0.0	-104.6	30.0	101.7
=	0.0	-104.0	30.0	101.6
=	0.0	-103.3	30.0	101.6
=	0.0	-102.7	30.0	101.6
=	0.0	-102.2	30.0	101.6
=	0.0	-101.6	30.0	101.6
=	0.0	-100.9	30.0	101.6
=	0.0	-100.3	30.0	101.6
=	0.0	-99.8	30.0	101.6
=	0.0	-99.2	30.0	101.6
=	0.0	-98.5	30.0	101.6
=	0.0	-97.8	30.0	101.6
=	0.0	-97.2	30.0	101.6
=	0.0	-96.5	30.0	101.7
=	0.0	-95.8	30.0	101.7
=	0.0	-95.2	30.0	101.8
=	0.0	-94.6	30.0	101.8
=	0.0	-93.9	30.0	101.8
=	0.0	-93.3	30.0	101.9
=	0.0	-92.7	30.0	101.9
=	0.0	-92.2	30.0	101.9
=	0.0	-91.7	30.0	101.9
=	0.0	-91.2	30.0	102.0
=	0.0	-90.7	30.0	102.0
=	0.0	-90.2	30.0	102.0
=	0.0	-89.6	30.0	102.0
=	0.0	-89.0	30.0	102.1
=	0.0	-88.4	30.0	102.1
=	0.0	-87.9	30.0	102.1
=	0.0	-87.3	30.0	102.2
=	0.0	-86.7	30.0	102.2
=	0.0	-86.2	30.0	102.2
=	0.0	-85.6	30.0	102.3
=	0.0	-84.8	30.0	102.3
=	0.0	-84.1	30.0	102.3
=	0.0	-83.5	30.0	102.3
=	0.0	-82.9	30.0	102.3
=	0.0	-82.3	30.0	102.3
=	0.0	-81.7	30.0	102.3
=	0.0	-81.1	30.0	102.3
=	0.0	-80.6	30.0	102.3
=	0.0	-80.0	30.0	102.4
=	0.0	-79.4	30.0	102.4
=	0.0	-78.7	30.0	102.4
=	0.0	-78.0	30.0	102.4
=	0.0	-77.4	30.0	102.4
=	0.0	-76.8	30.0	102.4
=	0.0	-76.0	30.0	102.4
=	0.0	-75.4	30.0	102.4
=	0.0	-74.7	30.0	102.4
=	0.0	-74.0	30.0	102.4
=	0.0	-73.5	30.0	102.5
=	0.0	-72.9	30.0	102.5
=	0.0	-72.4	30.0	102.5
=	0.0	-71.9	30.0	102.5
=	0.0	-71.2	30.0	102.5
=	0.0	-70.5	30.0	102.5
=	0.0	-69.9	30.0	102.6
=	0.0	-69.4	30.0	102.6
=	0.0	-68.8	30.0	102.7
=	0.0	-68.3	30.0	102.7
=	0.0	-67.8	30.0	102.7
=	0.0	-67.3	30.0	102.7
=	0.0	-66.8	30.0	102.7
=	0.0	-66.2	30.0	102.7
=	0.0	-65.6	30.0	102.7
=	0.0	-65.1	30.0	102.7
=	0.0	-64.5	30.0	102.7
=	0.0	-63.9	30.0	102.7
=	0.0	-63.3	30.0	102.7
=	0.0	-62.7	30.0	102.7
=	0.0	-62.1	30.0	102.8
=	0.0	-61.4	30.0	102.8
=	0.0	-60.7	30.0	102.8
=	0.0	-60.1	30.0	102.8
=	0.0	-59.5	30.0	102.8
=	0.0	-58.9	30.0	102.8
=	0.0	-58.2	30.0	102.8
=	0.0	-57.6	30.0	102.8
=	0.0	-57.0	30.0	102.8
=	0.0	-56.4	30.0	102.8
=	0.0	-55.8	30.0	102.8
=	0.0	-55.3	30.0	102.8
=	0.0	-54.6	30.0	102.8
=	0.0	-54.0	30.0	102.8
=	0.0	-53.4	30.0	102.8
=	0.0	-52.9	30.0	102.8
=	0.0	-52.3	30.0	102.8
=	0.0	-51.7	30.0	102.8
=	0.0	-51.1	30.0	102.8
=	0.0	-50.5	30.0	102.8
=	0.0	-49.9	30.0	102.8
=	0.0	-49.4	30.0	102.8
=	0.0	-48.8	30.0	102.8
=	0.0	-48.3	30.0	102.8
=	0.0	-47.7	30.0	102.7
=	0.0	-47.2	30.0	102.7
=	0.0	-46.6	30.0	102.7
=	0.0	-46.0	30.0	102.7
=	0.0	-45.3	30.0	102.6
=	0.0	-44.6	30.0	102.6
=	0.0	-44.0	30.0	102.6
=	0.0	-43.5	30.0	102.6
=	0.0	-43.0	30.0	102.6
=	0.0	-42.3	30.0	102.6
=	0.0	-41.6	30.0	102.6
=	0.0	-40.9	30.0	102.5
=	0.0	-40.3	30.0	102.5
=	0.0	-39.6	30.0	102.5
=	0.0	-38.9	30.0	102.4
=	0.0	-38.4	30.0	102.4
=	0.0	-37.9	30.0	102.4
=	0.0	-37.4	30.0	102.4
=	0.0	-36.7	30.0	102.3
=	0.0	-36.3	30.0	102.3
=	0.0	-35.7	30.0	102.3
=	0.0	-35.2	30.0	102.3
=	0.0	-34.6	30.0	102.3
=	0.0	-34.1	30.0	102.2
=	0.0	-33.6	30.0	102.2
=	0.0	-33.0	30.0	102.2
=	0.0	-32.4	30.0	102.2
=	0.0	-31.8	30.0	102.2
=	0.0	-31.3	30.0	102.1
=	0.0	-30.6	30.0	102.1
=	0.0	-30.0	30.0	102.1
=	0.0	-29.2	30.0	102.0
=	0.0	-28.7	30.0	102.0
=	0.0	-28.2	30.0	101.9
=	0.0	-27.7	30.0	101.9
=	0.0	-27.1	30.0	101.8
=	0.0	-26.5	30.0	101.8
=	0.0	-26.0	30.0	101.7
=	0.0	-25.3	30.0	101.6
=	0.0	-24.6	30.0	101.5
=	0.0	-24.0	30.0	101.5
=	0.0	-23.3	30.0	101.4
=	0.0	-22.8	30.0	101.4
=	0.0	-22.2	30.0	101.3
=	0.0	-21.6	30.0	101.2
=	0.0	-21.1	30.0	101.2
=	0.0	-20.4	30.0	101.2
=	0.0	-19.8	30.0	101.1
=	0.0	-19.2	30.0	101.1
=	0.0	-18.7	30.0	101.0
=	0.0	-18.1	30.0	100.9
=	0.0	-17.5	30.0	100.9
=	0.0	-17.0	30.0	100.9
=	0.0	-16.4	30.0	100.8
=	0.0	-15.9	30.0	100.8
=	0.0	-15.3	30.0	100.7
=	0.0	-14.8	30.0	100.6
=	0.0	-14.2	30.0	100.6
=	0.0	-13.5	30.0	100.6
=	0.0	-13.0	30.0	100.5
=	0.0	-12.3	30.0	100.5
=	0.0	-11.7	30.0	100.5
=	0.0	-10.9	30.0	100.4
=	0.0	-10.1	30.0	100.4
=	0.0	-9.3	30.0	100.3
=	0.0	-8.8	30.0	100.3
=	0.0	-8.2	30.0	100.2
=	0.0	-7.7	30.0	100.2
=	0.0	-7.1	30.0	100.1
=	0.0	-6.6	30.0	100.1
=	0.0	-5.9	30.0	100.1
=	0.0	-5.3	30.0	100.1
=	0.0	-4.8	30.0	100.1
=	0.0	-4.2	30.0	100.0
=	0.0	-3.5	30.0	100.0
=	0.0	-2.9	30.0	100.0
=	0.0	-2.2	30.0	100.0
=	0.0	-1.6	30.0	100.0
=	0.0	-1.0	30.0	100.0
=	0.0	-0.4	30.0	100.0
=	0.0	0.0	30.0	100.0
=	0.0	0.4	30.0	100.0
=	0.0	1.0	30.0	100.0
=	0.0	1.6	30.0	100.0
=	0.0	2.2	30.0	100.0
=	0.0	2.9	30.0	100.0
=	0.0	3.5	30.0	100.0
=	0.0	4.2	30.0	100.0
=	0.0	4.8	30.0	100.1
=	0.0	5.3	30.0	100.1
=	0.0	5.9	30.0	100.1
=	0.0	6.6	30.0	100.1
=	0.0	7.1	30.0	100.1
=	0.0	7.7	30.0	100.2
=	0.0	8.2	30.0	100.2
=	0.0	8.8	30.0	100.3
=	0.0	9.3	30.0	100.3
=	0.0	10.1	30.0	100.4
=	0.0	10.9	30.0	100.4
=	0.0	11.7	30.0	100.5
=	0.0	12.3	30.0	100.5
=	0.0	13.0	30.0	100.5
=	0.0	13.5	30.0	100.6
=	0.0	14.2	30.0	100.6
=	0.0	14.8	30.0	100.6
=	0.0	15.3	30.0	100.7
=	0.0	15.9	30.0	100.8
=	0.0	16.4	30.0	100.8
=	0.0	17.0	30.0	100.9
=	0.0	17.5	30.0	100.9
=	0.0	18.1	30.0	100.9
=	0.0	18.7	30.0	101.0
=	0.0	19.2	30.0	101.1
=	0.0	19.8	30.0	101.1
=	0.0	20.4	30.0	101.2
=	0.0	21.1	30.0	101.2
=	0.0	21.6	30.0	101.2
=	0.0	22.2	30.0	101.3
=	0.0	22.8	30.0	101.4
=	0.0	23.3	30.0	101.4
=	0.0	24.0	30.0	101.5
=	0.0	24.6	30.0	101.5
=	0.0	25.3	30.0	101.6
=	0.0	26.0	30.0	101.7
=	0.0	26.5	30.0	101.8
=	0.0	27.1	30.0	101.8
=	0.0	27.7	30.0	101.9
=	0.0	28.2	30.0	101.9
=	0.0	28.7	30.0	102.0
=	0.0	29.2	30.0	102.0
=	0.0	30.0	30.0	102.1
=	0.0	30.6	30.0	102.1
=	0.0	31.3	30.0	102.1
=	0.0	31.8	30.0	102.2
=	0.0	32.4	30.0	102.2
=	0.0	33.0	30.0	102.2
=	0.0	33.6	30.0	102.2
=	0.0	34.1	30.0	102.2
=	0.0	34.6	30.0	102.3
=	0.0	35.2	30.0	102.3
=	0.0	35.7	30.0	102.3
=	0.0	36.3	30.0	102.3
=	0.0	36.7	30.0	102.3
=	0.0	37.4	30.0	102.4
=	0.0	37.9	30.0	102.4
=	0.0	38.4	30.0	102.4
=	0.0	38.9	30.0	102.4
=	0.0	39.6	30.0	102.5
=	0.0	40.3	30.0	102.5
=	0.0	40.9	30.0	102.5
=	0.0	41.6	30.0	102.6
=	0.0	42.3	30.0	102.6
=	0.0	43.0	30.0	102.6
=	0.0	43.5	30.0	102.6
=	0.0	44.0	30.0	102.6
=	0.0	44.6	30.0	102.6
=	0.0	45.3	30.0	102.6
=	0.0	46.0	30.0	102.7
=	0.0	46.6	30.0	102.7
=	0.0	47.2	30.0	102.7
=	0.0	47.7	30.0	102.7
=	0.0	48.3	30.0	102.8
=	0.0	48.8	30.0	102.8
=	0.0	49.4	30.0	102.8
=	0.0	49.9	30.0	102.8
=	0.0	50.5	30.0	102.8
=	0.0	51.1	30.0	102.8
=	0.0	51.7	30.0	102.8
=	0.0	52.3	30.0	102.8
=	0.0	52.9	30.0	102.8
=	0.0	53.4	30.0	102.8
=	0.0	54.0	30.0	102.8
=	0.0	54.6	30.0	102.8
=	0.0	55.3	30.0	102.8
=	0.0	55.8	30.0	102.8
=	0.0	56.4	30.0	102.8
=	0.0	57.0	30.0	102.8
=	0.0	57.6	30.0	102.8
=	0.0	58.2	30.0	102.8
=	0.0	58.9	30.0	102.8
=	0.0	59.5	30.0	102.8
=	0.0	60.1	30.0	102.8
=	0.0	60.7	30.0	102.8
=	0.0	61.4	30.0	102.8
=	0.0	62.1	30.0	102.8
=	0.0	62.7	30.0	102.7
=	0.0	63.3	30.0	102.7
=	0.0	63.9	30.0	102.7
=	0.0	64.5	30.0	102.7
=	0.0	65.1	30.0	102.7
=	0.0	65.6	30.0	102.7
=	0.0	66.2	30.0	102.7
=	0.0	66.8	30.0	102.7
=	0.0	67.3	30.0	102.7
=	0.0	67.8	30.0	102.7
=	0.0	68.3	30.0	102.7
=	0.0	68.8	30.0	102.7
=	0.0	69.4	30.0	102.6
=	0.0	69.9	30.0	102.6
=	0.0	70.5	30.0	102.5
=	0.0	71.2	30.0	102.5
=	0.0	71.9	30.0	102.5
=	0.0	72.4	30.0	102.5
=	0.0	72.9	30.0	102.5
=	0.0	73.5	30.0	102.5
=	0.0	74.0	30.0	102.4
=	0.0	74.7	30.0	102.4
=	0.0	75.4	30.0	102.4
=	0.0	76.0	30.0	102.4
=	0.0	76.8	30.0	102.4
=	0.0	77.4	30.0	102.4
=	0.0	78.0	30.0	102.4
=	0.0	78.7	30.0	102.4
=	0.0	79.4	30.0	102.4
=	0.0	80.0	30.0	102.4
=	0.0	80.6	30.0	102.3
=	0.0	81.1	30.0	102.3
=	0.0	81.7	30.0	102.3
=	0.0	82.3	30.0	102.3
=	0.0	82.9	30.0	102.3
=	0.0	83.5	30.0	102.3
=	0.0	84.1	30.0	102.3
=	0.0	84.8	30.0	102.3
=	0.0	85.6	30.0	102.3
=	0.0	86.2	30.0	102.2
=	0.0	86.7	30.0	102.2
=	0.0	87.3	30.0	102.2
=	0.0	87.9	30.0	102.1
=	0.0	88.4	30.0	102.1
=	0.0	89.0	30.0	102.1
=	0.0	89.6	30.0	102.0
=	0.0	90.2	30.0	102.0
=	0.0	90.7	30.0	102.0
=	0.0	91.2	30.0	102.0
=	0.0	91.7	30.0	101.9
=	0.0	92.2	30.0	101.9
=	0.0	92.7	30.0	101.9
=	0.0	93.3	30.0	101.9
=	0.0	93.9	30.0	101.8
=	0.0	94.6	30.0	101.8
=	0.0	95.2	30.0	101.8
=	0.0	95.8	30.0	101.7
=	0.0	96.5	30.0	101.7
=	0.0	97.2	30.0	101.6
=	0.0	97.8	30.0	101.6
=	0.0	98.5	30.0	101.6
=	0.0	99.2	30.0	101.6
=	0.0	99.8	30.0	101.6
=	0.0	100.3	30.0	101.6
=	0.0	100.9	30.0	101.6
=	0.0	101.6	30.0	101.6
=	0.0	102.2	30.0	101.6
=	0.0	102.7	30.0	101.6
=	0.0	103.3	30.0	101.6
=	0.0	104.0	30.0	101.6
=	0.0	104.6	30.0	101.7
=	0.0	105.2	30.0	101.7
=	0.0	105.8	30.0	101.7
=	0.0	106.5	30.0	101.7
=	0.0	107.3	30.0	101.7
=	0.0	107.9	30.0	101.7
=	0.0	108.4	30.0	101.7
=	0.0	109.0	30.0	101.7
=	0.0	109.6	30.0	101.7
=	0.0	110.2	30.0	101.7
=	0.0	110.7	30.0	101.7
=	0.0	111.1	30.0	101.7
=	0.0	111.6	30.0	101.6
=	0.0	112.2	30.0	101.6
=	0.0	112.8	30.0	101.6
=	0.0	113.5	30.0	101.6
=	0.0	114.0	30.0	101.6
=	0.0	114.6	30.0	101.5
=	0.0	115.1	30.0	101.5
=	0.0	115.7	30.0	101.5
=	0.0	116.4	30.0	101.4
=	0.0	117.0	30.0	101.4
=	0.0	117.5	30.0	101.4
=	0.0	118.2	30.0	101.4
=	0.0	118.8	30.0	101.4
=	0.0	119.5	30.0	101.3
=	0.0	120.1	30.0	101.3
=	0.0	120.6	30.0	101.3
=	0.0	121.2	30.0	101.3
=	0.0	121.9	30.0	101.2
=	0.0	122.5	30.0	101.2
=	0.0	123.2	30.0	101.1
=	0.0	123.7	30.0	101.1
=	0.0	124.3	30.0	101.1
=	0.0	124.8	30.0	101.1
=	0.0	125.3	30.0	101.0
=	0.0	125.9	30.0	101.0
=	0.0	126.4	30.0	101.0
=	0.0	127.2	30.0	100.9
=	0.0	127.9	30.0	100.9
=	0.0	128.6	30.0	100.8
=	0.0	129.2	30.0	100.8
=	0.0	129.8	30.0	100.8
=	0.0	130.6	30.0	100.7
=	0.0	131.2	30.0	100.6
=	0.0	131.8	30.0	100.6
=	0.0	132.5	30.0	100.5
=	0.0	133.0	30.0	100.5
=	0.0	133.6	30.0	100.5
=	0.0	134.2	30.0	100.4
=	0.0	134.9	30.0	100.4
=	0.0	135.5	30.0	100.3
=	0.0	136.2	30.0	100.3
=	0.0	136.7	30.0	100.3
=	0.0	137.2	30.0	100.2
=	0.0	137.7	30.0	100.2
=	0.0	138.3	30.0	100.2
=	0.0	139.1	30.0	100.1
=	0.0	139.7	30.0	100.1
=	0.0	140.4	30.0	100.0
=	0.0	140.9	30.0	100.0
=	0.0	141.5	30.0	99.9
=	0.0	142.3	30.0	99.9
=	0.0	142.9	30.0	99.9
=	0.0	143.5	30.0	99.9
=	0.0	144.1	30.0	99.9
=	0.0	144.6	30.0	99.9
=	0.0	145.1	30.0	99.9
=	0.0	145.8	30.0	99.9
=	0.0	146.3	30.0	99.9
=	0.0	147.0	30.0	99.8
=	0.0	147.6	30.0	99.7
=	0.0	148.2	30.0	99.7
=	0.0	148.7	30.0	99.7
=	0.0	149.4	30.0	99.6
=	0.0	150.1	30.0	99.6
=	0.0	150.8	30.0	99.6
=	0.0	151.5	30.0	99.6
=	0.0	152.1	30.0	99.5
=	0.0	152.7	30.0	99.5
=	0.0	153.5	30.0	99.5
=	0.0	154.1	30.0	99.5
=	0.0	154.7	30.0	99.4
=	0.0	155.3	30.0	99.4
=	0.0	156.0	30.0	99.3
=	0.0	156.6	30.0	99.3
=	0.0	157.4	30.0	99.2
=	0.0	158.0	30.0	99.1
=	0.0	158.7	30.0	99.1
=	0.0	159.3	30.0	99.0
=	0.0	160.0	30.0	99.0
=	0.0	160.7	30.0	98.9
=	0.0	161.3	30.0	98.8
=	0.0	161.8	30.0	98.7
=	0.0	162.4	30.0	98.6
=	0.0	163.0	30.0	98.6
=	0.0	163.7	30.0	98.5
=	0.0	164.3	30.0	98.5
=	0.0	164.9	30.0	98.4
=	0.0	165.7	30.0	98.3
=	0.0	166.3	30.0	98.2
=	0.0	167.0	30.0	98.1
=	0.0	167.6	30.0	98.1
=	0.0	168.1	30.0	98.0
=	0.0	168.6	30.0	98.0
=	0.0	169.2	30.0	97.9
=	0.0	169.9	30.0	97.8
=	0.0	170.4	30.0	97.8
=	0.0	171.1	30.0	97.7
=	0.0	171.7	30.0	97.6
=	0.0	172.2	30.0	97.6
=	0.0	172.8	30.0	97.5
=	0.0	173.5	30.0	97.5
=	0.0	174.1	30.0	97.4
=	0.0	174.9	30.0	97.4
=	0.0	175.5	30.0	97.3
=	0.0	176.1	30.0	97.3
=	0.0	176.7	30.0	97.2
=	0.0	177.2	30.0	97.2
=	0.0	177.9	30.0	97.2
=	0.0	178.4	30.0	97.1
=	0.0	179.0	30.0	97.1
=	0.0	179.6	30.0	97.1
=	0.0	180.4	30.0	97.1
=	0.0	181.2	30.0	97.0
=	0.0	181.7	30.0	97.0
=	0.0	182.2	30.0	97.0
=	0.0	182.8	30.0	96.9
=	0.0	183.4	30.0	96.9
=	0.0	184.0	30.0	96.8
=	0.0	184.8	30.0	96.8
=	0.0	185.5	30.0	96.7
=	0.0	186.1	30.0	96.6
=	0.0	186.6	30.0	96.5
=	0.0	187.2	30.0	96.4
=	0.0	187.7	30.0	96.3
=	0.0	188.2	30.0	96.2
=	0.0	188.9	30.0	96.0
=	0.0	189.4	30.0	95.8
=	0.0	190.0	30.0	95.7
=	0.0	190.6	30.0	95.6
=	0.0	191.2	30.0	95.5
=	0.0	191.7	30.0	95.4
=	0.0	192.2	30.0	95.1
=	0.0	192.7	30.0	94.8
=	0.0	193.4	30.0	94.6
=	0.0	194.1	30.0	94.3
=	0.0	194.8	30.0	93.8
=	0.0	195.6	30.0	93.3
=	0.0	196.2	30.0	92.7
=	0.0	196.8	30.0	92.2
=	0.0	197.5	30.0	91.6
=	0.0	198.1	30.0	90.8
=	0.0	198.7	30.0	90.0
=	0.0	199.4	30.0	88.8
=	0.0	200.0	30.0	87.5
=	0.0	200.7	30.0	85.5
=	0.0	201.4	30.0	83.3
=	0.0	201.9	30.0	81.0
=	0.0	202.5	30.0	77.7
=	0.0	203.1	30.0	73.7
=	0.0	203.9	30.0	68.3
=	0.0	204.5	30.0	63.3
=	0.0	205.0	30.0	59.1
=	0.0	205.7	30.0	53.2
=	0.0	206.5	30.0	46.9
=	0.0	207.1	30.0	42.0
=	0.0	207.8	30.0	37.5
=	0.0	208.3	30.0	34.1
=	0.0	209.0	30.0	30.5
=	0.0	209.7	30.0	27.1
=	0.0	210.2	30.0	25.3
=	0.0	210.7	30.0	23.6
=	0.0	211.4	30.0	22.0
=	0.0	211.9	30.0	20.8
=	0.0	212.6	30.0	19.6
=	0.0	213.2	30.0	18.7
=	0.0	214.0	30.0	17.8
=	0.0	214.5	30.0	17.2
=	0.0	215.2	30.0	16.6
=	0.0	215.8	30.0	16.1
=	0.0	216.5	30.0	15.6
=	0.0	217.2	30.0	15.2
=	0.0	218.0	30.0	14.8
=	0.0	218.6	30.0	14.5
=	0.0	219.3	30.0	14.2
=	0.0	219.8	30.0	14.1
=	0.0	220.4	30.0	13.8
=	0.0	220.9	30.0	13.7
=	0.0	221.4	30.0	13.6
=	0.0	222.0	30.0	13.4
=	0.0	222.6	30.0	13.3
=	0.0	223.3	30.0	13.1
=	0.0	224.1	30.0	13.0
=	0.0	224.7	30.0	12.8
=	0.0	225.4	30.0	12.7
=	0.0	226.1	30.0	12.6
=	0.0	226.7	30.0	12.5
=	0.0	227.3	30.0	12.4
=	0.0	227.9	30.0	12.3
=	0.0	228.5	30.0	12.2
=	0.0	229.0	30.0	12.1
=	0.0	229.6	30.0	12.0
=	0.0	230.2	30.0	11.9
=	0.0	230.8	30.0	11.8
=	0.0	231.3	30.0	11.7
=	0.0	232.1	30.0	11.6
=	0.0	232.8	30.0	11.5
=	0.0	233.5	30.0	11.4
=	0.0	234.3	30.0	11.4
=	0.0	234.9	30.0	11.3
=	0.0	235.5	30.0	11.2
=	0.0	236.2	30.0	11.1
=	0.0	236.8	30.0	11.0
=	0.0	237.4	30.0	11.0
=	0.0	237.9	30.0	10.9
=	0.0	238.5	30.0	10.9
=	0.0	239.2	30.0	10.8
=	0.0	239.8	30.0	10.7
=	0.0	240.3	30.0	10.7
=	0.0	240.9	30.0	10.6
=	0.0	241.6	30.0	10.6
=	0.0	242.2	30.0	10.5
=	0.0	242.9	30.0	10.4
=	0.0	243.5	30.0	10.4
=	0.0	244.2	30.0	10.3
=	0.0	244.9	30.0	10.3
=	0.0	245.5	30.0	10.2
=	0.0	246.3	30.0	10.1
=	0.0	246.9	30.0	10.1
=	0.0	247.5	30.0	10.0
=	0.0	248.1	30.0	10.0
=	0.0	248.7	30.0	9.9
=	0.0	249.3	30.0	9.8
=	0.0	249.9	30.0	9.8
=	0.0	250.5	30.0	9.7
=	0.0	251.1	30.0	9.7
=	0.0	251.7	30.0	9.6
=	0.0	252.6	30.0	9.5
=	0.0	253.3	30.0	9.5
=	0.0	253.9	30.0	9.5
=	0.0	254.5	30.0	9.4
=	0.0	255.0	30.0	9.4
=	0.0	255.7	30.0	9.3
:EOM # End of Measurement
#
# RFA300 ASCII Measurement Dump ( BDS format )
#
# Measurement number 	2
#
%VNR 1.0
%MOD 	RAT
%TYP 	SCN
%SCN 	PRO
%FLD 	ION
%DAT 	10-14-2011
%TIM 	12:00:00
%FSZ 	400	300
%BMT 	PHO	   15.0
%SSD 	1000
%BUP 	0
%BRD 	1000
%FSH 	1
%ASC 	0
%WEG 	30
%GPO 	0
%CPO 	0
%MEA 	6
%PRD 	50,0
%PTS 	829
%STS 	    0.0	  -259.7	   50.0 # Start Scan values in mm ( X , Y , Z )
%EDS 	    0.0	   259.7	   50.0 # End Scan values in mm ( X , Y , Z )
#
#	  X      Y      Z     Dose
#
=	0.0	-259.7	50.0	8.8
=	0.0	-258.9	50.0	8.9
=	0.0	-258.4	50.0	8.9
=	0.0	-257.8	50.0	9.0
=	0.0	-257.2	50.0	9.0
=	0.0	-256.5	50.0	9.1
=	0.0	-255.8	50.0	9.1
=	0.0	-255.2	50.0	9.2
=	0.0	-254.5	50.0	9.2
=	0.0	-253.8	50.0	9.3
=	0.0	-253.1	50.0	9.3
=	0.0	-252.5	50.0	9.4
=	0.0	-251.8	50.0	9.5
=	0.0	-251.2	50.0	9.5
=	0.0	-250.5	50.0	9.6
=	0.0	-249.8	50.0	9.6
=	0.0	-249.2	50.0	9.7
=	0.0	-248.5	50.0	9.8
=	0.0	-247.9	50.0	9.8
=	0.0	-247.4	50.0	9.9
=	0.0	-246.8	50.0	9.9
=	0.0	-246.0	50.0	10.0
=	0.0	-245.3	50.0	10.0
=	0.0	-244.8	50.0	10.1
=	0.0	-244.2	50.0	10.1
=	0.0	-243.7	50.0	10.2
=	0.0	-243.2	50.0	10.3
=	0.0	-242.5	50.0	10.3
=	0.0	-241.8	50.0	10.4
=	0.0	-241.0	50.0	10.5
=	0.0	-240.4	50.0	10.6
=	0.0	-239.7	50.0	10.6
=	0.0	-239.0	50.0	10.7
=	0.0	-238.3	50.0	10.8
=	0.0	-237.7	50.0	10.9
=	0.0	-237.2	50.0	10.9
=	0.0	-236.6	50.0	11.0
=	0.0	-236.0	50.0	11.1
=	0.0	-235.4	50.0	11.2
=	0.0	-234.8	50.0	11.3
=	0.0	-234.0	50.0	11.4
=	0.0	-233.5	50.0	11.5
=	0.0	-232.8	50.0	11.6
=	0.0	-232.1	50.0	11.7
=	0.0	-231.3	50.0	11.8
=	0.0	-230.7	50.0	11.9
=	0.0	-230.0	50.0	12.1
=	0.0	-229.5	50.0	12.2
=	0.0	-229.0	50.0	12.3
=	0.0	-228.3	50.0	12.5
=	0.0	-227.6	50.0	12.6
=	0.0	-227.1	50.0	12.7
=	0.0	-226.4	50.0	12.9
=	0.0	-225.7	50.0	13.1
=	0.0	-225.0	50.0	13.3
=	0.0	-224.3	50.0	13.5
=	0.0	-223.6	50.0	13.8
=	0.0	-223.0	50.0	14.0
=	0.0	-222.3	50.0	14.4
=	0.0	-221.6	50.0	14.7
=	0.0	-220.9	50.0	15.1
=	0.0	-220.3	50.0	15.5
=	0.0	-219.6	50.0	16.1
=	0.0	-218.8	50.0	16.8
=	0.0	-218.2	50.0	17.5
=	0.0	-217.6	50.0	18.2
=	0.0	-216.9	50.0	19.1
=	0.0	-216.4	50.0	19.8
=	0.0	-215.9	50.0	20.8
=	0.0	-215.2	50.0	22.5
=	0.0	-214.5	50.0	24.5
=	0.0	-213.7	50.0	27.3
=	0.0	-213.0	50.0	30.5
=	0.0	-212.4	50.0	33.6
=	0.0	-211.7	50.0	37.9
=	0.0	-211.1	50.0	42.2
=	0.0	-210.4	50.0	46.8
=	0.0	-209.7	50.0	52.6
=	0.0	-209.0	50.0	57.7
=	0.0	-208.5	50.0	62.5
=	0.0	-207.9	50.0	66.6
=	0.0	-207.2	50.0	71.7
=	0.0	-206.6	50.0	75.9
=	0.0	-205.9	50.0	79.3
=	0.0	-205.2	50.0	82.6
=	0.0	-204.4	50.0	85.1
=	0.0	-203.6	50.0	87.2
=	0.0	-203.1	50.0	88.4
=	0.0	-202.5	50.0	89.2
=	0.0	-201.8	50.0	90.3
=	0.0	-201.1	50.0	91.2
=	0.0	-200.4	50.0	91.8
=	0.0	-199.7	50.0	92.4
=	0.0	-198.9	50.0	93.0
=	0.0	-198.3	50.0	93.4
=	0.0	-197.7	50.0	93.7
=	0.0	-197.0	50.0	94.0
=	0.0	-196.4	50.0	94.4
=	0.0	-195.7	50.0	94.7
=	0.0	-195.2	50.0	95.0
=	0.0	-194.6	50.0	95.2
=	0.0	-193.9	50.0	95.4
=	0.0	-193.3	50.0	95.6
=	0.0	-192.7	50.0	95.8
=	0.0	-192.1	50.0	96.0
=	0.0	-191.5	50.0	96.2
=	0.0	-191.0	50.0	96.3
=	0.0	-190.4	50.0	96.4
=	0.0	-189.9	50.0	96.5
=	0.0	-189.2	50.0	96.6
=	0.0	-188.5	50.0	96.7
=	0.0	-188.0	50.0	96.8
=	0.0	-187.4	50.0	96.8
=	0.0	-186.9	50.0	96.9
=	0.0	-186.2	50.0	96.9
=	0.0	-185.6	50.0	97.0
=	0.0	-184.9	50.0	97.1
=	0.0	-184.2	50.0	97.1
=	0.0	-183.6	50.0	97.1
=	0.0	-182.9	50.0	97.2
=	0.0	-182.1	50.0	97.2
=	0.0	-181.5	50.0	97.3
=	0.0	-180.8	50.0	97.4
=	0.0	-180.1	50.0	97.4
=	0.0	-179.6	50.0	97.5
=	0.0	-178.9	50.0	97.5
=	0.0	-178.2	50.0	97.5
=	0.0	-177.5	50.0	97.5
=	0.0	-177.0	50.0	97.6
=	0.0	-176.2	50.0	97.6
=	0.0	-175.6	50.0	97.8
=	0.0	-174.9	50.0	97.9
=	0.0	-174.1	50.0	98.0
=	0.0	-173.3	50.0	98.0
=	0.0	-172.7	50.0	98.1
=	0.0	-172.1	50.0	98.2
=	0.0	-171.5	50.0	98.3
=	0.0	-171.1	50.0	98.3
=	0.0	-170.5	50.0	98.4
=	0.0	-170.0	50.0	98.5
=	0.0	-169.5	50.0	98.6
=	0.0	-168.8	50.0	98.6
=	0.0	-168.0	50.0	98.7
=	0.0	-167.3	50.0	98.8
=	0.0	-166.6	50.0	98.8
=	0.0	-165.9	50.0	98.9
=	0.0	-165.2	50.0	99.0
=	0.0	-164.7	50.0	99.0
=	0.0	-164.1	50.0	99.1
=	0.0	-163.5	50.0	99.2
=	0.0	-163.0	50.0	99.3
=	0.0	-162.5	50.0	99.4
=	0.0	-161.8	50.0	99.4
=	0.0	-161.0	50.0	99.4
=	0.0	-160.2	50.0	99.5
=	0.0	-159.3	50.0	99.6
=	0.0	-158.6	50.0	99.6
=	0.0	-157.9	50.0	99.6
=	0.0	-157.3	50.0	99.7
=	0.0	-156.8	50.0	99.7
=	0.0	-156.2	50.0	99.8
=	0.0	-155.6	50.0	99.8
=	0.0	-154.9	50.0	99.8
=	0.0	-154.2	50.0	99.9
=	0.0	-153.6	50.0	99.9
=	0.0	-152.9	50.0	99.9
=	0.0	-152.3	50.0	99.9
=	0.0	-151.6	50.0	99.9
=	0.0	-150.8	50.0	99.9
=	0.0	-150.3	50.0	100.0
=	0.0	-149.6	50.0	100.0
=	0.0	-148.8	50.0	100.1
=	0.0	-148.1	50.0	100.1
=	0.0	-147.5	50.0	100.2
=	0.0	-146.7	50.0	100.2
=	0.0	-146.1	50.0	100.2
=	0.0	-145.3	50.0	100.3
=	0.0	-144.7	50.0	100.3
=	0.0	-144.2	50.0	100.3
=	0.0	-143.5	50.0	100.3
=	0.0	-142.7	50.0	100.4
=	0.0	-141.9	50.0	100.4
=	0.0	-141.3	50.0	100.4
=	0.0	-140.6	50.0	100.5
=	0.0	-139.8	50.0	100.5
=	0.0	-139.2	50.0	100.6
=	0.0	-138.6	50.0	100.6
=	0.0	-138.0	50.0	100.6
=	0.0	-137.5	50.0	100.7
=	0.0	-136.8	50.0	100.7
=	0.0	-136.0	50.0	100.8
=	0.0	-135.3	50.0	100.8
=	0.0	-134.7	50.0	100.9
=	0.0	-134.1	50.0	100.9
=	0.0	-133.5	50.0	101.0
=	0.0	-132.9	50.0	101.0
=	0.0	-132.3	50.0	101.1
=	0.0	-131.6	50.0	101.1
=	0.0	-131.0	50.0	101.1
=	0.0	-130.3	50.0	101.2
=	0.0	-129.5	50.0	101.3
=	0.0	-128.7	50.0	101.3
=	0.0	-128.0	50.0	101.3
=	0.0	-127.4	50.0	101.4
=	0.0	-126.7	50.0	101.4
=	0.0	-126.2	50.0	101.4
=	0.0	-125.6	50.0	101.4
=	0.0	-125.0	50.0	101.5
=	0.0	-124.4	50.0	101.5
=	0.0	-123.8	50.0	101.5
=	0.0	-123.1	50.0	101.5
=	0.0	-122.6	50.0	101.6
=	0.0	-122.0	50.0	101.6
=	0.0	-121.5	50.0	101.6
=	0.0	-121.0	50.0	101.6
=	0.0	-120.4	50.0	101.7
=	0.0	-119.9	50.0	101.7
=	0.0	-119.3	50.0	101.7
=	0.0	-118.7	50.0	101.7
=	0.0	-118.0	50.0	101.8
=	0.0	-117.5	50.0	101.8
=	0.0	-116.9	50.0	101.8
=	0.0	-116.2	50.0	101.8
=	0.0	-115.6	50.0	101.9
=	0.0	-114.9	50.0	101.9
=	0.0	-114.3	50.0	101.9
=	0.0	-113.8	50.0	101.9
=	0.0	-113.3	50.0	102.0
=	0.0	-112.6	50.0	102.0
=	0.0	-111.8	50.0	102.0
=	0.0	-111.2	50.0	102.0
=	0.0	-110.4	50.0	102.0
=	0.0	-109.9	50.0	102.0
=	0.0	-109.3	50.0	102.0
=	0.0	-108.6	50.0	102.0
=	0.0	-108.0	50.0	102.0
=	0.0	-107.3	50.0	102.0
=	0.0	-106.7	50.0	101.9
=	0.0	-106.1	50.0	101.9
=	0.0	-105.4	50.0	101.9
=	0.0	-104.8	50.0	101.9
=	0.0	-104.3	50.0	101.9
=	0.0	-103.7	50.0	101.9
=	0.0	-103.1	50.0	101.9
=	0.0	-102.4	50.0	101.9
=	0.0	-101.9	50.0	101.9
=	0.0	-101.3	50.0	101.9
=	0.0	-100.5	50.0	101.9
=	0.0	-99.9	50.0	101.9
=	0.0	-99.3	50.0	101.9
=	0.0	-98.7	50.0	101.9
=	0.0	-98.1	50.0	101.9
=	0.0	-97.6	50.0	101.9
=	0.0	-96.8	50.0	102.0
=	0.0	-96.1	50.0	102.0
=	0.0	-95.5	50.0	102.0
=	0.0	-95.0	50.0	102.0
=	0.0	-94.4	50.0	102.1
=	0.0	-93.8	50.0	102.1
=	0.0	-93.3	50.0	102.2
=	0.0	-92.7	50.0	102.2
=	0.0	-92.0	50.0	102.3
=	0.0	-91.5	50.0	102.3
=	0.0	-90.9	50.0	102.3
=	0.0	-90.4	50.0	102.4
=	0.0	-89.8	50.0	102.4
=	0.0	-89.1	50.0	102.4
=	0.0	-88.5	50.0	102.4
=	0.0	-88.0	50.0	102.4
=	0.0	-87.4	50.0	102.4
=	0.0	-86.8	50.0	102.4
=	0.0	-86.2	50.0	102.5
=	0.0	-85.6	50.0	102.5
=	0.0	-85.0	50.0	102.5
=	0.0	-84.5	50.0	102.5
=	0.0	-83.9	50.0	102.5
=	0.0	-83.3	50.0	102.5
=	0.0	-82.8	50.0	102.5
=	0.0	-82.2	50.0	102.5
=	0.0	-81.6	50.0	102.5
=	0.0	-81.0	50.0	102.6
=	0.0	-80.4	50.0	102.6
=	0.0	-79.9	50.0	102.6
=	0.0	-79.4	50.0	102.6
=	0.0	-78.8	50.0	102.6
=	0.0	-78.3	50.0	102.6
=	0.0	-77.6	50.0	102.6
=	0.0	-76.9	50.0	102.6
=	0.0	-76.2	50.0	102.6
=	0.0	-75.5	50.0	102.6
=	0.0	-75.0	50.0	102.6
=	0.0	-74.3	50.0	102.6
=	0.0	-73.7	50.0	102.7
=	0.0	-73.0	50.0	102.7
=	0.0	-72.3	50.0	102.7
=	0.0	-71.7	50.0	102.8
=	0.0	-71.2	50.0	102.8
=	0.0	-70.5	50.0	102.8
=	0.0	-69.9	50.0	102.8
=	0.0	-69.3	50.0	102.8
=	0.0	-68.8	50.0	102.8
=	0.0	-68.2	50.0	102.8
=	0.0	-67.7	50.0	102.9
=	0.0	-67.1	50.0	102.9
=	0.0	-66.6	50.0	102.9
=	0.0	-65.9	50.0	102.9
=	0.0	-65.4	50.0	102.9
=	0.0	-64.7	50.0	102.9
=	0.0	-64.0	50.0	102.9
=	0.0	-63.4	50.0	102.9
=	0.0	-62.7	50.0	102.9
=	0.0	-61.9	50.0	102.9
=	0.0	-61.1	50.0	102.9
=	0.0	-60.4	50.0	103.0
=	0.0	-59.9	50.0	102.9
=	0.0	-59.4	50.0	102.9
=	0.0	-58.9	50.0	102.9
=	0.0	-58.4	50.0	102.9
=	0.0	-57.7	50.0	103.0
=	0.0	-57.0	50.0	103.0
=	0.0	-56.4	50.0	103.0
=	0.0	-55.7	50.0	103.0
=	0.0	-55.2	50.0	103.0
=	0.0	-54.6	50.0	102.9
=	0.0	-54.0	50.0	102.9
=	0.0	-53.4	50.0	102.9
=	0.0	-52.9	50.0	102.9
=	0.0	-52.4	50.0	102.9
=	0.0	-51.8	50.0	102.9
=	0.0	-51.1	50.0	102.9
=	0.0	-50.5	50.0	102.9
=	0.0	-49.9	50.0	102.9
=	0.0	-49.2	50.0	102.8
=	0.0	-48.6	50.0	102.8
=	0.0	-47.8	50.0	102.8
=	0.0	-47.0	50.0	102.8
=	0.0	-46.4	50.0	102.8
=	0.0	-45.9	50.0	102.8
=	0.0	-45.3	50.0	102.7
=	0.0	-44.8	50.0	102.7
=	0.0	-44.4	50.0	102.7
=	0.0	-43.8	50.0	102.7
=	0.0	-43.1	50.0	102.6
=	0.0	-42.6	50.0	102.6
=	0.0	-42.1	50.0	102.6
=	0.0	-41.5	50.0	102.6
=	0.0	-41.0	50.0	102.5
=	0.0	-40.4	50.0	102.5
=	0.0	-39.8	50.0	102.5
=	0.0	-39.3	50.0	102.5
=	0.0	-38.7	50.0	102.5
=	0.0	-38.0	50.0	102.5
=	0.0	-37.4	50.0	102.4
=	0.0	-36.9	50.0	102.4
=	0.0	-36.3	50.0	102.4
=	0.0	-35.6	50.0	102.4
=	0.0	-35.0	50.0	102.4
=	0.0	-34.4	50.0	102.3
=	0.0	-33.6	50.0	102.3
=	0.0	-32.9	50.0	102.2
=	0.0	-32.3	50.0	102.2
=	0.0	-31.8	50.0	102.2
=	0.0	-31.2	50.0	102.1
=	0.0	-30.6	50.0	102.1
=	0.0	-30.1	50.0	102.1
=	0.0	-29.6	50.0	102.0
=	0.0	-28.9	50.0	102.0
=	0.0	-28.4	50.0	101.9
=	0.0	-27.9	50.0	101.9
=	0.0	-27.2	50.0	101.9
=	0.0	-26.6	50.0	101.8
=	0.0	-26.0	50.0	101.8
=	0.0	-25.3	50.0	101.7
=	0.0	-24.7	50.0	101.6
=	0.0	-24.0	50.0	101.5
=	0.0	-23.3	50.0	101.5
=	0.0	-22.6	50.0	101.4
=	0.0	-22.1	50.0	101.3
=	0.0	-21.4	50.0	101.3
=	0.0	-20.8	50.0	101.2
=	0.0	-20.3	50.0	101.1
=	0.0	-19.6	50.0	101.1
=	0.0	-18.9	50.0	101.0
=	0.0	-18.1	50.0	100.9
=	0.0	-17.4	50.0	100.9
=	0.0	-16.8	50.0	100.8
=	0.0	-16.2	50.0	100.8
=	0.0	-15.6	50.0	100.7
=	0.0	-15.1	50.0	100.7
=	0.0	-14.6	50.0	100.7
=	0.0	-14.0	50.0	100.6
=	0.0	-13.5	50.0	100.6
=	0.0	-12.8	50.0	100.6
=	0.0	-12.2	50.0	100.5
=	0.0	-11.7	50.0	100.5
=	0.0	-11.2	50.0	100.4
=	0.0	-10.7	50.0	100.4
=	0.0	-10.2	50.0	100.3
=	0.0	-9.7	50.0	100.3
=	0.0	-9.1	50.0	100.2
=	0.0	-8.4	50.0	100.2
=	0.0	-7.9	50.0	100.2
=	0.0	-7.3	50.0	100.2
=	0.0	-6.6	50.0	100.1
=	0.0	-6.1	50.0	100.1
=	0.0	-5.6	50.0	100.1
=	0.0	-5.0	50.0	100.0
=	0.0	-4.3	50.0	100.0
=	0.0	-3.8	50.0	100.0
=	0.0	-3.2	50.0	100.0
=	0.0	-2.6	50.0	100.0
=	0.0	-1.9	50.0	100.0
=	0.0	-1.4	50.0	100.0
=	0.0	-0.8	50.0	100.0
=	0.0	0.0	50.0	100.0
=	0.0	0.8	50.0	100.0
=	0.0	1.4	50.0	100.0
=	0.0	1.9	50.0	100.0
=	0.0	2.6	50.0	100.0
=	0.0	3.2	50.0	100.0
=	0.0	3.8	50.0	100.0
=	0.0	4.3	50.0	100.0
=	0.0	5.0	50.0	100.0
=	0.0	5.6	50.0	100.1
=	0.0	6.1	50.0	100.1
=	0.0	6.6	50.0	100.1
=	0.0	7.3	50.0	100.2
=	0.0	7.9	50.0	100.2
=	0.0	8.4	50.0	100.2
=	0.0	9.1	50.0	100.2
=	0.0	9.7	50.0	100.3
=	0.0	10.2	50.0	100.3
=	0.0	10.7	50.0	100.4
=	0.0	11.2	50.0	100.4
=	0.0	11.7	50.0	100.5
=	0.0	12.2	50.0	100.5
=	0.0	12.8	50.0	100.6
