:MSR 	5	 # No. of measurement in file
:SYS BDS 0   # Beam Data Scanner System
#
# RFA300 ASCII Measurement Dump ( BDS format )
#
# Measurement number 	1
#
%VNR 1.0
%MOD 	RAT
%TYP 	SCN
%SCN 	PRO
%FLD 	ION
%DAT 	02-03-2012
%TIM 	12:00:00
%FSZ 	400	300
%BMT 	PHO	   4.0
%SSD 	1000
%BUP 	0
%BRD 	1000
%FSH 	1
%ASC 	0
%WEG 	15
%GPO 	0
%CPO 	0
%MEA 	6
%PRD 	12,0
%PTS 	749
%STS 	    -272.3	  0.0	   12.0 # Start Scan values in mm ( X , Y , Z )
%EDS 	    271.8	   0.0	   12.0 # End Scan values in mm ( X , Y , Z )
#
#	  X      Y      Z     Dose
#
=	-272.3	0.0	12.0	7.8
=	-271.5	0.0	12.0	7.9
=	-270.3	0.0	12.0	7.9
=	-269.0	0.0	12.0	8.0
=	-268.2	0.0	12.0	8.0
=	-267.4	0.0	12.0	8.1
=	-266.6	0.0	12.0	8.1
=	-265.9	0.0	12.0	8.1
=	-265.2	0.0	12.0	8.2
=	-264.6	0.0	12.0	8.2
=	-264.1	0.0	12.0	8.2
=	-263.6	0.0	12.0	8.3
=	-263.1	0.0	12.0	8.3
=	-262.6	0.0	12.0	8.3
=	-261.9	0.0	12.0	8.4
=	-261.4	0.0	12.0	8.4
=	-260.9	0.0	12.0	8.4
=	-260.4	0.0	12.0	8.5
=	-259.8	0.0	12.0	8.5
=	-259.2	0.0	12.0	8.5
=	-258.7	0.0	12.0	8.6
=	-258.1	0.0	12.0	8.6
=	-257.4	0.0	12.0	8.6
=	-256.9	0.0	12.0	8.7
=	-256.4	0.0	12.0	8.7
=	-255.9	0.0	12.0	8.7
=	-255.4	0.0	12.0	8.7
=	-254.9	0.0	12.0	8.8
=	-254.4	0.0	12.0	8.8
=	-253.9	0.0	12.0	8.9
=	-253.4	0.0	12.0	8.9
=	-252.9	0.0	12.0	8.9
=	-252.3	0.0	12.0	9.0
=	-251.6	0.0	12.0	9.0
=	-250.9	0.0	12.0	9.1
=	-250.4	0.0	12.0	9.1
=	-249.8	0.0	12.0	9.2
=	-249.3	0.0	12.0	9.2
=	-248.8	0.0	12.0	9.2
=	-248.1	0.0	12.0	9.3
=	-247.4	0.0	12.0	9.4
=	-246.7	0.0	12.0	9.4
=	-246.1	0.0	12.0	9.5
=	-245.3	0.0	12.0	9.5
=	-244.8	0.0	12.0	9.6
=	-244.3	0.0	12.0	9.6
=	-243.6	0.0	12.0	9.7
=	-242.8	0.0	12.0	9.8
=	-242.1	0.0	12.0	9.8
=	-241.5	0.0	12.0	9.9
=	-240.8	0.0	12.0	10.0
=	-240.0	0.0	12.0	10.0
=	-239.3	0.0	12.0	10.1
=	-238.5	0.0	12.0	10.2
=	-237.8	0.0	12.0	10.3
=	-237.0	0.0	12.0	10.4
=	-236.3	0.0	12.0	10.4
=	-235.5	0.0	12.0	10.5
=	-234.7	0.0	12.0	10.6
=	-234.0	0.0	12.0	10.7
=	-233.2	0.0	12.0	10.7
=	-232.5	0.0	12.0	10.8
=	-231.7	0.0	12.0	10.9
=	-231.0	0.0	12.0	11.0
=	-230.2	0.0	12.0	11.1
=	-229.5	0.0	12.0	11.2
=	-228.7	0.0	12.0	11.3
=	-228.0	0.0	12.0	11.4
=	-227.2	0.0	12.0	11.5
=	-226.4	0.0	12.0	11.6
=	-225.7	0.0	12.0	11.7
=	-224.9	0.0	12.0	11.8
=	-224.2	0.0	12.0	11.9
=	-223.4	0.0	12.0	12.0
=	-222.7	0.0	12.0	12.2
=	-222.1	0.0	12.0	12.3
=	-221.4	0.0	12.0	12.4
=	-220.6	0.0	12.0	12.5
=	-219.9	0.0	12.0	12.6
=	-219.2	0.0	12.0	12.7
=	-218.4	0.0	12.0	12.8
=	-217.7	0.0	12.0	13.0
=	-216.9	0.0	12.0	13.1
=	-216.2	0.0	12.0	13.3
=	-215.4	0.0	12.0	13.4
=	-214.7	0.0	12.0	13.6
=	-213.9	0.0	12.0	13.7
=	-213.2	0.0	12.0	13.9
=	-212.4	0.0	12.0	14.2
=	-211.7	0.0	12.0	14.4
=	-210.9	0.0	12.0	14.7
=	-210.2	0.0	12.0	15.1
=	-209.4	0.0	12.0	15.7
=	-208.7	0.0	12.0	16.5
=	-207.9	0.0	12.0	17.7
=	-207.1	0.0	12.0	19.4
=	-206.3	0.0	12.0	22.2
=	-205.6	0.0	12.0	25.6
=	-204.8	0.0	12.0	30.3
=	-204.1	0.0	12.0	35.4
=	-203.4	0.0	12.0	42.0
=	-202.7	0.0	12.0	48.5
=	-201.8	0.0	12.0	56.3
=	-201.1	0.0	12.0	63.7
=	-200.3	0.0	12.0	71.3
=	-199.0	0.0	12.0	82.3
=	-197.8	0.0	12.0	89.9
=	-196.5	0.0	12.0	94.4
=	-195.6	0.0	12.0	96.2
=	-194.8	0.0	12.0	97.0
=	-193.8	0.0	12.0	97.8
=	-193.0	0.0	12.0	98.2
=	-192.1	0.0	12.0	98.4
=	-191.3	0.0	12.0	98.6
=	-190.6	0.0	12.0	98.7
=	-189.8	0.0	12.0	98.8
=	-189.1	0.0	12.0	98.9
=	-188.3	0.0	12.0	99.1
=	-187.6	0.0	12.0	99.2
=	-186.8	0.0	12.0	99.3
=	-186.1	0.0	12.0	99.4
=	-185.3	0.0	12.0	99.5
=	-184.4	0.0	12.0	99.6
=	-183.6	0.0	12.0	99.6
=	-182.8	0.0	12.0	99.8
=	-182.0	0.0	12.0	99.8
=	-181.2	0.0	12.0	99.9
=	-180.5	0.0	12.0	100.0
=	-179.7	0.0	12.0	100.1
=	-179.0	0.0	12.0	100.1
=	-178.2	0.0	12.0	100.2
=	-177.5	0.0	12.0	100.2
=	-176.7	0.0	12.0	100.3
=	-175.9	0.0	12.0	100.4
=	-175.2	0.0	12.0	100.5
=	-174.4	0.0	12.0	100.5
=	-173.7	0.0	12.0	100.6
=	-172.8	0.0	12.0	100.7
=	-171.5	0.0	12.0	100.8
=	-170.4	0.0	12.0	100.9
=	-169.2	0.0	12.0	100.9
=	-168.5	0.0	12.0	101.0
=	-167.7	0.0	12.0	101.1
=	-166.4	0.0	12.0	101.2
=	-165.0	0.0	12.0	101.3
=	-163.9	0.0	12.0	101.4
=	-162.7	0.0	12.0	101.5
=	-161.9	0.0	12.0	101.5
=	-161.1	0.0	12.0	101.6
=	-160.3	0.0	12.0	101.6
=	-159.7	0.0	12.0	101.7
=	-159.1	0.0	12.0	101.7
=	-158.3	0.0	12.0	101.8
=	-157.7	0.0	12.0	101.9
=	-157.1	0.0	12.0	101.9
=	-156.4	0.0	12.0	102.0
=	-155.9	0.0	12.0	102.0
=	-155.4	0.0	12.0	102.0
=	-154.8	0.0	12.0	102.1
=	-154.0	0.0	12.0	102.2
=	-153.3	0.0	12.0	102.2
=	-152.5	0.0	12.0	102.2
=	-151.8	0.0	12.0	102.3
=	-151.0	0.0	12.0	102.3
=	-150.2	0.0	12.0	102.3
=	-149.5	0.0	12.0	102.4
=	-148.7	0.0	12.0	102.4
=	-148.0	0.0	12.0	102.4
=	-147.2	0.0	12.0	102.4
=	-146.5	0.0	12.0	102.4
=	-145.7	0.0	12.0	102.5
=	-145.0	0.0	12.0	102.5
=	-144.2	0.0	12.0	102.6
=	-143.5	0.0	12.0	102.6
=	-142.7	0.0	12.0	102.6
=	-142.0	0.0	12.0	102.7
=	-141.2	0.0	12.0	102.7
=	-140.5	0.0	12.0	102.6
=	-139.7	0.0	12.0	102.6
=	-138.9	0.0	12.0	102.6
=	-138.1	0.0	12.0	102.6
=	-137.4	0.0	12.0	102.6
=	-136.6	0.0	12.0	102.6
=	-136.0	0.0	12.0	102.6
=	-135.6	0.0	12.0	102.5
=	-135.1	0.0	12.0	102.6
=	-134.5	0.0	12.0	102.6
=	-134.0	0.0	12.0	102.6
=	-133.5	0.0	12.0	102.6
=	-133.0	0.0	12.0	102.6
=	-132.3	0.0	12.0	102.6
=	-131.6	0.0	12.0	102.6
=	-130.9	0.0	12.0	102.6
=	-130.0	0.0	12.0	102.6
=	-129.3	0.0	12.0	102.6
=	-128.5	0.0	12.0	102.5
=	-127.8	0.0	12.0	102.5
=	-127.0	0.0	12.0	102.5
=	-126.3	0.0	12.0	102.5
=	-125.6	0.0	12.0	102.5
=	-125.0	0.0	12.0	102.6
=	-124.3	0.0	12.0	102.6
=	-123.5	0.0	12.0	102.6
=	-122.8	0.0	12.0	102.6
=	-122.0	0.0	12.0	102.6
=	-121.2	0.0	12.0	102.6
=	-120.4	0.0	12.0	102.6
=	-119.7	0.0	12.0	102.6
=	-118.9	0.0	12.0	102.7
=	-118.1	0.0	12.0	102.7
=	-117.4	0.0	12.0	102.6
=	-116.6	0.0	12.0	102.6
=	-115.9	0.0	12.0	102.7
=	-115.2	0.0	12.0	102.6
=	-114.4	0.0	12.0	102.6
=	-113.5	0.0	12.0	102.6
=	-112.6	0.0	12.0	102.6
=	-111.9	0.0	12.0	102.6
=	-110.9	0.0	12.0	102.7
=	-109.8	0.0	12.0	102.7
=	-109.1	0.0	12.0	102.7
=	-108.3	0.0	12.0	102.7
=	-107.3	0.0	12.0	102.7
=	-106.0	0.0	12.0	102.7
=	-104.5	0.0	12.0	102.7
=	-103.0	0.0	12.0	102.7
=	-101.5	0.0	12.0	102.7
=	-100.3	0.0	12.0	102.7
=	-99.6	0.0	12.0	102.6
=	-98.8	0.0	12.0	102.6
=	-98.0	0.0	12.0	102.6
=	-97.2	0.0	12.0	102.6
=	-96.6	0.0	12.0	102.6
=	-95.8	0.0	12.0	102.6
=	-95.0	0.0	12.0	102.6
=	-94.2	0.0	12.0	102.5
=	-93.7	0.0	12.0	102.5
=	-93.0	0.0	12.0	102.5
=	-92.5	0.0	12.0	102.5
=	-92.0	0.0	12.0	102.5
=	-91.5	0.0	12.0	102.5
=	-91.0	0.0	12.0	102.5
=	-90.2	0.0	12.0	102.5
=	-89.7	0.0	12.0	102.5
=	-89.0	0.0	12.0	102.5
=	-88.5	0.0	12.0	102.5
=	-88.0	0.0	12.0	102.5
=	-87.5	0.0	12.0	102.5
=	-87.0	0.0	12.0	102.5
=	-86.5	0.0	12.0	102.5
=	-85.9	0.0	12.0	102.5
=	-85.4	0.0	12.0	102.5
=	-84.9	0.0	12.0	102.5
=	-84.4	0.0	12.0	102.4
=	-83.9	0.0	12.0	102.4
=	-83.4	0.0	12.0	102.5
=	-82.9	0.0	12.0	102.5
=	-82.4	0.0	12.0	102.4
=	-81.9	0.0	12.0	102.4
=	-81.4	0.0	12.0	102.4
=	-80.7	0.0	12.0	102.4
=	-80.0	0.0	12.0	102.4
=	-79.5	0.0	12.0	102.4
=	-79.0	0.0	12.0	102.4
=	-78.2	0.0	12.0	102.4
=	-77.7	0.0	12.0	102.4
=	-77.0	0.0	12.0	102.4
=	-76.5	0.0	12.0	102.4
=	-75.9	0.0	12.0	102.4
=	-75.2	0.0	12.0	102.4
=	-74.5	0.0	12.0	102.5
=	-74.0	0.0	12.0	102.4
=	-73.4	0.0	12.0	102.4
=	-72.7	0.0	12.0	102.4
=	-71.9	0.0	12.0	102.4
=	-71.1	0.0	12.0	102.4
=	-70.4	0.0	12.0	102.4
=	-69.6	0.0	12.0	102.4
=	-68.9	0.0	12.0	102.4
=	-68.1	0.0	12.0	102.4
=	-67.4	0.0	12.0	102.3
=	-66.6	0.0	12.0	102.3
=	-65.8	0.0	12.0	102.3
=	-65.1	0.0	12.0	102.3
=	-64.4	0.0	12.0	102.3
=	-63.8	0.0	12.0	102.3
=	-63.0	0.0	12.0	102.3
=	-62.3	0.0	12.0	102.3
=	-61.5	0.0	12.0	102.3
=	-60.8	0.0	12.0	102.3
=	-60.0	0.0	12.0	102.2
=	-59.3	0.0	12.0	102.2
=	-58.5	0.0	12.0	102.2
=	-57.8	0.0	12.0	102.2
=	-57.0	0.0	12.0	102.2
=	-56.3	0.0	12.0	102.1
=	-55.5	0.0	12.0	102.1
=	-54.7	0.0	12.0	102.1
=	-54.0	0.0	12.0	102.1
=	-53.2	0.0	12.0	102.0
=	-52.5	0.0	12.0	102.0
=	-51.7	0.0	12.0	102.0
=	-50.9	0.0	12.0	102.0
=	-50.2	0.0	12.0	102.0
=	-49.6	0.0	12.0	102.0
=	-49.0	0.0	12.0	102.0
=	-48.5	0.0	12.0	101.9
=	-48.0	0.0	12.0	101.9
=	-47.5	0.0	12.0	101.9
=	-46.9	0.0	12.0	101.9
=	-46.4	0.0	12.0	101.8
=	-45.6	0.0	12.0	101.8
=	-44.9	0.0	12.0	101.8
=	-44.1	0.0	12.0	101.8
=	-43.4	0.0	12.0	101.8
=	-42.6	0.0	12.0	101.7
=	-41.9	0.0	12.0	101.7
=	-41.3	0.0	12.0	101.7
=	-40.7	0.0	12.0	101.7
=	-40.1	0.0	12.0	101.7
=	-39.4	0.0	12.0	101.6
=	-38.9	0.0	12.0	101.6
=	-38.4	0.0	12.0	101.5
=	-37.9	0.0	12.0	101.5
=	-37.4	0.0	12.0	101.4
=	-36.9	0.0	12.0	101.4
=	-36.4	0.0	12.0	101.4
=	-35.9	0.0	12.0	101.4
=	-35.2	0.0	12.0	101.3
=	-34.7	0.0	12.0	101.3
=	-34.1	0.0	12.0	101.3
=	-33.5	0.0	12.0	101.3
=	-33.0	0.0	12.0	101.3
=	-32.5	0.0	12.0	101.3
=	-32.0	0.0	12.0	101.2
=	-31.5	0.0	12.0	101.2
=	-31.0	0.0	12.0	101.2
=	-30.5	0.0	12.0	101.2
=	-29.9	0.0	12.0	101.2
=	-29.3	0.0	12.0	101.1
=	-28.8	0.0	12.0	101.1
=	-28.3	0.0	12.0	101.1
=	-27.5	0.0	12.0	101.0
=	-26.9	0.0	12.0	101.0
=	-26.0	0.0	12.0	100.9
=	-25.3	0.0	12.0	100.9
=	-24.5	0.0	12.0	100.9
=	-23.8	0.0	12.0	100.8
=	-23.0	0.0	12.0	100.8
=	-22.3	0.0	12.0	100.8
=	-21.5	0.0	12.0	100.8
=	-20.7	0.0	12.0	100.7
=	-20.0	0.0	12.0	100.7
=	-19.3	0.0	12.0	100.7
=	-18.4	0.0	12.0	100.7
=	-17.7	0.0	12.0	100.6
=	-16.9	0.0	12.0	100.6
=	-16.3	0.0	12.0	100.6
=	-15.5	0.0	12.0	100.5
=	-14.7	0.0	12.0	100.5
=	-13.9	0.0	12.0	100.5
=	-13.2	0.0	12.0	100.4
=	-12.4	0.0	12.0	100.4
=	-11.7	0.0	12.0	100.4
=	-10.9	0.0	12.0	100.3
=	-10.2	0.0	12.0	100.3
=	-9.4	0.0	12.0	100.2
=	-8.6	0.0	12.0	100.2
=	-7.8	0.0	12.0	100.2
=	-6.6	0.0	12.0	100.1
=	-5.5	0.0	12.0	100.1
=	-4.3	0.0	12.0	100.0
=	-2.9	0.0	12.0	100.0
=	-1.4	0.0	12.0	100.0
=	0.0	0.0	12.0	100.0
=	0.3	0.0	12.0	100.0
=	1.9	0.0	12.0	100.0
=	3.4	0.0	12.0	100.0
=	4.6	0.0	12.0	100.0
=	6.0	0.0	12.0	100.1
=	7.0	0.0	12.0	100.1
=	8.1	0.0	12.0	100.2
=	8.9	0.0	12.0	100.2
=	9.7	0.0	12.0	100.3
=	10.4	0.0	12.0	100.3
=	11.2	0.0	12.0	100.3
=	11.9	0.0	12.0	100.4
=	12.7	0.0	12.0	100.4
=	13.5	0.0	12.0	100.4
=	14.2	0.0	12.0	100.5
=	15.0	0.0	12.0	100.5
=	15.7	0.0	12.0	100.6
=	16.5	0.0	12.0	100.6
=	17.2	0.0	12.0	100.6
=	17.9	0.0	12.0	100.7
=	18.7	0.0	12.0	100.7
=	19.5	0.0	12.0	100.7
=	20.2	0.0	12.0	100.7
=	21.0	0.0	12.0	100.7
=	21.8	0.0	12.0	100.8
=	22.5	0.0	12.0	100.8
=	23.3	0.0	12.0	100.8
=	24.0	0.0	12.0	100.9
=	24.8	0.0	12.0	100.9
=	25.5	0.0	12.0	100.9
=	26.3	0.0	12.0	101.0
=	27.1	0.0	12.0	101.0
=	27.8	0.0	12.0	101.0
=	28.5	0.0	12.0	101.1
=	29.0	0.0	12.0	101.1
=	29.5	0.0	12.0	101.1
=	30.1	0.0	12.0	101.2
=	30.7	0.0	12.0	101.2
=	31.2	0.0	12.0	101.2
=	31.7	0.0	12.0	101.2
=	32.2	0.0	12.0	101.3
=	32.7	0.0	12.0	101.3
=	33.2	0.0	12.0	101.3
=	33.7	0.0	12.0	101.3
=	34.4	0.0	12.0	101.3
=	34.9	0.0	12.0	101.3
=	35.4	0.0	12.0	101.3
=	36.0	0.0	12.0	101.4
=	36.5	0.0	12.0	101.4
=	37.1	0.0	12.0	101.4
=	37.6	0.0	12.0	101.4
=	38.1	0.0	12.0	101.5
=	38.6	0.0	12.0	101.5
=	39.1	0.0	12.0	101.6
=	39.6	0.0	12.0	101.6
=	40.3	0.0	12.0	101.7
=	40.9	0.0	12.0	101.7
=	41.5	0.0	12.0	101.7
=	42.1	0.0	12.0	101.7
=	42.9	0.0	12.0	101.8
=	43.6	0.0	12.0	101.8
=	44.4	0.0	12.0	101.8
=	45.1	0.0	12.0	101.8
=	45.9	0.0	12.0	101.8
=	46.5	0.0	12.0	101.8
=	47.1	0.0	12.0	101.9
=	47.7	0.0	12.0	101.9
=	48.2	0.0	12.0	101.9
=	48.7	0.0	12.0	101.9
=	49.2	0.0	12.0	102.0
=	49.7	0.0	12.0	102.0
=	50.4	0.0	12.0	102.0
=	51.2	0.0	12.0	102.0
=	52.0	0.0	12.0	102.0
=	52.7	0.0	12.0	102.0
=	53.5	0.0	12.0	102.1
=	54.2	0.0	12.0	102.1
=	55.0	0.0	12.0	102.1
=	55.8	0.0	12.0	102.1
=	56.5	0.0	12.0	102.2
=	57.2	0.0	12.0	102.2
=	58.0	0.0	12.0	102.2
=	58.8	0.0	12.0	102.2
=	59.5	0.0	12.0	102.2
=	60.3	0.0	12.0	102.3
=	61.0	0.0	12.0	102.3
=	61.8	0.0	12.0	102.3
=	62.6	0.0	12.0	102.3
=	63.3	0.0	12.0	102.3
=	64.0	0.0	12.0	102.3
=	64.6	0.0	12.0	102.3
=	65.3	0.0	12.0	102.3
=	66.1	0.0	12.0	102.3
=	66.8	0.0	12.0	102.3
=	67.6	0.0	12.0	102.3
=	68.4	0.0	12.0	102.4
=	69.1	0.0	12.0	102.4
=	69.9	0.0	12.0	102.4
=	70.6	0.0	12.0	102.4
=	71.4	0.0	12.0	102.4
=	72.2	0.0	12.0	102.4
=	72.9	0.0	12.0	102.4
=	73.6	0.0	12.0	102.4
=	74.1	0.0	12.0	102.4
=	74.7	0.0	12.0	102.4
=	75.4	0.0	12.0	102.4
=	76.1	0.0	12.0	102.4
=	76.7	0.0	12.0	102.4
=	77.2	0.0	12.0	102.4
=	77.8	0.0	12.0	102.4
=	78.5	0.0	12.0	102.4
=	79.2	0.0	12.0	102.4
=	79.7	0.0	12.0	102.4
=	80.2	0.0	12.0	102.4
=	81.0	0.0	12.0	102.4
=	81.6	0.0	12.0	102.4
=	82.1	0.0	12.0	102.4
=	82.6	0.0	12.0	102.4
=	83.1	0.0	12.0	102.5
=	83.6	0.0	12.0	102.4
=	84.1	0.0	12.0	102.4
=	84.6	0.0	12.0	102.5
=	85.1	0.0	12.0	102.5
=	85.6	0.0	12.0	102.5
=	86.1	0.0	12.0	102.5
=	86.6	0.0	12.0	102.5
=	87.1	0.0	12.0	102.5
=	87.6	0.0	12.0	102.5
=	88.1	0.0	12.0	102.5
=	88.6	0.0	12.0	102.5
=	89.2	0.0	12.0	102.5
=	89.8	0.0	12.0	102.5
=	90.5	0.0	12.0	102.5
=	91.2	0.0	12.0	102.5
=	91.7	0.0	12.0	102.5
=	92.2	0.0	12.0	102.5
=	92.7	0.0	12.0	102.5
=	93.2	0.0	12.0	102.5
=	93.8	0.0	12.0	102.5
=	94.5	0.0	12.0	102.5
=	95.2	0.0	12.0	102.6
=	96.1	0.0	12.0	102.6
=	96.8	0.0	12.0	102.6
=	97.5	0.0	12.0	102.6
=	98.3	0.0	12.0	102.6
=	99.1	0.0	12.0	102.6
=	99.8	0.0	12.0	102.6
=	100.6	0.0	12.0	102.7
=	102.0	0.0	12.0	102.7
=	103.5	0.0	12.0	102.7
=	105.0	0.0	12.0	102.7
=	106.5	0.0	12.0	102.7
=	107.7	0.0	12.0	102.7
=	108.6	0.0	12.0	102.7
=	109.3	0.0	12.0	102.7
=	110.2	0.0	12.0	102.7
=	111.2	0.0	12.0	102.6
=	112.1	0.0	12.0	102.6
=	112.8	0.0	12.0	102.6
=	113.9	0.0	12.0	102.6
=	114.7	0.0	12.0	102.6
=	115.4	0.0	12.0	102.6
=	116.2	0.0	12.0	102.6
=	116.9	0.0	12.0	102.6
=	117.6	0.0	12.0	102.7
=	118.4	0.0	12.0	102.7
=	119.2	0.0	12.0	102.7
=	119.9	0.0	12.0	102.6
=	120.7	0.0	12.0	102.6
=	121.5	0.0	12.0	102.6
=	122.3	0.0	12.0	102.6
=	123.0	0.0	12.0	102.6
=	123.7	0.0	12.0	102.6
=	124.5	0.0	12.0	102.6
=	125.3	0.0	12.0	102.5
=	125.8	0.0	12.0	102.5
=	126.5	0.0	12.0	102.5
=	127.3	0.0	12.0	102.5
=	128.0	0.0	12.0	102.5
=	128.8	0.0	12.0	102.5
=	129.5	0.0	12.0	102.6
=	130.3	0.0	12.0	102.6
=	131.1	0.0	12.0	102.6
=	131.9	0.0	12.0	102.6
=	132.6	0.0	12.0	102.6
=	133.2	0.0	12.0	102.6
=	133.7	0.0	12.0	102.6
=	134.2	0.0	12.0	102.6
=	134.7	0.0	12.0	102.6
=	135.2	0.0	12.0	102.6
=	135.7	0.0	12.0	102.5
=	136.2	0.0	12.0	102.6
=	136.9	0.0	12.0	102.6
=	137.6	0.0	12.0	102.6
=	138.4	0.0	12.0	102.6
=	139.1	0.0	12.0	102.6
=	140.0	0.0	12.0	102.6
=	140.7	0.0	12.0	102.6
=	141.5	0.0	12.0	102.7
=	142.2	0.0	12.0	102.6
=	143.0	0.0	12.0	102.6
=	143.7	0.0	12.0	102.6
=	144.5	0.0	12.0	102.6
=	145.2	0.0	12.0	102.5
=	146.0	0.0	12.0	102.5
=	146.7	0.0	12.0	102.4
=	147.5	0.0	12.0	102.4
=	148.2	0.0	12.0	102.4
=	149.0	0.0	12.0	102.4
=	149.7	0.0	12.0	102.4
=	150.5	0.0	12.0	102.3
=	151.3	0.0	12.0	102.3
=	152.0	0.0	12.0	102.3
=	152.8	0.0	12.0	102.2
=	153.5	0.0	12.0	102.2
=	154.3	0.0	12.0	102.1
=	155.0	0.0	12.0	102.1
=	155.5	0.0	12.0	102.0
=	156.0	0.0	12.0	102.0
=	156.6	0.0	12.0	102.0
=	157.3	0.0	12.0	101.9
=	157.9	0.0	12.0	101.9
=	158.6	0.0	12.0	101.7
=	159.3	0.0	12.0	101.7
=	159.9	0.0	12.0	101.7
=	160.6	0.0	12.0	101.6
=	161.4	0.0	12.0	101.5
=	162.2	0.0	12.0	101.5
=	163.0	0.0	12.0	101.4
=	164.3	0.0	12.0	101.3
=	165.4	0.0	12.0	101.3
=	166.9	0.0	12.0	101.1
=	168.0	0.0	12.0	101.0
=	168.7	0.0	12.0	101.0
=	169.5	0.0	12.0	100.9
=	170.9	0.0	12.0	100.8
=	171.9	0.0	12.0	100.8
=	173.2	0.0	12.0	100.7
=	174.0	0.0	12.0	100.6
=	174.7	0.0	12.0	100.5
=	175.4	0.0	12.0	100.5
=	176.2	0.0	12.0	100.4
=	177.0	0.0	12.0	100.3
=	177.7	0.0	12.0	100.2
=	178.5	0.0	12.0	100.2
=	179.2	0.0	12.0	100.1
=	180.0	0.0	12.0	100.0
=	180.7	0.0	12.0	100.0
=	181.5	0.0	12.0	99.9
=	182.2	0.0	12.0	99.8
=	183.1	0.0	12.0	99.7
=	183.8	0.0	12.0	99.6
=	184.8	0.0	12.0	99.5
=	185.6	0.0	12.0	99.5
=	186.3	0.0	12.0	99.4
=	187.1	0.0	12.0	99.3
=	187.8	0.0	12.0	99.2
=	188.6	0.0	12.0	99.0
=	189.3	0.0	12.0	98.9
=	190.1	0.0	12.0	98.8
=	190.8	0.0	12.0	98.6
=	191.6	0.0	12.0	98.5
=	192.3	0.0	12.0	98.3
=	193.3	0.0	12.0	98.1
=	194.2	0.0	12.0	97.6
=	195.1	0.0	12.0	96.8
=	195.8	0.0	12.0	95.9
=	197.0	0.0	12.0	93.0
=	198.2	0.0	12.0	88.1
=	199.5	0.0	12.0	78.4
=	200.6	0.0	12.0	68.5
=	201.3	0.0	12.0	61.5
=	202.1	0.0	12.0	53.4
=	202.9	0.0	12.0	46.6
=	203.7	0.0	12.0	39.4
=	204.4	0.0	12.0	33.7
=	205.1	0.0	12.0	28.6
=	205.9	0.0	12.0	24.4
=	206.6	0.0	12.0	21.1
=	207.4	0.0	12.0	18.8
=	208.2	0.0	12.0	17.2
=	208.9	0.0	12.0	16.2
=	209.7	0.0	12.0	15.4
=	210.4	0.0	12.0	15.0
=	211.1	0.0	12.0	14.6
=	211.9	0.0	12.0	14.3
=	212.7	0.0	12.0	14.1
=	213.4	0.0	12.0	13.9
=	214.2	0.0	12.0	13.7
=	214.9	0.0	12.0	13.5
=	215.7	0.0	12.0	13.4
=	216.4	0.0	12.0	13.2
=	217.2	0.0	12.0	13.1
=	217.9	0.0	12.0	12.9
=	218.7	0.0	12.0	12.8
=	219.4	0.0	12.0	12.7
=	220.1	0.0	12.0	12.6
=	220.9	0.0	12.0	12.5
=	221.6	0.0	12.0	12.3
=	222.4	0.0	12.0	12.2
=	222.9	0.0	12.0	12.1
=	223.7	0.0	12.0	12.0
=	224.4	0.0	12.0	11.9
=	225.2	0.0	12.0	11.8
=	225.9	0.0	12.0	11.7
=	226.7	0.0	12.0	11.6
=	227.4	0.0	12.0	11.5
=	228.2	0.0	12.0	11.4
=	229.0	0.0	12.0	11.3
=	229.7	0.0	12.0	11.2
=	230.5	0.0	12.0	11.1
=	231.2	0.0	12.0	11.0
=	232.0	0.0	12.0	10.9
=	232.7	0.0	12.0	10.8
=	233.5	0.0	12.0	10.7
=	234.3	0.0	12.0	10.6
=	235.0	0.0	12.0	10.6
=	235.7	0.0	12.0	10.5
=	236.5	0.0	12.0	10.4
=	237.3	0.0	12.0	10.4
=	238.0	0.0	12.0	10.3
=	238.8	0.0	12.0	10.2
=	239.5	0.0	12.0	10.1
=	240.3	0.0	12.0	10.0
=	241.0	0.0	12.0	10.0
=	241.6	0.0	12.0	9.9
=	242.3	0.0	12.0	9.8
=	243.1	0.0	12.0	9.8
=	243.8	0.0	12.0	9.7
=	244.5	0.0	12.0	9.6
=	245.0	0.0	12.0	9.6
=	245.6	0.0	12.0	9.5
=	246.3	0.0	12.0	9.5
=	246.9	0.0	12.0	9.4
=	247.6	0.0	12.0	9.3
=	248.4	0.0	12.0	9.3
=	249.0	0.0	12.0	9.2
=	249.5	0.0	12.0	9.2
=	250.0	0.0	12.0	9.2
=	250.5	0.0	12.0	9.1
=	251.1	0.0	12.0	9.1
=	251.9	0.0	12.0	9.0
=	252.5	0.0	12.0	9.0
=	253.0	0.0	12.0	8.9
=	253.5	0.0	12.0	8.9
=	254.0	0.0	12.0	8.8
=	254.5	0.0	12.0	8.8
=	255.1	0.0	12.0	8.8
=	255.6	0.0	12.0	8.7
=	256.1	0.0	12.0	8.7
=	256.6	0.0	12.0	8.7
=	257.1	0.0	12.0	8.7
=	257.7	0.0	12.0	8.6
=	258.2	0.0	12.0	8.6
=	258.9	0.0	12.0	8.5
=	259.4	0.0	12.0	8.5
=	260.0	0.0	12.0	8.5
=	260.6	0.0	12.0	8.4
=	261.1	0.0	12.0	8.4
=	261.6	0.0	12.0	8.4
=	262.1	0.0	12.0	8.4
=	262.8	0.0	12.0	8.3
=	263.3	0.0	12.0	8.3
=	263.8	0.0	12.0	8.3
=	264.3	0.0	12.0	8.2
=	264.9	0.0	12.0	8.2
=	265.4	0.0	12.0	8.2
=	266.1	0.0	12.0	8.1
=	266.9	0.0	12.0	8.1
=	267.6	0.0	12.0	8.1
=	268.5	0.0	12.0	8.0
=	269.3	0.0	12.0	8.0
=	270.8	0.0	12.0	7.9
=	271.8	0.0	12.0	7.9
:EOM # End of Measurement
#
# RFA300 ASCII Measurement Dump ( BDS format )
#
# Measurement number 	2
#
%VNR 1.0
%MOD 	RAT
%TYP 	SCN
%SCN 	PRO
%FLD 	ION
%DAT 	02-03-2012
%TIM 	12:00:00
%FSZ 	400	300
%BMT 	PHO	   4.0
%SSD 	1000
%BUP 	0
%BRD 	1000
%FSH 	1
%ASC 	0
%WEG 	15
%GPO 	0
%CPO 	0
%MEA 	6
%PRD 	50,0
%PTS 	793
%STS 	    -283.1	  0.0	   50.0 # Start Scan values in mm ( X , Y , Z )
%EDS 	    283.1	   0.0	   50.0 # End Scan values in mm ( X , Y , Z )
#
#	  X      Y      Z     Dose
#
=	-283.1	0.0	50.0	8.4
=	-282.4	0.0	50.0	8.4
=	-281.6	0.0	50.0	8.5
=	-280.8	0.0	50.0	8.5
=	-280.0	0.0	50.0	8.6
=	-279.3	0.0	50.0	8.6
=	-278.5	0.0	50.0	8.7
=	-277.8	0.0	50.0	8.7
=	-277.0	0.0	50.0	8.8
=	-276.3	0.0	50.0	8.8
=	-275.5	0.0	50.0	8.9
=	-274.8	0.0	50.0	8.9
=	-274.0	0.0	50.0	9.0
=	-273.2	0.0	50.0	9.0
=	-272.5	0.0	50.0	9.1
=	-271.7	0.0	50.0	9.2
=	-270.9	0.0	50.0	9.2
=	-270.2	0.0	50.0	9.2
=	-269.5	0.0	50.0	9.3
=	-268.7	0.0	50.0	9.4
=	-267.9	0.0	50.0	9.4
=	-267.2	0.0	50.0	9.5
=	-266.4	0.0	50.0	9.6
=	-265.7	0.0	50.0	9.6
=	-264.9	0.0	50.0	9.7
=	-264.2	0.0	50.0	9.7
=	-263.5	0.0	50.0	9.8
=	-262.7	0.0	50.0	9.9
=	-261.9	0.0	50.0	9.9
=	-261.2	0.0	50.0	10.0
=	-260.4	0.0	50.0	10.1
=	-259.7	0.0	50.0	10.1
=	-258.9	0.0	50.0	10.2
=	-258.1	0.0	50.0	10.3
=	-257.4	0.0	50.0	10.4
=	-256.6	0.0	50.0	10.5
=	-255.9	0.0	50.0	10.6
=	-255.1	0.0	50.0	10.6
=	-254.4	0.0	50.0	10.7
=	-253.6	0.0	50.0	10.8
=	-252.9	0.0	50.0	10.9
=	-252.1	0.0	50.0	11.0
=	-251.4	0.0	50.0	11.1
=	-250.6	0.0	50.0	11.2
=	-249.9	0.0	50.0	11.3
=	-249.1	0.0	50.0	11.4
=	-248.3	0.0	50.0	11.5
=	-247.6	0.0	50.0	11.5
=	-246.8	0.0	50.0	11.6
=	-246.1	0.0	50.0	11.7
=	-245.3	0.0	50.0	11.8
=	-244.6	0.0	50.0	11.9
=	-243.8	0.0	50.0	12.1
=	-243.0	0.0	50.0	12.2
=	-242.3	0.0	50.0	12.3
=	-241.6	0.0	50.0	12.4
=	-240.8	0.0	50.0	12.5
=	-240.1	0.0	50.0	12.6
=	-239.3	0.0	50.0	12.8
=	-238.5	0.0	50.0	12.9
=	-237.8	0.0	50.0	13.0
=	-237.0	0.0	50.0	13.2
=	-236.3	0.0	50.0	13.3
=	-235.5	0.0	50.0	13.4
=	-234.8	0.0	50.0	13.6
=	-234.0	0.0	50.0	13.7
=	-233.3	0.0	50.0	13.9
=	-232.5	0.0	50.0	14.0
=	-231.8	0.0	50.0	14.1
=	-231.0	0.0	50.0	14.3
=	-230.3	0.0	50.0	14.5
=	-229.5	0.0	50.0	14.7
=	-228.9	0.0	50.0	14.8
=	-228.4	0.0	50.0	14.9
=	-227.8	0.0	50.0	15.1
=	-227.0	0.0	50.0	15.3
=	-226.2	0.0	50.0	15.5
=	-225.4	0.0	50.0	15.7
=	-224.7	0.0	50.0	15.9
=	-223.9	0.0	50.0	16.2
=	-223.2	0.0	50.0	16.3
=	-222.4	0.0	50.0	16.5
=	-221.7	0.0	50.0	16.8
=	-220.9	0.0	50.0	17.2
=	-220.2	0.0	50.0	17.4
=	-219.4	0.0	50.0	17.7
=	-218.8	0.0	50.0	18.1
=	-218.3	0.0	50.0	18.4
=	-217.8	0.0	50.0	18.7
=	-217.2	0.0	50.0	19.2
=	-216.4	0.0	50.0	20.0
=	-215.7	0.0	50.0	21.2
=	-214.9	0.0	50.0	22.9
=	-214.2	0.0	50.0	25.0
=	-213.6	0.0	50.0	27.0
=	-212.9	0.0	50.0	30.4
=	-212.1	0.0	50.0	34.6
=	-211.4	0.0	50.0	39.7
=	-210.6	0.0	50.0	45.2
=	-209.9	0.0	50.0	51.4
=	-209.1	0.0	50.0	57.9
=	-208.3	0.0	50.0	64.5
=	-207.6	0.0	50.0	70.4
=	-207.1	0.0	50.0	74.7
=	-206.5	0.0	50.0	78.3
=	-206.1	0.0	50.0	81.2
=	-205.5	0.0	50.0	83.9
=	-205.0	0.0	50.0	86.2
=	-204.5	0.0	50.0	88.0
=	-203.9	0.0	50.0	89.7
=	-203.2	0.0	50.0	91.1
=	-202.7	0.0	50.0	91.8
=	-202.2	0.0	50.0	92.4
=	-201.7	0.0	50.0	92.8
=	-201.2	0.0	50.0	93.0
=	-200.6	0.0	50.0	93.5
=	-199.8	0.0	50.0	94.0
=	-199.1	0.0	50.0	94.2
=	-198.5	0.0	50.0	94.5
=	-198.0	0.0	50.0	94.7
=	-197.5	0.0	50.0	94.8
=	-197.0	0.0	50.0	95.0
=	-196.5	0.0	50.0	95.1
=	-195.9	0.0	50.0	95.3
=	-195.1	0.0	50.0	95.5
=	-194.3	0.0	50.0	95.7
=	-193.6	0.0	50.0	95.9
=	-192.8	0.0	50.0	96.1
=	-192.1	0.0	50.0	96.1
=	-191.3	0.0	50.0	96.3
=	-190.5	0.0	50.0	96.5
=	-189.8	0.0	50.0	96.7
=	-189.0	0.0	50.0	96.8
=	-188.3	0.0	50.0	96.9
=	-187.5	0.0	50.0	97.1
=	-186.8	0.0	50.0	97.2
=	-186.0	0.0	50.0	97.3
=	-185.2	0.0	50.0	97.4
=	-184.6	0.0	50.0	97.6
=	-184.0	0.0	50.0	97.7
=	-183.3	0.0	50.0	97.8
=	-182.6	0.0	50.0	97.9
=	-182.0	0.0	50.0	97.9
=	-181.3	0.0	50.0	98.1
=	-180.5	0.0	50.0	98.2
=	-179.7	0.0	50.0	98.3
=	-179.0	0.0	50.0	98.5
=	-178.2	0.0	50.0	98.6
=	-177.5	0.0	50.0	98.7
=	-176.7	0.0	50.0	98.8
=	-176.0	0.0	50.0	98.9
=	-175.2	0.0	50.0	99.0
=	-174.5	0.0	50.0	99.0
=	-173.7	0.0	50.0	99.1
=	-173.0	0.0	50.0	99.1
=	-172.2	0.0	50.0	99.3
=	-171.5	0.0	50.0	99.4
=	-170.7	0.0	50.0	99.5
=	-170.1	0.0	50.0	99.5
=	-169.6	0.0	50.0	99.6
=	-169.0	0.0	50.0	99.6
=	-168.2	0.0	50.0	99.7
=	-167.5	0.0	50.0	99.7
=	-166.7	0.0	50.0	99.8
=	-166.0	0.0	50.0	99.9
=	-165.2	0.0	50.0	100.0
=	-164.5	0.0	50.0	100.1
=	-163.7	0.0	50.0	100.2
=	-163.0	0.0	50.0	100.2
=	-162.2	0.0	50.0	100.3
=	-161.4	0.0	50.0	100.3
=	-160.7	0.0	50.0	100.4
=	-159.9	0.0	50.0	100.5
=	-159.1	0.0	50.0	100.6
=	-158.4	0.0	50.0	100.6
=	-157.6	0.0	50.0	100.7
=	-156.8	0.0	50.0	100.7
=	-155.9	0.0	50.0	100.8
=	-155.1	0.0	50.0	100.9
=	-154.4	0.0	50.0	101.0
=	-153.6	0.0	50.0	101.0
=	-152.9	0.0	50.0	101.1
=	-152.1	0.0	50.0	101.1
=	-151.3	0.0	50.0	101.1
=	-150.6	0.0	50.0	101.2
=	-149.8	0.0	50.0	101.2
=	-149.0	0.0	50.0	101.2
=	-148.3	0.0	50.0	101.2
=	-147.5	0.0	50.0	101.3
=	-146.8	0.0	50.0	101.3
=	-146.0	0.0	50.0	101.3
=	-145.3	0.0	50.0	101.3
=	-144.5	0.0	50.0	101.4
=	-143.7	0.0	50.0	101.4
=	-143.0	0.0	50.0	101.4
=	-142.2	0.0	50.0	101.4
=	-141.5	0.0	50.0	101.5
=	-140.8	0.0	50.0	101.5
=	-140.0	0.0	50.0	101.5
=	-139.2	0.0	50.0	101.5
=	-138.5	0.0	50.0	101.5
=	-137.7	0.0	50.0	101.5
=	-136.9	0.0	50.0	101.5
=	-136.2	0.0	50.0	101.5
=	-135.4	0.0	50.0	101.6
=	-134.7	0.0	50.0	101.6
=	-133.9	0.0	50.0	101.6
=	-133.2	0.0	50.0	101.6
=	-132.7	0.0	50.0	101.6
=	-132.2	0.0	50.0	101.6
=	-131.6	0.0	50.0	101.6
=	-130.9	0.0	50.0	101.6
=	-130.4	0.0	50.0	101.6
=	-129.9	0.0	50.0	101.6
=	-129.3	0.0	50.0	101.6
=	-128.8	0.0	50.0	101.6
=	-128.3	0.0	50.0	101.6
=	-127.8	0.0	50.0	101.7
=	-127.3	0.0	50.0	101.7
=	-126.8	0.0	50.0	101.7
=	-126.3	0.0	50.0	101.7
=	-125.8	0.0	50.0	101.7
=	-125.3	0.0	50.0	101.7
=	-124.8	0.0	50.0	101.7
=	-124.3	0.0	50.0	101.7
=	-123.8	0.0	50.0	101.7
=	-123.3	0.0	50.0	101.7
=	-122.8	0.0	50.0	101.7
=	-122.3	0.0	50.0	101.7
=	-121.8	0.0	50.0	101.7
=	-121.3	0.0	50.0	101.8
=	-120.8	0.0	50.0	101.8
=	-120.3	0.0	50.0	101.8
=	-119.7	0.0	50.0	101.8
=	-119.2	0.0	50.0	101.8
=	-118.7	0.0	50.0	101.9
=	-118.2	0.0	50.0	101.9
=	-117.7	0.0	50.0	101.9
=	-117.2	0.0	50.0	101.9
=	-116.7	0.0	50.0	101.9
=	-116.2	0.0	50.0	101.9
=	-115.7	0.0	50.0	101.9
=	-115.2	0.0	50.0	102.0
=	-114.7	0.0	50.0	102.0
=	-114.2	0.0	50.0	102.0
=	-113.7	0.0	50.0	102.0
=	-113.2	0.0	50.0	102.0
=	-112.6	0.0	50.0	102.0
=	-112.0	0.0	50.0	102.0
=	-111.5	0.0	50.0	102.0
=	-111.0	0.0	50.0	102.0
=	-110.5	0.0	50.0	102.0
=	-110.0	0.0	50.0	102.0
=	-109.5	0.0	50.0	102.0
=	-109.0	0.0	50.0	102.0
=	-108.5	0.0	50.0	102.0
=	-108.0	0.0	50.0	102.0
=	-107.3	0.0	50.0	102.0
=	-106.6	0.0	50.0	102.0
=	-106.0	0.0	50.0	102.0
=	-105.3	0.0	50.0	102.0
=	-104.5	0.0	50.0	102.0
=	-103.7	0.0	50.0	102.0
=	-103.0	0.0	50.0	102.0
=	-102.3	0.0	50.0	102.0
=	-101.5	0.0	50.0	102.0
=	-100.7	0.0	50.0	102.0
=	-99.9	0.0	50.0	102.0
=	-99.2	0.0	50.0	102.0
=	-98.4	0.0	50.0	101.9
=	-97.7	0.0	50.0	101.9
=	-96.9	0.0	50.0	102.0
=	-96.2	0.0	50.0	102.0
=	-95.4	0.0	50.0	102.0
=	-94.7	0.0	50.0	102.0
=	-93.9	0.0	50.0	102.0
=	-93.2	0.0	50.0	102.0
=	-92.4	0.0	50.0	102.0
=	-91.7	0.0	50.0	102.0
=	-90.9	0.0	50.0	102.0
=	-90.1	0.0	50.0	102.0
=	-89.4	0.0	50.0	102.0
=	-88.7	0.0	50.0	102.0
=	-87.9	0.0	50.0	102.0
=	-87.1	0.0	50.0	102.0
=	-86.4	0.0	50.0	102.0
=	-85.6	0.0	50.0	102.0
=	-84.8	0.0	50.0	102.0
=	-84.1	0.0	50.0	102.0
=	-83.3	0.0	50.0	102.1
=	-82.6	0.0	50.0	102.1
=	-82.1	0.0	50.0	102.1
=	-81.3	0.0	50.0	102.1
=	-80.6	0.0	50.0	102.1
=	-79.8	0.0	50.0	102.1
=	-79.1	0.0	50.0	102.1
=	-78.4	0.0	50.0	102.1
=	-77.9	0.0	50.0	102.1
=	-77.4	0.0	50.0	102.1
=	-76.8	0.0	50.0	102.1
=	-76.2	0.0	50.0	102.1
=	-75.7	0.0	50.0	102.1
=	-75.2	0.0	50.0	102.1
=	-74.6	0.0	50.0	102.1
=	-73.9	0.0	50.0	102.1
=	-73.4	0.0	50.0	102.1
=	-72.7	0.0	50.0	102.1
=	-72.2	0.0	50.0	102.1
=	-71.6	0.0	50.0	102.1
=	-71.0	0.0	50.0	102.1
=	-70.5	0.0	50.0	102.1
=	-70.0	0.0	50.0	102.0
=	-69.4	0.0	50.0	102.0
=	-68.7	0.0	50.0	102.0
=	-68.0	0.0	50.0	102.0
=	-67.5	0.0	50.0	101.9
=	-66.9	0.0	50.0	101.9
=	-66.1	0.0	50.0	102.0
=	-65.4	0.0	50.0	101.9
=	-64.6	0.0	50.0	102.0
=	-64.1	0.0	50.0	102.0
=	-63.4	0.0	50.0	101.9
=	-62.6	0.0	50.0	101.9
=	-61.8	0.0	50.0	101.9
=	-61.1	0.0	50.0	101.9
=	-60.3	0.0	50.0	101.9
=	-59.5	0.0	50.0	101.9
=	-58.8	0.0	50.0	101.9
=	-58.1	0.0	50.0	101.9
=	-57.3	0.0	50.0	101.9
=	-56.5	0.0	50.0	101.9
=	-55.7	0.0	50.0	101.8
=	-55.0	0.0	50.0	101.8
=	-54.2	0.0	50.0	101.8
=	-53.5	0.0	50.0	101.8
=	-52.7	0.0	50.0	101.8
=	-51.8	0.0	50.0	101.8
=	-51.0	0.0	50.0	101.8
=	-50.1	0.0	50.0	101.7
=	-48.8	0.0	50.0	101.7
=	-47.3	0.0	50.0	101.6
=	-45.7	0.0	50.0	101.6
=	-44.2	0.0	50.0	101.6
=	-42.7	0.0	50.0	101.5
=	-41.2	0.0	50.0	101.4
=	-39.7	0.0	50.0	101.4
=	-38.3	0.0	50.0	101.3
=	-37.2	0.0	50.0	101.3
=	-36.0	0.0	50.0	101.2
=	-35.1	0.0	50.0	101.2
=	-34.0	0.0	50.0	101.2
=	-33.2	0.0	50.0	101.2
=	-32.4	0.0	50.0	101.1
=	-31.7	0.0	50.0	101.1
=	-30.9	0.0	50.0	101.1
=	-30.2	0.0	50.0	101.1
=	-29.4	0.0	50.0	101.1
=	-28.7	0.0	50.0	101.0
=	-27.9	0.0	50.0	101.0
=	-27.1	0.0	50.0	101.0
=	-26.4	0.0	50.0	101.0
=	-25.7	0.0	50.0	100.9
=	-24.9	0.0	50.0	100.9
=	-24.2	0.0	50.0	100.8
=	-23.4	0.0	50.0	100.8
=	-22.7	0.0	50.0	100.8
=	-21.9	0.0	50.0	100.7
=	-21.1	0.0	50.0	100.7
=	-20.3	0.0	50.0	100.7
=	-19.6	0.0	50.0	100.7
=	-18.9	0.0	50.0	100.7
=	-18.1	0.0	50.0	100.6
=	-17.3	0.0	50.0	100.6
=	-16.6	0.0	50.0	100.6
=	-15.8	0.0	50.0	100.6
=	-15.1	0.0	50.0	100.5
=	-14.5	0.0	50.0	100.5
=	-13.9	0.0	50.0	100.5
=	-13.3	0.0	50.0	100.5
=	-12.6	0.0	50.0	100.5
=	-11.8	0.0	50.0	100.4
=	-11.1	0.0	50.0	100.4
=	-10.3	0.0	50.0	100.3
=	-9.5	0.0	50.0	100.3
=	-8.8	0.0	50.0	100.2
=	-8.0	0.0	50.0	100.2
=	-7.2	0.0	50.0	100.2
=	-6.5	0.0	50.0	100.1
=	-5.7	0.0	50.0	100.1
=	-4.9	0.0	50.0	100.1
=	-4.2	0.0	50.0	100.1
=	-3.5	0.0	50.0	100.1
=	-2.7	0.0	50.0	100.1
=	-1.9	0.0	50.0	100.1
=	-1.2	0.0	50.0	100.1
=	-0.4	0.0	50.0	100.0
=	0.0	0.0	50.0	100.0
=	0.4	0.0	50.0	100.0
=	1.2	0.0	50.0	100.1
=	1.9	0.0	50.0	100.1
=	2.7	0.0	50.0	100.1
=	3.5	0.0	50.0	100.1
=	4.2	0.0	50.0	100.1
=	4.9	0.0	50.0	100.1
=	5.7	0.0	50.0	100.1
=	6.5	0.0	50.0	100.1
=	7.2	0.0	50.0	100.2
=	8.0	0.0	50.0	100.2
=	8.8	0.0	50.0	100.2
=	9.5	0.0	50.0	100.3
=	10.3	0.0	50.0	100.3
=	11.1	0.0	50.0	100.4
=	11.8	0.0	50.0	100.4
=	12.6	0.0	50.0	100.5
=	13.3	0.0	50.0	100.5
=	13.9	0.0	50.0	100.5
=	14.5	0.0	50.0	100.5
=	15.1	0.0	50.0	100.5
=	15.8	0.0	50.0	100.6
=	16.6	0.0	50.0	100.6
=	17.3	0.0	50.0	100.6
=	18.1	0.0	50.0	100.6
=	18.9	0.0	50.0	100.7
=	19.6	0.0	50.0	100.7
=	20.3	0.0	50.0	100.7
=	21.1	0.0	50.0	100.7
=	21.9	0.0	50.0	100.7
=	22.7	0.0	50.0	100.8
=	23.4	0.0	50.0	100.8
=	24.2	0.0	50.0	100.8
=	24.9	0.0	50.0	100.9
=	25.7	0.0	50.0	100.9
=	26.4	0.0	50.0	101.0
=	27.1	0.0	50.0	101.0
=	27.9	0.0	50.0	101.0
=	28.7	0.0	50.0	101.0
=	29.4	0.0	50.0	101.1
=	30.2	0.0	50.0	101.1
=	30.9	0.0	50.0	101.1
=	31.7	0.0	50.0	101.1
=	32.4	0.0	50.0	101.1
=	33.2	0.0	50.0	101.2
=	34.0	0.0	50.0	101.2
=	35.1	0.0	50.0	101.2
=	36.0	0.0	50.0	101.2
=	37.2	0.0	50.0	101.3
=	38.3	0.0	50.0	101.3
=	39.7	0.0	50.0	101.4
=	41.2	0.0	50.0	101.4
=	42.7	0.0	50.0	101.5
=	44.2	0.0	50.0	101.6
=	45.7	0.0	50.0	101.6
=	47.3	0.0	50.0	101.6
=	48.8	0.0	50.0	101.7
=	50.1	0.0	50.0	101.7
=	51.0	0.0	50.0	101.8
=	51.8	0.0	50.0	101.8
=	52.7	0.0	50.0	101.8
=	53.5	0.0	50.0	101.8
=	54.2	0.0	50.0	101.8
=	55.0	0.0	50.0	101.8
=	55.7	0.0	50.0	101.8
=	56.5	0.0	50.0	101.9
=	57.3	0.0	50.0	101.9
=	58.1	0.0	50.0	101.9
=	58.8	0.0	50.0	101.9
=	59.5	0.0	50.0	101.9
=	60.3	0.0	50.0	101.9
=	61.1	0.0	50.0	101.9
=	61.8	0.0	50.0	101.9
=	62.6	0.0	50.0	101.9
=	63.4	0.0	50.0	101.9
=	64.1	0.0	50.0	102.0
=	64.6	0.0	50.0	102.0
=	65.4	0.0	50.0	101.9
=	66.1	0.0	50.0	102.0
=	66.9	0.0	50.0	101.9
=	67.5	0.0	50.0	101.9
=	68.0	0.0	50.0	102.0
=	68.7	0.0	50.0	102.0
=	69.4	0.0	50.0	102.0
=	70.0	0.0	50.0	102.0
=	70.5	0.0	50.0	102.1
=	71.0	0.0	50.0	102.1
=	71.6	0.0	50.0	102.1
=	72.2	0.0	50.0	102.1
=	72.7	0.0	50.0	102.1
=	73.4	0.0	50.0	102.1
=	73.9	0.0	50.0	102.1
=	74.6	0.0	50.0	102.1
=	75.2	0.0	50.0	102.1
=	75.7	0.0	50.0	102.1
=	76.2	0.0	50.0	102.1
=	76.8	0.0	50.0	102.1
=	77.4	0.0	50.0	102.1
=	77.9	0.0	50.0	102.1
=	78.4	0.0	50.0	102.1
=	79.1	0.0	50.0	102.1
=	79.8	0.0	50.0	102.1
=	80.6	0.0	50.0	102.1
=	81.3	0.0	50.0	102.1
=	82.1	0.0	50.0	102.1
=	82.6	0.0	50.0	102.1
=	83.3	0.0	50.0	102.1
=	84.1	0.0	50.0	102.0
=	84.8	0.0	50.0	102.0
=	85.6	0.0	50.0	102.0
=	86.4	0.0	50.0	102.0
=	87.1	0.0	50.0	102.0
=	87.9	0.0	50.0	102.0
=	88.7	0.0	50.0	102.0
=	89.4	0.0	50.0	102.0
=	90.1	0.0	50.0	102.0
=	90.9	0.0	50.0	102.0
=	91.7	0.0	50.0	102.0
=	92.4	0.0	50.0	102.0
=	93.2	0.0	50.0	102.0
=	93.9	0.0	50.0	102.0
=	94.7	0.0	50.0	102.0
=	95.4	0.0	50.0	102.0
=	96.2	0.0	50.0	102.0
=	96.9	0.0	50.0	102.0
=	97.7	0.0	50.0	101.9
=	98.4	0.0	50.0	101.9
=	99.2	0.0	50.0	102.0
=	99.9	0.0	50.0	102.0
