:MSR 	5	 # No. of measurement in file
:SYS BDS 0   # Beam Data Scanner System
#
# RFA300 ASCII Measurement Dump ( BDS format )
#
# Measurement number 	1
#
%VNR 1.0
%MOD 	RAT
%TYP 	SCN
%SCN 	PRO
%FLD 	ION
%DAT 	02-03-2012
%TIM 	12:00:00
%FSZ 	400	300
%BMT 	PHO	   4.0
%SSD 	1000
%BUP 	0
%BRD 	1000
%FSH 	1
%ASC 	0
%WEG 	15
%GPO 	0
%CPO 	0
%MEA 	6
%PRD 	12,0
%PTS 	749
%STS 	    0.0	  -272.3	   12.0 # Start Scan values in mm ( X , Y , Z )
%EDS 	    0.0	   271.8	   12.0 # End Scan values in mm ( X , Y , Z )
#
#	  X      Y      Z     Dose
#
=	0.0	-272.3	12.0	7.8
=	0.0	-271.5	12.0	7.9
=	0.0	-270.3	12.0	7.9
=	0.0	-269.0	12.0	8.0
=	0.0	-268.2	12.0	8.0
=	0.0	-267.4	12.0	8.1
=	0.0	-266.6	12.0	8.1
=	0.0	-265.9	12.0	8.1
=	0.0	-265.2	12.0	8.2
=	0.0	-264.6	12.0	8.2
=	0.0	-264.1	12.0	8.2
=	0.0	-263.6	12.0	8.3
=	0.0	-263.1	12.0	8.3
=	0.0	-262.6	12.0	8.3
=	0.0	-261.9	12.0	8.4
=	0.0	-261.4	12.0	8.4
=	0.0	-260.9	12.0	8.4
=	0.0	-260.4	12.0	8.5
=	0.0	-259.8	12.0	8.5
=	0.0	-259.2	12.0	8.5
=	0.0	-258.7	12.0	8.6
=	0.0	-258.1	12.0	8.6
=	0.0	-257.4	12.0	8.6
=	0.0	-256.9	12.0	8.7
=	0.0	-256.4	12.0	8.7
=	0.0	-255.9	12.0	8.7
=	0.0	-255.4	12.0	8.7
=	0.0	-254.9	12.0	8.8
=	0.0	-254.4	12.0	8.8
=	0.0	-253.9	12.0	8.9
=	0.0	-253.4	12.0	8.9
=	0.0	-252.9	12.0	8.9
=	0.0	-252.3	12.0	9.0
=	0.0	-251.6	12.0	9.0
=	0.0	-250.9	12.0	9.1
=	0.0	-250.4	12.0	9.1
=	0.0	-249.8	12.0	9.2
=	0.0	-249.3	12.0	9.2
=	0.0	-248.8	12.0	9.2
=	0.0	-248.1	12.0	9.3
=	0.0	-247.4	12.0	9.4
=	0.0	-246.7	12.0	9.4
=	0.0	-246.1	12.0	9.5
=	0.0	-245.3	12.0	9.5
=	0.0	-244.8	12.0	9.6
=	0.0	-244.3	12.0	9.6
=	0.0	-243.6	12.0	9.7
=	0.0	-242.8	12.0	9.8
=	0.0	-242.1	12.0	9.8
=	0.0	-241.5	12.0	9.9
=	0.0	-240.8	12.0	10.0
=	0.0	-240.0	12.0	10.0
=	0.0	-239.3	12.0	10.1
=	0.0	-238.5	12.0	10.2
=	0.0	-237.8	12.0	10.3
=	0.0	-237.0	12.0	10.4
=	0.0	-236.3	12.0	10.4
=	0.0	-235.5	12.0	10.5
=	0.0	-234.7	12.0	10.6
=	0.0	-234.0	12.0	10.7
=	0.0	-233.2	12.0	10.7
=	0.0	-232.5	12.0	10.8
=	0.0	-231.7	12.0	10.9
=	0.0	-231.0	12.0	11.0
=	0.0	-230.2	12.0	11.1
=	0.0	-229.5	12.0	11.2
=	0.0	-228.7	12.0	11.3
=	0.0	-228.0	12.0	11.4
=	0.0	-227.2	12.0	11.5
=	0.0	-226.4	12.0	11.6
=	0.0	-225.7	12.0	11.7
=	0.0	-224.9	12.0	11.8
=	0.0	-224.2	12.0	11.9
=	0.0	-223.4	12.0	12.0
=	0.0	-222.7	12.0	12.2
=	0.0	-222.1	12.0	12.3
=	0.0	-221.4	12.0	12.4
=	0.0	-220.6	12.0	12.5
=	0.0	-219.9	12.0	12.6
=	0.0	-219.2	12.0	12.7
=	0.0	-218.4	12.0	12.8
=	0.0	-217.7	12.0	13.0
=	0.0	-216.9	12.0	13.1
=	0.0	-216.2	12.0	13.3
=	0.0	-215.4	12.0	13.4
=	0.0	-214.7	12.0	13.6
=	0.0	-213.9	12.0	13.7
=	0.0	-213.2	12.0	13.9
=	0.0	-212.4	12.0	14.2
=	0.0	-211.7	12.0	14.4
=	0.0	-210.9	12.0	14.7
=	0.0	-210.2	12.0	15.1
=	0.0	-209.4	12.0	15.7
=	0.0	-208.7	12.0	16.5
=	0.0	-207.9	12.0	17.7
=	0.0	-207.1	12.0	19.4
=	0.0	-206.3	12.0	22.2
=	0.0	-205.6	12.0	25.6
=	0.0	-204.8	12.0	30.3
=	0.0	-204.1	12.0	35.4
=	0.0	-203.4	12.0	42.0
=	0.0	-202.7	12.0	48.5
=	0.0	-201.8	12.0	56.3
=	0.0	-201.1	12.0	63.7
=	0.0	-200.3	12.0	71.3
=	0.0	-199.0	12.0	82.3
=	0.0	-197.8	12.0	89.9
=	0.0	-196.5	12.0	94.4
=	0.0	-195.6	12.0	96.2
=	0.0	-194.8	12.0	97.0
=	0.0	-193.8	12.0	97.8
=	0.0	-193.0	12.0	98.2
=	0.0	-192.1	12.0	98.4
=	0.0	-191.3	12.0	98.6
=	0.0	-190.6	12.0	98.7
=	0.0	-189.8	12.0	98.8
=	0.0	-189.1	12.0	98.9
=	0.0	-188.3	12.0	99.1
=	0.0	-187.6	12.0	99.2
=	0.0	-186.8	12.0	99.3
=	0.0	-186.1	12.0	99.4
=	0.0	-185.3	12.0	99.5
=	0.0	-184.4	12.0	99.6
=	0.0	-183.6	12.0	99.6
=	0.0	-182.8	12.0	99.8
=	0.0	-182.0	12.0	99.8
=	0.0	-181.2	12.0	99.9
=	0.0	-180.5	12.0	100.0
=	0.0	-179.7	12.0	100.1
=	0.0	-179.0	12.0	100.1
=	0.0	-178.2	12.0	100.2
=	0.0	-177.5	12.0	100.2
=	0.0	-176.7	12.0	100.3
=	0.0	-175.9	12.0	100.4
=	0.0	-175.2	12.0	100.5
=	0.0	-174.4	12.0	100.5
=	0.0	-173.7	12.0	100.6
=	0.0	-172.8	12.0	100.7
=	0.0	-171.5	12.0	100.8
=	0.0	-170.4	12.0	100.9
=	0.0	-169.2	12.0	100.9
=	0.0	-168.5	12.0	101.0
=	0.0	-167.7	12.0	101.1
=	0.0	-166.4	12.0	101.2
=	0.0	-165.0	12.0	101.3
=	0.0	-163.9	12.0	101.4
=	0.0	-162.7	12.0	101.5
=	0.0	-161.9	12.0	101.5
=	0.0	-161.1	12.0	101.6
=	0.0	-160.3	12.0	101.6
=	0.0	-159.7	12.0	101.7
=	0.0	-159.1	12.0	101.7
=	0.0	-158.3	12.0	101.8
=	0.0	-157.7	12.0	101.9
=	0.0	-157.1	12.0	101.9
=	0.0	-156.4	12.0	102.0
=	0.0	-155.9	12.0	102.0
=	0.0	-155.4	12.0	102.0
=	0.0	-154.8	12.0	102.1
=	0.0	-154.0	12.0	102.2
=	0.0	-153.3	12.0	102.2
=	0.0	-152.5	12.0	102.2
=	0.0	-151.8	12.0	102.3
=	0.0	-151.0	12.0	102.3
=	0.0	-150.2	12.0	102.3
=	0.0	-149.5	12.0	102.4
=	0.0	-148.7	12.0	102.4
=	0.0	-148.0	12.0	102.4
=	0.0	-147.2	12.0	102.4
=	0.0	-146.5	12.0	102.4
=	0.0	-145.7	12.0	102.5
=	0.0	-145.0	12.0	102.5
=	0.0	-144.2	12.0	102.6
=	0.0	-143.5	12.0	102.6
=	0.0	-142.7	12.0	102.6
=	0.0	-142.0	12.0	102.7
=	0.0	-141.2	12.0	102.7
=	0.0	-140.5	12.0	102.6
=	0.0	-139.7	12.0	102.6
=	0.0	-138.9	12.0	102.6
=	0.0	-138.1	12.0	102.6
=	0.0	-137.4	12.0	102.6
=	0.0	-136.6	12.0	102.6
=	0.0	-136.0	12.0	102.6
=	0.0	-135.6	12.0	102.5
=	0.0	-135.1	12.0	102.6
=	0.0	-134.5	12.0	102.6
=	0.0	-134.0	12.0	102.6
=	0.0	-133.5	12.0	102.6
=	0.0	-133.0	12.0	102.6
=	0.0	-132.3	12.0	102.6
=	0.0	-131.6	12.0	102.6
=	0.0	-130.9	12.0	102.6
=	0.0	-130.0	12.0	102.6
=	0.0	-129.3	12.0	102.6
=	0.0	-128.5	12.0	102.5
=	0.0	-127.8	12.0	102.5
=	0.0	-127.0	12.0	102.5
=	0.0	-126.3	12.0	102.5
=	0.0	-125.6	12.0	102.5
=	0.0	-125.0	12.0	102.6
=	0.0	-124.3	12.0	102.6
=	0.0	-123.5	12.0	102.6
=	0.0	-122.8	12.0	102.6
=	0.0	-122.0	12.0	102.6
=	0.0	-121.2	12.0	102.6
=	0.0	-120.4	12.0	102.6
=	0.0	-119.7	12.0	102.6
=	0.0	-118.9	12.0	102.7
=	0.0	-118.1	12.0	102.7
=	0.0	-117.4	12.0	102.6
=	0.0	-116.6	12.0	102.6
=	0.0	-115.9	12.0	102.7
=	0.0	-115.2	12.0	102.6
=	0.0	-114.4	12.0	102.6
=	0.0	-113.5	12.0	102.6
=	0.0	-112.6	12.0	102.6
=	0.0	-111.9	12.0	102.6
=	0.0	-110.9	12.0	102.7
=	0.0	-109.8	12.0	102.7
=	0.0	-109.1	12.0	102.7
=	0.0	-108.3	12.0	102.7
=	0.0	-107.3	12.0	102.7
=	0.0	-106.0	12.0	102.7
=	0.0	-104.5	12.0	102.7
=	0.0	-103.0	12.0	102.7
=	0.0	-101.5	12.0	102.7
=	0.0	-100.3	12.0	102.7
=	0.0	-99.6	12.0	102.6
=	0.0	-98.8	12.0	102.6
=	0.0	-98.0	12.0	102.6
=	0.0	-97.2	12.0	102.6
=	0.0	-96.6	12.0	102.6
=	0.0	-95.8	12.0	102.6
=	0.0	-95.0	12.0	102.6
=	0.0	-94.2	12.0	102.5
=	0.0	-93.7	12.0	102.5
=	0.0	-93.0	12.0	102.5
=	0.0	-92.5	12.0	102.5
=	0.0	-92.0	12.0	102.5
=	0.0	-91.5	12.0	102.5
=	0.0	-91.0	12.0	102.5
=	0.0	-90.2	12.0	102.5
=	0.0	-89.7	12.0	102.5
=	0.0	-89.0	12.0	102.5
=	0.0	-88.5	12.0	102.5
=	0.0	-88.0	12.0	102.5
=	0.0	-87.5	12.0	102.5
=	0.0	-87.0	12.0	102.5
=	0.0	-86.5	12.0	102.5
=	0.0	-85.9	12.0	102.5
=	0.0	-85.4	12.0	102.5
=	0.0	-84.9	12.0	102.5
=	0.0	-84.4	12.0	102.4
=	0.0	-83.9	12.0	102.4
=	0.0	-83.4	12.0	102.5
=	0.0	-82.9	12.0	102.5
=	0.0	-82.4	12.0	102.4
=	0.0	-81.9	12.0	102.4
=	0.0	-81.4	12.0	102.4
=	0.0	-80.7	12.0	102.4
=	0.0	-80.0	12.0	102.4
=	0.0	-79.5	12.0	102.4
=	0.0	-79.0	12.0	102.4
=	0.0	-78.2	12.0	102.4
=	0.0	-77.7	12.0	102.4
=	0.0	-77.0	12.0	102.4
=	0.0	-76.5	12.0	102.4
=	0.0	-75.9	12.0	102.4
=	0.0	-75.2	12.0	102.4
=	0.0	-74.5	12.0	102.5
=	0.0	-74.0	12.0	102.4
=	0.0	-73.4	12.0	102.4
=	0.0	-72.7	12.0	102.4
=	0.0	-71.9	12.0	102.4
=	0.0	-71.1	12.0	102.4
=	0.0	-70.4	12.0	102.4
=	0.0	-69.6	12.0	102.4
=	0.0	-68.9	12.0	102.4
=	0.0	-68.1	12.0	102.4
=	0.0	-67.4	12.0	102.3
=	0.0	-66.6	12.0	102.3
=	0.0	-65.8	12.0	102.3
=	0.0	-65.1	12.0	102.3
=	0.0	-64.4	12.0	102.3
=	0.0	-63.8	12.0	102.3
=	0.0	-63.0	12.0	102.3
=	0.0	-62.3	12.0	102.3
=	0.0	-61.5	12.0	102.3
=	0.0	-60.8	12.0	102.3
=	0.0	-60.0	12.0	102.2
=	0.0	-59.3	12.0	102.2
=	0.0	-58.5	12.0	102.2
=	0.0	-57.8	12.0	102.2
=	0.0	-57.0	12.0	102.2
=	0.0	-56.3	12.0	102.1
=	0.0	-55.5	12.0	102.1
=	0.0	-54.7	12.0	102.1
=	0.0	-54.0	12.0	102.1
=	0.0	-53.2	12.0	102.0
=	0.0	-52.5	12.0	102.0
=	0.0	-51.7	12.0	102.0
=	0.0	-50.9	12.0	102.0
=	0.0	-50.2	12.0	102.0
=	0.0	-49.6	12.0	102.0
=	0.0	-49.0	12.0	102.0
=	0.0	-48.5	12.0	101.9
=	0.0	-48.0	12.0	101.9
=	0.0	-47.5	12.0	101.9
=	0.0	-46.9	12.0	101.9
=	0.0	-46.4	12.0	101.8
=	0.0	-45.6	12.0	101.8
=	0.0	-44.9	12.0	101.8
=	0.0	-44.1	12.0	101.8
=	0.0	-43.4	12.0	101.8
=	0.0	-42.6	12.0	101.7
=	0.0	-41.9	12.0	101.7
=	0.0	-41.3	12.0	101.7
=	0.0	-40.7	12.0	101.7
=	0.0	-40.1	12.0	101.7
=	0.0	-39.4	12.0	101.6
=	0.0	-38.9	12.0	101.6
=	0.0	-38.4	12.0	101.5
=	0.0	-37.9	12.0	101.5
=	0.0	-37.4	12.0	101.4
=	0.0	-36.9	12.0	101.4
=	0.0	-36.4	12.0	101.4
=	0.0	-35.9	12.0	101.4
=	0.0	-35.2	12.0	101.3
=	0.0	-34.7	12.0	101.3
=	0.0	-34.1	12.0	101.3
=	0.0	-33.5	12.0	101.3
=	0.0	-33.0	12.0	101.3
=	0.0	-32.5	12.0	101.3
=	0.0	-32.0	12.0	101.2
=	0.0	-31.5	12.0	101.2
=	0.0	-31.0	12.0	101.2
=	0.0	-30.5	12.0	101.2
=	0.0	-29.9	12.0	101.2
=	0.0	-29.3	12.0	101.1
=	0.0	-28.8	12.0	101.1
=	0.0	-28.3	12.0	101.1
=	0.0	-27.5	12.0	101.0
=	0.0	-26.9	12.0	101.0
=	0.0	-26.0	12.0	100.9
=	0.0	-25.3	12.0	100.9
=	0.0	-24.5	12.0	100.9
=	0.0	-23.8	12.0	100.8
=	0.0	-23.0	12.0	100.8
=	0.0	-22.3	12.0	100.8
=	0.0	-21.5	12.0	100.8
=	0.0	-20.7	12.0	100.7
=	0.0	-20.0	12.0	100.7
=	0.0	-19.3	12.0	100.7
=	0.0	-18.4	12.0	100.7
=	0.0	-17.7	12.0	100.6
=	0.0	-16.9	12.0	100.6
=	0.0	-16.3	12.0	100.6
=	0.0	-15.5	12.0	100.5
=	0.0	-14.7	12.0	100.5
=	0.0	-13.9	12.0	100.5
=	0.0	-13.2	12.0	100.4
=	0.0	-12.4	12.0	100.4
=	0.0	-11.7	12.0	100.4
=	0.0	-10.9	12.0	100.3
=	0.0	-10.2	12.0	100.3
=	0.0	-9.4	12.0	100.2
=	0.0	-8.6	12.0	100.2
=	0.0	-7.8	12.0	100.2
=	0.0	-6.6	12.0	100.1
=	0.0	-5.5	12.0	100.1
=	0.0	-4.3	12.0	100.0
=	0.0	-2.9	12.0	100.0
=	0.0	-1.4	12.0	100.0
=	0.0	0.0	12.0	100.0
=	0.0	0.3	12.0	100.0
=	0.0	1.9	12.0	100.0
=	0.0	3.4	12.0	100.0
=	0.0	4.6	12.0	100.0
=	0.0	6.0	12.0	100.1
=	0.0	7.0	12.0	100.1
=	0.0	8.1	12.0	100.2
=	0.0	8.9	12.0	100.2
=	0.0	9.7	12.0	100.3
=	0.0	10.4	12.0	100.3
=	0.0	11.2	12.0	100.3
=	0.0	11.9	12.0	100.4
=	0.0	12.7	12.0	100.4
=	0.0	13.5	12.0	100.4
=	0.0	14.2	12.0	100.5
=	0.0	15.0	12.0	100.5
=	0.0	15.7	12.0	100.6
=	0.0	16.5	12.0	100.6
=	0.0	17.2	12.0	100.6
=	0.0	17.9	12.0	100.7
=	0.0	18.7	12.0	100.7
=	0.0	19.5	12.0	100.7
=	0.0	20.2	12.0	100.7
=	0.0	21.0	12.0	100.7
=	0.0	21.8	12.0	100.8
=	0.0	22.5	12.0	100.8
=	0.0	23.3	12.0	100.8
=	0.0	24.0	12.0	100.9
=	0.0	24.8	12.0	100.9
=	0.0	25.5	12.0	100.9
=	0.0	26.3	12.0	101.0
=	0.0	27.1	12.0	101.0
=	0.0	27.8	12.0	101.0
=	0.0	28.5	12.0	101.1
=	0.0	29.0	12.0	101.1
=	0.0	29.5	12.0	101.1
=	0.0	30.1	12.0	101.2
=	0.0	30.7	12.0	101.2
=	0.0	31.2	12.0	101.2
=	0.0	31.7	12.0	101.2
=	0.0	32.2	12.0	101.3
=	0.0	32.7	12.0	101.3
=	0.0	33.2	12.0	101.3
=	0.0	33.7	12.0	101.3
=	0.0	34.4	12.0	101.3
=	0.0	34.9	12.0	101.3
=	0.0	35.4	12.0	101.3
=	0.0	36.0	12.0	101.4
=	0.0	36.5	12.0	101.4
=	0.0	37.1	12.0	101.4
=	0.0	37.6	12.0	101.4
=	0.0	38.1	12.0	101.5
=	0.0	38.6	12.0	101.5
=	0.0	39.1	12.0	101.6
=	0.0	39.6	12.0	101.6
=	0.0	40.3	12.0	101.7
=	0.0	40.9	12.0	101.7
=	0.0	41.5	12.0	101.7
=	0.0	42.1	12.0	101.7
=	0.0	42.9	12.0	101.8
=	0.0	43.6	12.0	101.8
=	0.0	44.4	12.0	101.8
=	0.0	45.1	12.0	101.8
=	0.0	45.9	12.0	101.8
=	0.0	46.5	12.0	101.8
=	0.0	47.1	12.0	101.9
=	0.0	47.7	12.0	101.9
=	0.0	48.2	12.0	101.9
=	0.0	48.7	12.0	101.9
=	0.0	49.2	12.0	102.0
=	0.0	49.7	12.0	102.0
=	0.0	50.4	12.0	102.0
=	0.0	51.2	12.0	102.0
=	0.0	52.0	12.0	102.0
=	0.0	52.7	12.0	102.0
=	0.0	53.5	12.0	102.1
=	0.0	54.2	12.0	102.1
=	0.0	55.0	12.0	102.1
=	0.0	55.8	12.0	102.1
=	0.0	56.5	12.0	102.2
=	0.0	57.2	12.0	102.2
=	0.0	58.0	12.0	102.2
=	0.0	58.8	12.0	102.2
=	0.0	59.5	12.0	102.2
=	0.0	60.3	12.0	102.3
=	0.0	61.0	12.0	102.3
=	0.0	61.8	12.0	102.3
=	0.0	62.6	12.0	102.3
=	0.0	63.3	12.0	102.3
=	0.0	64.0	12.0	102.3
=	0.0	64.6	12.0	102.3
=	0.0	65.3	12.0	102.3
=	0.0	66.1	12.0	102.3
=	0.0	66.8	12.0	102.3
=	0.0	67.6	12.0	102.3
=	0.0	68.4	12.0	102.4
=	0.0	69.1	12.0	102.4
=	0.0	69.9	12.0	102.4
=	0.0	70.6	12.0	102.4
=	0.0	71.4	12.0	102.4
=	0.0	72.2	12.0	102.4
=	0.0	72.9	12.0	102.4
=	0.0	73.6	12.0	102.4
=	0.0	74.1	12.0	102.4
=	0.0	74.7	12.0	102.4
=	0.0	75.4	12.0	102.4
=	0.0	76.1	12.0	102.4
=	0.0	76.7	12.0	102.4
=	0.0	77.2	12.0	102.4
=	0.0	77.8	12.0	102.4
=	0.0	78.5	12.0	102.4
=	0.0	79.2	12.0	102.4
=	0.0	79.7	12.0	102.4
=	0.0	80.2	12.0	102.4
=	0.0	81.0	12.0	102.4
=	0.0	81.6	12.0	102.4
=	0.0	82.1	12.0	102.4
=	0.0	82.6	12.0	102.4
=	0.0	83.1	12.0	102.5
=	0.0	83.6	12.0	102.4
=	0.0	84.1	12.0	102.4
=	0.0	84.6	12.0	102.5
=	0.0	85.1	12.0	102.5
=	0.0	85.6	12.0	102.5
=	0.0	86.1	12.0	102.5
=	0.0	86.6	12.0	102.5
=	0.0	87.1	12.0	102.5
=	0.0	87.6	12.0	102.5
=	0.0	88.1	12.0	102.5
=	0.0	88.6	12.0	102.5
=	0.0	89.2	12.0	102.5
=	0.0	89.8	12.0	102.5
=	0.0	90.5	12.0	102.5
=	0.0	91.2	12.0	102.5
=	0.0	91.7	12.0	102.5
=	0.0	92.2	12.0	102.5
=	0.0	92.7	12.0	102.5
=	0.0	93.2	12.0	102.5
=	0.0	93.8	12.0	102.5
=	0.0	94.5	12.0	102.5
=	0.0	95.2	12.0	102.6
=	0.0	96.1	12.0	102.6
=	0.0	96.8	12.0	102.6
=	0.0	97.5	12.0	102.6
=	0.0	98.3	12.0	102.6
=	0.0	99.1	12.0	102.6
=	0.0	99.8	12.0	102.6
=	0.0	100.6	12.0	102.7
=	0.0	102.0	12.0	102.7
=	0.0	103.5	12.0	102.7
=	0.0	105.0	12.0	102.7
=	0.0	106.5	12.0	102.7
=	0.0	107.7	12.0	102.7
=	0.0	108.6	12.0	102.7
=	0.0	109.3	12.0	102.7
=	0.0	110.2	12.0	102.7
=	0.0	111.2	12.0	102.6
=	0.0	112.1	12.0	102.6
=	0.0	112.8	12.0	102.6
=	0.0	113.9	12.0	102.6
=	0.0	114.7	12.0	102.6
=	0.0	115.4	12.0	102.6
=	0.0	116.2	12.0	102.6
=	0.0	116.9	12.0	102.6
=	0.0	117.6	12.0	102.7
=	0.0	118.4	12.0	102.7
=	0.0	119.2	12.0	102.7
=	0.0	119.9	12.0	102.6
=	0.0	120.7	12.0	102.6
=	0.0	121.5	12.0	102.6
=	0.0	122.3	12.0	102.6
=	0.0	123.0	12.0	102.6
=	0.0	123.7	12.0	102.6
=	0.0	124.5	12.0	102.6
=	0.0	125.3	12.0	102.5
=	0.0	125.8	12.0	102.5
=	0.0	126.5	12.0	102.5
=	0.0	127.3	12.0	102.5
=	0.0	128.0	12.0	102.5
=	0.0	128.8	12.0	102.5
=	0.0	129.5	12.0	102.6
=	0.0	130.3	12.0	102.6
=	0.0	131.1	12.0	102.6
=	0.0	131.9	12.0	102.6
=	0.0	132.6	12.0	102.6
=	0.0	133.2	12.0	102.6
=	0.0	133.7	12.0	102.6
=	0.0	134.2	12.0	102.6
=	0.0	134.7	12.0	102.6
=	0.0	135.2	12.0	102.6
=	0.0	135.7	12.0	102.5
=	0.0	136.2	12.0	102.6
=	0.0	136.9	12.0	102.6
=	0.0	137.6	12.0	102.6
=	0.0	138.4	12.0	102.6
=	0.0	139.1	12.0	102.6
=	0.0	140.0	12.0	102.6
=	0.0	140.7	12.0	102.6
=	0.0	141.5	12.0	102.7
=	0.0	142.2	12.0	102.6
=	0.0	143.0	12.0	102.6
=	0.0	143.7	12.0	102.6
=	0.0	144.5	12.0	102.6
=	0.0	145.2	12.0	102.5
=	0.0	146.0	12.0	102.5
=	0.0	146.7	12.0	102.4
=	0.0	147.5	12.0	102.4
=	0.0	148.2	12.0	102.4
=	0.0	149.0	12.0	102.4
=	0.0	149.7	12.0	102.4
=	0.0	150.5	12.0	102.3
=	0.0	151.3	12.0	102.3
=	0.0	152.0	12.0	102.3
=	0.0	152.8	12.0	102.2
=	0.0	153.5	12.0	102.2
=	0.0	154.3	12.0	102.1
=	0.0	155.0	12.0	102.1
=	0.0	155.5	12.0	102.0
=	0.0	156.0	12.0	102.0
=	0.0	156.6	12.0	102.0
=	0.0	157.3	12.0	101.9
=	0.0	157.9	12.0	101.9
=	0.0	158.6	12.0	101.7
=	0.0	159.3	12.0	101.7
=	0.0	159.9	12.0	101.7
=	0.0	160.6	12.0	101.6
=	0.0	161.4	12.0	101.5
=	0.0	162.2	12.0	101.5
=	0.0	163.0	12.0	101.4
=	0.0	164.3	12.0	101.3
=	0.0	165.4	12.0	101.3
=	0.0	166.9	12.0	101.1
=	0.0	168.0	12.0	101.0
=	0.0	168.7	12.0	101.0
=	0.0	169.5	12.0	100.9
=	0.0	170.9	12.0	100.8
=	0.0	171.9	12.0	100.8
=	0.0	173.2	12.0	100.7
=	0.0	174.0	12.0	100.6
=	0.0	174.7	12.0	100.5
=	0.0	175.4	12.0	100.5
=	0.0	176.2	12.0	100.4
=	0.0	177.0	12.0	100.3
=	0.0	177.7	12.0	100.2
=	0.0	178.5	12.0	100.2
=	0.0	179.2	12.0	100.1
=	0.0	180.0	12.0	100.0
=	0.0	180.7	12.0	100.0
=	0.0	181.5	12.0	99.9
=	0.0	182.2	12.0	99.8
=	0.0	183.1	12.0	99.7
=	0.0	183.8	12.0	99.6
=	0.0	184.8	12.0	99.5
=	0.0	185.6	12.0	99.5
=	0.0	186.3	12.0	99.4
=	0.0	187.1	12.0	99.3
=	0.0	187.8	12.0	99.2
=	0.0	188.6	12.0	99.0
=	0.0	189.3	12.0	98.9
=	0.0	190.1	12.0	98.8
=	0.0	190.8	12.0	98.6
=	0.0	191.6	12.0	98.5
=	0.0	192.3	12.0	98.3
=	0.0	193.3	12.0	98.1
=	0.0	194.2	12.0	97.6
=	0.0	195.1	12.0	96.8
=	0.0	195.8	12.0	95.9
=	0.0	197.0	12.0	93.0
=	0.0	198.2	12.0	88.1
=	0.0	199.5	12.0	78.4
=	0.0	200.6	12.0	68.5
=	0.0	201.3	12.0	61.5
=	0.0	202.1	12.0	53.4
=	0.0	202.9	12.0	46.6
=	0.0	203.7	12.0	39.4
=	0.0	204.4	12.0	33.7
=	0.0	205.1	12.0	28.6
=	0.0	205.9	12.0	24.4
=	0.0	206.6	12.0	21.1
=	0.0	207.4	12.0	18.8
=	0.0	208.2	12.0	17.2
=	0.0	208.9	12.0	16.2
=	0.0	209.7	12.0	15.4
=	0.0	210.4	12.0	15.0
=	0.0	211.1	12.0	14.6
=	0.0	211.9	12.0	14.3
=	0.0	212.7	12.0	14.1
=	0.0	213.4	12.0	13.9
=	0.0	214.2	12.0	13.7
=	0.0	214.9	12.0	13.5
=	0.0	215.7	12.0	13.4
=	0.0	216.4	12.0	13.2
=	0.0	217.2	12.0	13.1
=	0.0	217.9	12.0	12.9
=	0.0	218.7	12.0	12.8
=	0.0	219.4	12.0	12.7
=	0.0	220.1	12.0	12.6
=	0.0	220.9	12.0	12.5
=	0.0	221.6	12.0	12.3
=	0.0	222.4	12.0	12.2
=	0.0	222.9	12.0	12.1
=	0.0	223.7	12.0	12.0
=	0.0	224.4	12.0	11.9
=	0.0	225.2	12.0	11.8
=	0.0	225.9	12.0	11.7
=	0.0	226.7	12.0	11.6
=	0.0	227.4	12.0	11.5
=	0.0	228.2	12.0	11.4
=	0.0	229.0	12.0	11.3
=	0.0	229.7	12.0	11.2
=	0.0	230.5	12.0	11.1
=	0.0	231.2	12.0	11.0
=	0.0	232.0	12.0	10.9
=	0.0	232.7	12.0	10.8
=	0.0	233.5	12.0	10.7
=	0.0	234.3	12.0	10.6
=	0.0	235.0	12.0	10.6
=	0.0	235.7	12.0	10.5
=	0.0	236.5	12.0	10.4
=	0.0	237.3	12.0	10.4
=	0.0	238.0	12.0	10.3
=	0.0	238.8	12.0	10.2
=	0.0	239.5	12.0	10.1
=	0.0	240.3	12.0	10.0
=	0.0	241.0	12.0	10.0
=	0.0	241.6	12.0	9.9
=	0.0	242.3	12.0	9.8
=	0.0	243.1	12.0	9.8
=	0.0	243.8	12.0	9.7
=	0.0	244.5	12.0	9.6
=	0.0	245.0	12.0	9.6
=	0.0	245.6	12.0	9.5
=	0.0	246.3	12.0	9.5
=	0.0	246.9	12.0	9.4
=	0.0	247.6	12.0	9.3
=	0.0	248.4	12.0	9.3
=	0.0	249.0	12.0	9.2
=	0.0	249.5	12.0	9.2
=	0.0	250.0	12.0	9.2
=	0.0	250.5	12.0	9.1
=	0.0	251.1	12.0	9.1
=	0.0	251.9	12.0	9.0
=	0.0	252.5	12.0	9.0
=	0.0	253.0	12.0	8.9
=	0.0	253.5	12.0	8.9
=	0.0	254.0	12.0	8.8
=	0.0	254.5	12.0	8.8
=	0.0	255.1	12.0	8.8
=	0.0	255.6	12.0	8.7
=	0.0	256.1	12.0	8.7
=	0.0	256.6	12.0	8.7
=	0.0	257.1	12.0	8.7
=	0.0	257.7	12.0	8.6
=	0.0	258.2	12.0	8.6
=	0.0	258.9	12.0	8.5
=	0.0	259.4	12.0	8.5
=	0.0	260.0	12.0	8.5
=	0.0	260.6	12.0	8.4
=	0.0	261.1	12.0	8.4
=	0.0	261.6	12.0	8.4
=	0.0	262.1	12.0	8.4
=	0.0	262.8	12.0	8.3
=	0.0	263.3	12.0	8.3
=	0.0	263.8	12.0	8.3
=	0.0	264.3	12.0	8.2
=	0.0	264.9	12.0	8.2
=	0.0	265.4	12.0	8.2
=	0.0	266.1	12.0	8.1
=	0.0	266.9	12.0	8.1
=	0.0	267.6	12.0	8.1
=	0.0	268.5	12.0	8.0
=	0.0	269.3	12.0	8.0
=	0.0	270.8	12.0	7.9
=	0.0	271.8	12.0	7.9
:EOM # End of Measurement
#
# RFA300 ASCII Measurement Dump ( BDS format )
#
# Measurement number 	2
#
%VNR 1.0
%MOD 	RAT
%TYP 	SCN
%SCN 	PRO
%FLD 	ION
%DAT 	02-03-2012
%TIM 	12:00:00
%FSZ 	400	300
%BMT 	PHO	   4.0
%SSD 	1000
%BUP 	0
%BRD 	1000
%FSH 	1
%ASC 	0
%WEG 	15
%GPO 	0
%CPO 	0
%MEA 	6
%PRD 	50,0
%PTS 	793
%STS 	    0.0	  -283.1	   50.0 # Start Scan values in mm ( X , Y , Z )
%EDS 	    0.0	   283.1	   50.0 # End Scan values in mm ( X , Y , Z )
#
#	  X      Y      Z     Dose
#
=	0.0	-283.1	50.0	8.4
=	0.0	-282.4	50.0	8.4
=	0.0	-281.6	50.0	8.5
=	0.0	-280.8	50.0	8.5
=	0.0	-280.0	50.0	8.6
=	0.0	-279.3	50.0	8.6
=	0.0	-278.5	50.0	8.7
=	0.0	-277.8	50.0	8.7
=	0.0	-277.0	50.0	8.8
=	0.0	-276.3	50.0	8.8
=	0.0	-275.5	50.0	8.9
=	0.0	-274.8	50.0	8.9
=	0.0	-274.0	50.0	9.0
=	0.0	-273.2	50.0	9.0
=	0.0	-272.5	50.0	9.1
=	0.0	-271.7	50.0	9.2
=	0.0	-270.9	50.0	9.2
=	0.0	-270.2	50.0	9.2
=	0.0	-269.5	50.0	9.3
=	0.0	-268.7	50.0	9.4
=	0.0	-267.9	50.0	9.4
=	0.0	-267.2	50.0	9.5
=	0.0	-266.4	50.0	9.6
=	0.0	-265.7	50.0	9.6
=	0.0	-264.9	50.0	9.7
=	0.0	-264.2	50.0	9.7
=	0.0	-263.5	50.0	9.8
=	0.0	-262.7	50.0	9.9
=	0.0	-261.9	50.0	9.9
=	0.0	-261.2	50.0	10.0
=	0.0	-260.4	50.0	10.1
=	0.0	-259.7	50.0	10.1
=	0.0	-258.9	50.0	10.2
=	0.0	-258.1	50.0	10.3
=	0.0	-257.4	50.0	10.4
=	0.0	-256.6	50.0	10.5
=	0.0	-255.9	50.0	10.6
=	0.0	-255.1	50.0	10.6
=	0.0	-254.4	50.0	10.7
=	0.0	-253.6	50.0	10.8
=	0.0	-252.9	50.0	10.9
=	0.0	-252.1	50.0	11.0
=	0.0	-251.4	50.0	11.1
=	0.0	-250.6	50.0	11.2
=	0.0	-249.9	50.0	11.3
=	0.0	-249.1	50.0	11.4
=	0.0	-248.3	50.0	11.5
=	0.0	-247.6	50.0	11.5
=	0.0	-246.8	50.0	11.6
=	0.0	-246.1	50.0	11.7
=	0.0	-245.3	50.0	11.8
=	0.0	-244.6	50.0	11.9
=	0.0	-243.8	50.0	12.1
=	0.0	-243.0	50.0	12.2
=	0.0	-242.3	50.0	12.3
=	0.0	-241.6	50.0	12.4
=	0.0	-240.8	50.0	12.5
=	0.0	-240.1	50.0	12.6
=	0.0	-239.3	50.0	12.8
=	0.0	-238.5	50.0	12.9
=	0.0	-237.8	50.0	13.0
=	0.0	-237.0	50.0	13.2
=	0.0	-236.3	50.0	13.3
=	0.0	-235.5	50.0	13.4
=	0.0	-234.8	50.0	13.6
=	0.0	-234.0	50.0	13.7
=	0.0	-233.3	50.0	13.9
=	0.0	-232.5	50.0	14.0
=	0.0	-231.8	50.0	14.1
=	0.0	-231.0	50.0	14.3
=	0.0	-230.3	50.0	14.5
=	0.0	-229.5	50.0	14.7
=	0.0	-228.9	50.0	14.8
=	0.0	-228.4	50.0	14.9
=	0.0	-227.8	50.0	15.1
=	0.0	-227.0	50.0	15.3
=	0.0	-226.2	50.0	15.5
=	0.0	-225.4	50.0	15.7
=	0.0	-224.7	50.0	15.9
=	0.0	-223.9	50.0	16.2
=	0.0	-223.2	50.0	16.3
=	0.0	-222.4	50.0	16.5
=	0.0	-221.7	50.0	16.8
=	0.0	-220.9	50.0	17.2
=	0.0	-220.2	50.0	17.4
=	0.0	-219.4	50.0	17.7
=	0.0	-218.8	50.0	18.1
=	0.0	-218.3	50.0	18.4
=	0.0	-217.8	50.0	18.7
=	0.0	-217.2	50.0	19.2
=	0.0	-216.4	50.0	20.0
=	0.0	-215.7	50.0	21.2
=	0.0	-214.9	50.0	22.9
=	0.0	-214.2	50.0	25.0
=	0.0	-213.6	50.0	27.0
=	0.0	-212.9	50.0	30.4
=	0.0	-212.1	50.0	34.6
=	0.0	-211.4	50.0	39.7
=	0.0	-210.6	50.0	45.2
=	0.0	-209.9	50.0	51.4
=	0.0	-209.1	50.0	57.9
=	0.0	-208.3	50.0	64.5
=	0.0	-207.6	50.0	70.4
=	0.0	-207.1	50.0	74.7
=	0.0	-206.5	50.0	78.3
=	0.0	-206.1	50.0	81.2
=	0.0	-205.5	50.0	83.9
=	0.0	-205.0	50.0	86.2
=	0.0	-204.5	50.0	88.0
=	0.0	-203.9	50.0	89.7
=	0.0	-203.2	50.0	91.1
=	0.0	-202.7	50.0	91.8
=	0.0	-202.2	50.0	92.4
=	0.0	-201.7	50.0	92.8
=	0.0	-201.2	50.0	93.0
=	0.0	-200.6	50.0	93.5
=	0.0	-199.8	50.0	94.0
=	0.0	-199.1	50.0	94.2
=	0.0	-198.5	50.0	94.5
=	0.0	-198.0	50.0	94.7
=	0.0	-197.5	50.0	94.8
=	0.0	-197.0	50.0	95.0
=	0.0	-196.5	50.0	95.1
=	0.0	-195.9	50.0	95.3
=	0.0	-195.1	50.0	95.5
=	0.0	-194.3	50.0	95.7
=	0.0	-193.6	50.0	95.9
=	0.0	-192.8	50.0	96.1
=	0.0	-192.1	50.0	96.1
=	0.0	-191.3	50.0	96.3
=	0.0	-190.5	50.0	96.5
=	0.0	-189.8	50.0	96.7
=	0.0	-189.0	50.0	96.8
=	0.0	-188.3	50.0	96.9
=	0.0	-187.5	50.0	97.1
=	0.0	-186.8	50.0	97.2
=	0.0	-186.0	50.0	97.3
=	0.0	-185.2	50.0	97.4
=	0.0	-184.6	50.0	97.6
=	0.0	-184.0	50.0	97.7
=	0.0	-183.3	50.0	97.8
=	0.0	-182.6	50.0	97.9
=	0.0	-182.0	50.0	97.9
=	0.0	-181.3	50.0	98.1
=	0.0	-180.5	50.0	98.2
=	0.0	-179.7	50.0	98.3
=	0.0	-179.0	50.0	98.5
=	0.0	-178.2	50.0	98.6
=	0.0	-177.5	50.0	98.7
=	0.0	-176.7	50.0	98.8
=	0.0	-176.0	50.0	98.9
=	0.0	-175.2	50.0	99.0
=	0.0	-174.5	50.0	99.0
=	0.0	-173.7	50.0	99.1
=	0.0	-173.0	50.0	99.1
=	0.0	-172.2	50.0	99.3
=	0.0	-171.5	50.0	99.4
=	0.0	-170.7	50.0	99.5
=	0.0	-170.1	50.0	99.5
=	0.0	-169.6	50.0	99.6
=	0.0	-169.0	50.0	99.6
=	0.0	-168.2	50.0	99.7
=	0.0	-167.5	50.0	99.7
=	0.0	-166.7	50.0	99.8
=	0.0	-166.0	50.0	99.9
=	0.0	-165.2	50.0	100.0
=	0.0	-164.5	50.0	100.1
=	0.0	-163.7	50.0	100.2
=	0.0	-163.0	50.0	100.2
=	0.0	-162.2	50.0	100.3
=	0.0	-161.4	50.0	100.3
=	0.0	-160.7	50.0	100.4
=	0.0	-159.9	50.0	100.5
=	0.0	-159.1	50.0	100.6
=	0.0	-158.4	50.0	100.6
=	0.0	-157.6	50.0	100.7
=	0.0	-156.8	50.0	100.7
=	0.0	-155.9	50.0	100.8
=	0.0	-155.1	50.0	100.9
=	0.0	-154.4	50.0	101.0
=	0.0	-153.6	50.0	101.0
=	0.0	-152.9	50.0	101.1
=	0.0	-152.1	50.0	101.1
=	0.0	-151.3	50.0	101.1
=	0.0	-150.6	50.0	101.2
=	0.0	-149.8	50.0	101.2
=	0.0	-149.0	50.0	101.2
=	0.0	-148.3	50.0	101.2
=	0.0	-147.5	50.0	101.3
=	0.0	-146.8	50.0	101.3
=	0.0	-146.0	50.0	101.3
=	0.0	-145.3	50.0	101.3
=	0.0	-144.5	50.0	101.4
=	0.0	-143.7	50.0	101.4
=	0.0	-143.0	50.0	101.4
=	0.0	-142.2	50.0	101.4
=	0.0	-141.5	50.0	101.5
=	0.0	-140.8	50.0	101.5
=	0.0	-140.0	50.0	101.5
=	0.0	-139.2	50.0	101.5
=	0.0	-138.5	50.0	101.5
=	0.0	-137.7	50.0	101.5
=	0.0	-136.9	50.0	101.5
=	0.0	-136.2	50.0	101.5
=	0.0	-135.4	50.0	101.6
=	0.0	-134.7	50.0	101.6
=	0.0	-133.9	50.0	101.6
=	0.0	-133.2	50.0	101.6
=	0.0	-132.7	50.0	101.6
=	0.0	-132.2	50.0	101.6
=	0.0	-131.6	50.0	101.6
=	0.0	-130.9	50.0	101.6
=	0.0	-130.4	50.0	101.6
=	0.0	-129.9	50.0	101.6
=	0.0	-129.3	50.0	101.6
=	0.0	-128.8	50.0	101.6
=	0.0	-128.3	50.0	101.6
=	0.0	-127.8	50.0	101.7
=	0.0	-127.3	50.0	101.7
=	0.0	-126.8	50.0	101.7
=	0.0	-126.3	50.0	101.7
=	0.0	-125.8	50.0	101.7
=	0.0	-125.3	50.0	101.7
=	0.0	-124.8	50.0	101.7
=	0.0	-124.3	50.0	101.7
=	0.0	-123.8	50.0	101.7
=	0.0	-123.3	50.0	101.7
=	0.0	-122.8	50.0	101.7
=	0.0	-122.3	50.0	101.7
=	0.0	-121.8	50.0	101.7
=	0.0	-121.3	50.0	101.8
=	0.0	-120.8	50.0	101.8
=	0.0	-120.3	50.0	101.8
=	0.0	-119.7	50.0	101.8
=	0.0	-119.2	50.0	101.8
=	0.0	-118.7	50.0	101.9
=	0.0	-118.2	50.0	101.9
=	0.0	-117.7	50.0	101.9
=	0.0	-117.2	50.0	101.9
=	0.0	-116.7	50.0	101.9
=	0.0	-116.2	50.0	101.9
=	0.0	-115.7	50.0	101.9
=	0.0	-115.2	50.0	102.0
=	0.0	-114.7	50.0	102.0
=	0.0	-114.2	50.0	102.0
=	0.0	-113.7	50.0	102.0
=	0.0	-113.2	50.0	102.0
=	0.0	-112.6	50.0	102.0
=	0.0	-112.0	50.0	102.0
=	0.0	-111.5	50.0	102.0
=	0.0	-111.0	50.0	102.0
=	0.0	-110.5	50.0	102.0
=	0.0	-110.0	50.0	102.0
=	0.0	-109.5	50.0	102.0
=	0.0	-109.0	50.0	102.0
=	0.0	-108.5	50.0	102.0
=	0.0	-108.0	50.0	102.0
=	0.0	-107.3	50.0	102.0
=	0.0	-106.6	50.0	102.0
=	0.0	-106.0	50.0	102.0
=	0.0	-105.3	50.0	102.0
=	0.0	-104.5	50.0	102.0
=	0.0	-103.7	50.0	102.0
=	0.0	-103.0	50.0	102.0
=	0.0	-102.3	50.0	102.0
=	0.0	-101.5	50.0	102.0
=	0.0	-100.7	50.0	102.0
=	0.0	-99.9	50.0	102.0
=	0.0	-99.2	50.0	102.0
=	0.0	-98.4	50.0	101.9
=	0.0	-97.7	50.0	101.9
=	0.0	-96.9	50.0	102.0
=	0.0	-96.2	50.0	102.0
=	0.0	-95.4	50.0	102.0
=	0.0	-94.7	50.0	102.0
=	0.0	-93.9	50.0	102.0
=	0.0	-93.2	50.0	102.0
=	0.0	-92.4	50.0	102.0
=	0.0	-91.7	50.0	102.0
=	0.0	-90.9	50.0	102.0
=	0.0	-90.1	50.0	102.0
=	0.0	-89.4	50.0	102.0
=	0.0	-88.7	50.0	102.0
=	0.0	-87.9	50.0	102.0
=	0.0	-87.1	50.0	102.0
=	0.0	-86.4	50.0	102.0
=	0.0	-85.6	50.0	102.0
=	0.0	-84.8	50.0	102.0
=	0.0	-84.1	50.0	102.0
=	0.0	-83.3	50.0	102.1
=	0.0	-82.6	50.0	102.1
=	0.0	-82.1	50.0	102.1
=	0.0	-81.3	50.0	102.1
=	0.0	-80.6	50.0	102.1
=	0.0	-79.8	50.0	102.1
=	0.0	-79.1	50.0	102.1
=	0.0	-78.4	50.0	102.1
=	0.0	-77.9	50.0	102.1
=	0.0	-77.4	50.0	102.1
=	0.0	-76.8	50.0	102.1
=	0.0	-76.2	50.0	102.1
=	0.0	-75.7	50.0	102.1
=	0.0	-75.2	50.0	102.1
=	0.0	-74.6	50.0	102.1
=	0.0	-73.9	50.0	102.1
=	0.0	-73.4	50.0	102.1
=	0.0	-72.7	50.0	102.1
=	0.0	-72.2	50.0	102.1
=	0.0	-71.6	50.0	102.1
=	0.0	-71.0	50.0	102.1
=	0.0	-70.5	50.0	102.1
=	0.0	-70.0	50.0	102.0
=	0.0	-69.4	50.0	102.0
=	0.0	-68.7	50.0	102.0
=	0.0	-68.0	50.0	102.0
=	0.0	-67.5	50.0	101.9
=	0.0	-66.9	50.0	101.9
=	0.0	-66.1	50.0	102.0
=	0.0	-65.4	50.0	101.9
=	0.0	-64.6	50.0	102.0
=	0.0	-64.1	50.0	102.0
=	0.0	-63.4	50.0	101.9
=	0.0	-62.6	50.0	101.9
=	0.0	-61.8	50.0	101.9
=	0.0	-61.1	50.0	101.9
=	0.0	-60.3	50.0	101.9
=	0.0	-59.5	50.0	101.9
=	0.0	-58.8	50.0	101.9
=	0.0	-58.1	50.0	101.9
=	0.0	-57.3	50.0	101.9
=	0.0	-56.5	50.0	101.9
=	0.0	-55.7	50.0	101.8
=	0.0	-55.0	50.0	101.8
=	0.0	-54.2	50.0	101.8
=	0.0	-53.5	50.0	101.8
=	0.0	-52.7	50.0	101.8
=	0.0	-51.8	50.0	101.8
=	0.0	-51.0	50.0	101.8
=	0.0	-50.1	50.0	101.7
=	0.0	-48.8	50.0	101.7
=	0.0	-47.3	50.0	101.6
=	0.0	-45.7	50.0	101.6
=	0.0	-44.2	50.0	101.6
=	0.0	-42.7	50.0	101.5
=	0.0	-41.2	50.0	101.4
=	0.0	-39.7	50.0	101.4
=	0.0	-38.3	50.0	101.3
=	0.0	-37.2	50.0	101.3
=	0.0	-36.0	50.0	101.2
=	0.0	-35.1	50.0	101.2
=	0.0	-34.0	50.0	101.2
=	0.0	-33.2	50.0	101.2
=	0.0	-32.4	50.0	101.1
=	0.0	-31.7	50.0	101.1
=	0.0	-30.9	50.0	101.1
=	0.0	-30.2	50.0	101.1
=	0.0	-29.4	50.0	101.1
=	0.0	-28.7	50.0	101.0
=	0.0	-27.9	50.0	101.0
=	0.0	-27.1	50.0	101.0
=	0.0	-26.4	50.0	101.0
=	0.0	-25.7	50.0	100.9
=	0.0	-24.9	50.0	100.9
=	0.0	-24.2	50.0	100.8
=	0.0	-23.4	50.0	100.8
=	0.0	-22.7	50.0	100.8
=	0.0	-21.9	50.0	100.7
=	0.0	-21.1	50.0	100.7
=	0.0	-20.3	50.0	100.7
=	0.0	-19.6	50.0	100.7
=	0.0	-18.9	50.0	100.7
=	0.0	-18.1	50.0	100.6
=	0.0	-17.3	50.0	100.6
=	0.0	-16.6	50.0	100.6
=	0.0	-15.8	50.0	100.6
=	0.0	-15.1	50.0	100.5
=	0.0	-14.5	50.0	100.5
=	0.0	-13.9	50.0	100.5
=	0.0	-13.3	50.0	100.5
=	0.0	-12.6	50.0	100.5
=	0.0	-11.8	50.0	100.4
=	0.0	-11.1	50.0	100.4
=	0.0	-10.3	50.0	100.3
=	0.0	-9.5	50.0	100.3
=	0.0	-8.8	50.0	100.2
=	0.0	-8.0	50.0	100.2
=	0.0	-7.2	50.0	100.2
=	0.0	-6.5	50.0	100.1
=	0.0	-5.7	50.0	100.1
=	0.0	-4.9	50.0	100.1
=	0.0	-4.2	50.0	100.1
=	0.0	-3.5	50.0	100.1
=	0.0	-2.7	50.0	100.1
=	0.0	-1.9	50.0	100.1
=	0.0	-1.2	50.0	100.1
=	0.0	-0.4	50.0	100.0
=	0.0	0.0	50.0	100.0
=	0.0	0.4	50.0	100.0
=	0.0	1.2	50.0	100.1
=	0.0	1.9	50.0	100.1
=	0.0	2.7	50.0	100.1
=	0.0	3.5	50.0	100.1
=	0.0	4.2	50.0	100.1
=	0.0	4.9	50.0	100.1
=	0.0	5.7	50.0	100.1
=	0.0	6.5	50.0	100.1
=	0.0	7.2	50.0	100.2
=	0.0	8.0	50.0	100.2
=	0.0	8.8	50.0	100.2
=	0.0	9.5	50.0	100.3
=	0.0	10.3	50.0	100.3
=	0.0	11.1	50.0	100.4
=	0.0	11.8	50.0	100.4
=	0.0	12.6	50.0	100.5
=	0.0	13.3	50.0	100.5
=	0.0	13.9	50.0	100.5
=	0.0	14.5	50.0	100.5
=	0.0	15.1	50.0	100.5
=	0.0	15.8	50.0	100.6
=	0.0	16.6	50.0	100.6
=	0.0	17.3	50.0	100.6
=	0.0	18.1	50.0	100.6
=	0.0	18.9	50.0	100.7
=	0.0	19.6	50.0	100.7
=	0.0	20.3	50.0	100.7
=	0.0	21.1	50.0	100.7
=	0.0	21.9	50.0	100.7
=	0.0	22.7	50.0	100.8
=	0.0	23.4	50.0	100.8
=	0.0	24.2	50.0	100.8
=	0.0	24.9	50.0	100.9
=	0.0	25.7	50.0	100.9
=	0.0	26.4	50.0	101.0
=	0.0	27.1	50.0	101.0
=	0.0	27.9	50.0	101.0
=	0.0	28.7	50.0	101.0
=	0.0	29.4	50.0	101.1
=	0.0	30.2	50.0	101.1
=	0.0	30.9	50.0	101.1
=	0.0	31.7	50.0	101.1
=	0.0	32.4	50.0	101.1
=	0.0	33.2	50.0	101.2
=	0.0	34.0	50.0	101.2
=	0.0	35.1	50.0	101.2
=	0.0	36.0	50.0	101.2
=	0.0	37.2	50.0	101.3
=	0.0	38.3	50.0	101.3
=	0.0	39.7	50.0	101.4
=	0.0	41.2	50.0	101.4
=	0.0	42.7	50.0	101.5
=	0.0	44.2	50.0	101.6
=	0.0	45.7	50.0	101.6
=	0.0	47.3	50.0	101.6
=	0.0	48.8	50.0	101.7
=	0.0	50.1	50.0	101.7
=	0.0	51.0	50.0	101.8
=	0.0	51.8	50.0	101.8
=	0.0	52.7	50.0	101.8
=	0.0	53.5	50.0	101.8
=	0.0	54.2	50.0	101.8
=	0.0	55.0	50.0	101.8
=	0.0	55.7	50.0	101.8
=	0.0	56.5	50.0	101.9
=	0.0	57.3	50.0	101.9
=	0.0	58.1	50.0	101.9
=	0.0	58.8	50.0	101.9
=	0.0	59.5	50.0	101.9
=	0.0	60.3	50.0	101.9
=	0.0	61.1	50.0	101.9
=	0.0	61.8	50.0	101.9
=	0.0	62.6	50.0	101.9
=	0.0	63.4	50.0	101.9
=	0.0	64.1	50.0	102.0
=	0.0	64.6	50.0	102.0
=	0.0	65.4	50.0	101.9
=	0.0	66.1	50.0	102.0
=	0.0	66.9	50.0	101.9
=	0.0	67.5	50.0	101.9
=	0.0	68.0	50.0	102.0
=	0.0	68.7	50.0	102.0
=	0.0	69.4	50.0	102.0
=	0.0	70.0	50.0	102.0
=	0.0	70.5	50.0	102.1
=	0.0	71.0	50.0	102.1
=	0.0	71.6	50.0	102.1
=	0.0	72.2	50.0	102.1
=	0.0	72.7	50.0	102.1
=	0.0	73.4	50.0	102.1
=	0.0	73.9	50.0	102.1
=	0.0	74.6	50.0	102.1
=	0.0	75.2	50.0	102.1
=	0.0	75.7	50.0	102.1
=	0.0	76.2	50.0	102.1
=	0.0	76.8	50.0	102.1
=	0.0	77.4	50.0	102.1
=	0.0	77.9	50.0	102.1
=	0.0	78.4	50.0	102.1
=	0.0	79.1	50.0	102.1
=	0.0	79.8	50.0	102.1
=	0.0	80.6	50.0	102.1
=	0.0	81.3	50.0	102.1
=	0.0	82.1	50.0	102.1
=	0.0	82.6	50.0	102.1
=	0.0	83.3	50.0	102.1
=	0.0	84.1	50.0	102.0
=	0.0	84.8	50.0	102.0
=	0.0	85.6	50.0	102.0
=	0.0	86.4	50.0	102.0
=	0.0	87.1	50.0	102.0
=	0.0	87.9	50.0	102.0
=	0.0	88.7	50.0	102.0
=	0.0	89.4	50.0	102.0
=	0.0	90.1	50.0	102.0
=	0.0	90.9	50.0	102.0
=	0.0	91.7	50.0	102.0
=	0.0	92.4	50.0	102.0
=	0.0	93.2	50.0	102.0
=	0.0	93.9	50.0	102.0
=	0.0	94.7	50.0	102.0
=	0.0	95.4	50.0	102.0
=	0.0	96.2	50.0	102.0
=	0.0	96.9	50.0	102.0
=	0.0	97.7	50.0	101.9
=	0.0	98.4	50.0	101.9
=	0.0	99.2	50.0	102.0
=	0.0	99.9	50.0	102.0
