:MSR 	25	 # No. of measurement in file
:SYS BDS 0   # Beam Data Scanner System
#
# RFA300 ASCII Measurement Dump ( BDS format )
#
# Measurement number 	1
#
%VNR 1.0
%MOD 	RAT
%TYP 	SCN
%SCN 	PRO
%FLD 	ION
%DAT 	02-01-2012
%TIM 	12:00:00
%FSZ 	040	040
%BMT 	PHO	   4.0
%SSD 	1000
%BUP 	0
%BRD 	1000
%FSH 	1
%ASC 	0
%WEG 	15
%GPO 	0
%CPO 	0
%MEA 	6
%PRD 	12,0
%PTS 	943
%STS 	    0.0	  -89.6	   12.0 # Start Scan values in mm ( X , Y , Z )
%EDS 	    0.0	   90.1	   12.0 # End Scan values in mm ( X , Y , Z )
#
#	  X      Y      Z     Dose
#
=	0.0	-89.6	12.0	0.6
=	0.0	-89.4	12.0	0.7
=	0.0	-89.3	12.0	0.7
=	0.0	-89.1	12.0	0.7
=	0.0	-88.8	12.0	0.7
=	0.0	-88.7	12.0	0.7
=	0.0	-88.5	12.0	0.7
=	0.0	-88.4	12.0	0.7
=	0.0	-88.2	12.0	0.7
=	0.0	-88.1	12.0	0.7
=	0.0	-87.9	12.0	0.7
=	0.0	-87.7	12.0	0.7
=	0.0	-87.5	12.0	0.7
=	0.0	-87.3	12.0	0.7
=	0.0	-87.2	12.0	0.7
=	0.0	-86.9	12.0	0.7
=	0.0	-86.8	12.0	0.7
=	0.0	-86.7	12.0	0.7
=	0.0	-86.4	12.0	0.7
=	0.0	-86.3	12.0	0.7
=	0.0	-86.1	12.0	0.7
=	0.0	-85.9	12.0	0.7
=	0.0	-85.7	12.0	0.7
=	0.0	-85.5	12.0	0.7
=	0.0	-85.3	12.0	0.7
=	0.0	-85.2	12.0	0.7
=	0.0	-85.0	12.0	0.7
=	0.0	-84.8	12.0	0.7
=	0.0	-84.7	12.0	0.7
=	0.0	-84.5	12.0	0.7
=	0.0	-84.2	12.0	0.7
=	0.0	-84.1	12.0	0.7
=	0.0	-83.9	12.0	0.7
=	0.0	-83.7	12.0	0.7
=	0.0	-83.5	12.0	0.7
=	0.0	-83.2	12.0	0.7
=	0.0	-83.0	12.0	0.7
=	0.0	-82.8	12.0	0.7
=	0.0	-82.7	12.0	0.7
=	0.0	-82.5	12.0	0.7
=	0.0	-82.2	12.0	0.7
=	0.0	-82.0	12.0	0.7
=	0.0	-81.8	12.0	0.7
=	0.0	-81.7	12.0	0.7
=	0.0	-81.5	12.0	0.7
=	0.0	-81.2	12.0	0.7
=	0.0	-81.0	12.0	0.7
=	0.0	-80.8	12.0	0.7
=	0.0	-80.7	12.0	0.7
=	0.0	-80.4	12.0	0.7
=	0.0	-80.2	12.0	0.7
=	0.0	-80.0	12.0	0.7
=	0.0	-79.8	12.0	0.7
=	0.0	-79.7	12.0	0.7
=	0.0	-79.4	12.0	0.7
=	0.0	-79.2	12.0	0.7
=	0.0	-79.0	12.0	0.7
=	0.0	-78.8	12.0	0.7
=	0.0	-78.7	12.0	0.7
=	0.0	-78.4	12.0	0.7
=	0.0	-78.2	12.0	0.7
=	0.0	-78.0	12.0	0.7
=	0.0	-77.8	12.0	0.7
=	0.0	-77.6	12.0	0.7
=	0.0	-77.4	12.0	0.7
=	0.0	-77.2	12.0	0.7
=	0.0	-77.0	12.0	0.7
=	0.0	-76.8	12.0	0.7
=	0.0	-76.7	12.0	0.7
=	0.0	-76.4	12.0	0.8
=	0.0	-76.1	12.0	0.8
=	0.0	-75.9	12.0	0.8
=	0.0	-75.7	12.0	0.8
=	0.0	-75.5	12.0	0.8
=	0.0	-75.4	12.0	0.8
=	0.0	-75.2	12.0	0.8
=	0.0	-74.9	12.0	0.8
=	0.0	-74.7	12.0	0.8
=	0.0	-74.5	12.0	0.8
=	0.0	-74.4	12.0	0.8
=	0.0	-74.1	12.0	0.8
=	0.0	-73.9	12.0	0.8
=	0.0	-73.7	12.0	0.8
=	0.0	-73.5	12.0	0.8
=	0.0	-73.3	12.0	0.8
=	0.0	-73.1	12.0	0.8
=	0.0	-72.9	12.0	0.8
=	0.0	-72.7	12.0	0.8
=	0.0	-72.4	12.0	0.8
=	0.0	-72.3	12.0	0.8
=	0.0	-72.1	12.0	0.8
=	0.0	-71.9	12.0	0.8
=	0.0	-71.7	12.0	0.8
=	0.0	-71.4	12.0	0.8
=	0.0	-71.3	12.0	0.8
=	0.0	-71.1	12.0	0.8
=	0.0	-70.8	12.0	0.8
=	0.0	-70.7	12.0	0.8
=	0.0	-70.5	12.0	0.8
=	0.0	-70.3	12.0	0.8
=	0.0	-70.1	12.0	0.8
=	0.0	-69.8	12.0	0.8
=	0.0	-69.6	12.0	0.8
=	0.0	-69.4	12.0	0.8
=	0.0	-69.2	12.0	0.8
=	0.0	-69.1	12.0	0.8
=	0.0	-68.8	12.0	0.8
=	0.0	-68.6	12.0	0.8
=	0.0	-68.4	12.0	0.8
=	0.0	-68.2	12.0	0.8
=	0.0	-68.1	12.0	0.8
=	0.0	-67.8	12.0	0.8
=	0.0	-67.6	12.0	0.8
=	0.0	-67.4	12.0	0.8
=	0.0	-67.2	12.0	0.8
=	0.0	-67.1	12.0	0.8
=	0.0	-66.8	12.0	0.8
=	0.0	-66.6	12.0	0.8
=	0.0	-66.4	12.0	0.8
=	0.0	-66.1	12.0	0.8
=	0.0	-66.0	12.0	0.8
=	0.0	-65.8	12.0	0.8
=	0.0	-65.6	12.0	0.8
=	0.0	-65.4	12.0	0.8
=	0.0	-65.3	12.0	0.8
=	0.0	-65.0	12.0	0.8
=	0.0	-64.8	12.0	0.8
=	0.0	-64.6	12.0	0.8
=	0.0	-64.3	12.0	0.9
=	0.0	-64.1	12.0	0.9
=	0.0	-64.0	12.0	0.9
=	0.0	-63.8	12.0	0.9
=	0.0	-63.6	12.0	0.9
=	0.0	-63.3	12.0	0.9
=	0.0	-63.1	12.0	0.9
=	0.0	-62.9	12.0	0.9
=	0.0	-62.8	12.0	0.9
=	0.0	-62.6	12.0	0.9
=	0.0	-62.4	12.0	0.9
=	0.0	-62.2	12.0	0.9
=	0.0	-62.1	12.0	0.9
=	0.0	-61.9	12.0	0.9
=	0.0	-61.7	12.0	0.9
=	0.0	-61.6	12.0	0.9
=	0.0	-61.3	12.0	0.9
=	0.0	-61.2	12.0	0.9
=	0.0	-61.1	12.0	0.9
=	0.0	-60.9	12.0	0.9
=	0.0	-60.8	12.0	0.9
=	0.0	-60.6	12.0	0.9
=	0.0	-60.3	12.0	0.9
=	0.0	-60.1	12.0	0.9
=	0.0	-59.9	12.0	0.9
=	0.0	-59.7	12.0	0.9
=	0.0	-59.6	12.0	0.9
=	0.0	-59.3	12.0	0.9
=	0.0	-59.1	12.0	0.9
=	0.0	-59.0	12.0	0.9
=	0.0	-58.7	12.0	0.9
=	0.0	-58.6	12.0	0.9
=	0.0	-58.3	12.0	0.9
=	0.0	-58.1	12.0	0.9
=	0.0	-57.9	12.0	0.9
=	0.0	-57.7	12.0	0.9
=	0.0	-57.6	12.0	0.9
=	0.0	-57.5	12.0	0.9
=	0.0	-57.3	12.0	1.0
=	0.0	-57.2	12.0	1.0
=	0.0	-56.9	12.0	1.0
=	0.0	-56.7	12.0	1.0
=	0.0	-56.5	12.0	1.0
=	0.0	-56.3	12.0	1.0
=	0.0	-56.2	12.0	1.0
=	0.0	-55.9	12.0	1.0
=	0.0	-55.7	12.0	1.0
=	0.0	-55.6	12.0	1.0
=	0.0	-55.5	12.0	1.0
=	0.0	-55.3	12.0	1.0
=	0.0	-55.1	12.0	1.0
=	0.0	-54.9	12.0	1.0
=	0.0	-54.7	12.0	1.0
=	0.0	-54.4	12.0	1.0
=	0.0	-54.2	12.0	1.0
=	0.0	-54.1	12.0	1.0
=	0.0	-53.8	12.0	1.0
=	0.0	-53.6	12.0	1.0
=	0.0	-53.4	12.0	1.0
=	0.0	-53.2	12.0	1.0
=	0.0	-53.1	12.0	1.0
=	0.0	-52.8	12.0	1.0
=	0.0	-52.6	12.0	1.0
=	0.0	-52.4	12.0	1.0
=	0.0	-52.2	12.0	1.1
=	0.0	-52.1	12.0	1.1
=	0.0	-51.8	12.0	1.1
=	0.0	-51.6	12.0	1.1
=	0.0	-51.4	12.0	1.1
=	0.0	-51.1	12.0	1.1
=	0.0	-51.0	12.0	1.1
=	0.0	-50.8	12.0	1.1
=	0.0	-50.6	12.0	1.1
=	0.0	-50.4	12.0	1.1
=	0.0	-50.1	12.0	1.1
=	0.0	-49.9	12.0	1.1
=	0.0	-49.7	12.0	1.1
=	0.0	-49.6	12.0	1.1
=	0.0	-49.3	12.0	1.1
=	0.0	-49.1	12.0	1.1
=	0.0	-49.0	12.0	1.1
=	0.0	-48.7	12.0	1.2
=	0.0	-48.6	12.0	1.2
=	0.0	-48.3	12.0	1.2
=	0.0	-48.1	12.0	1.2
=	0.0	-48.0	12.0	1.2
=	0.0	-47.7	12.0	1.2
=	0.0	-47.5	12.0	1.2
=	0.0	-47.3	12.0	1.2
=	0.0	-47.1	12.0	1.2
=	0.0	-46.9	12.0	1.2
=	0.0	-46.7	12.0	1.2
=	0.0	-46.5	12.0	1.2
=	0.0	-46.3	12.0	1.2
=	0.0	-46.1	12.0	1.2
=	0.0	-45.9	12.0	1.2
=	0.0	-45.7	12.0	1.3
=	0.0	-45.5	12.0	1.3
=	0.0	-45.3	12.0	1.3
=	0.0	-45.1	12.0	1.3
=	0.0	-44.9	12.0	1.3
=	0.0	-44.7	12.0	1.3
=	0.0	-44.5	12.0	1.3
=	0.0	-44.3	12.0	1.3
=	0.0	-44.1	12.0	1.3
=	0.0	-44.0	12.0	1.3
=	0.0	-43.7	12.0	1.3
=	0.0	-43.5	12.0	1.3
=	0.0	-43.2	12.0	1.4
=	0.0	-43.1	12.0	1.4
=	0.0	-42.9	12.0	1.4
=	0.0	-42.6	12.0	1.4
=	0.0	-42.5	12.0	1.4
=	0.0	-42.2	12.0	1.4
=	0.0	-42.0	12.0	1.4
=	0.0	-41.9	12.0	1.4
=	0.0	-41.6	12.0	1.4
=	0.0	-41.4	12.0	1.4
=	0.0	-41.2	12.0	1.5
=	0.0	-41.0	12.0	1.5
=	0.0	-40.9	12.0	1.5
=	0.0	-40.6	12.0	1.5
=	0.0	-40.5	12.0	1.5
=	0.0	-40.2	12.0	1.5
=	0.0	-40.0	12.0	1.5
=	0.0	-39.9	12.0	1.5
=	0.0	-39.6	12.0	1.6
=	0.0	-39.5	12.0	1.6
=	0.0	-39.4	12.0	1.6
=	0.0	-39.2	12.0	1.6
=	0.0	-39.0	12.0	1.6
=	0.0	-38.8	12.0	1.6
=	0.0	-38.6	12.0	1.6
=	0.0	-38.5	12.0	1.6
=	0.0	-38.4	12.0	1.6
=	0.0	-38.2	12.0	1.7
=	0.0	-38.0	12.0	1.7
=	0.0	-37.9	12.0	1.7
=	0.0	-37.8	12.0	1.7
=	0.0	-37.6	12.0	1.7
=	0.0	-37.4	12.0	1.7
=	0.0	-37.2	12.0	1.7
=	0.0	-37.0	12.0	1.7
=	0.0	-36.8	12.0	1.7
=	0.0	-36.6	12.0	1.7
=	0.0	-36.3	12.0	1.8
=	0.0	-36.2	12.0	1.8
=	0.0	-36.0	12.0	1.8
=	0.0	-35.8	12.0	1.8
=	0.0	-35.5	12.0	1.8
=	0.0	-35.3	12.0	1.9
=	0.0	-35.2	12.0	1.9
=	0.0	-35.1	12.0	1.9
=	0.0	-34.9	12.0	1.9
=	0.0	-34.8	12.0	1.9
=	0.0	-34.6	12.0	1.9
=	0.0	-34.3	12.0	1.9
=	0.0	-34.1	12.0	2.0
=	0.0	-33.9	12.0	2.0
=	0.0	-33.8	12.0	2.0
=	0.0	-33.5	12.0	2.1
=	0.0	-33.3	12.0	2.1
=	0.0	-33.1	12.0	2.1
=	0.0	-32.9	12.0	2.1
=	0.0	-32.8	12.0	2.1
=	0.0	-32.5	12.0	2.1
=	0.0	-32.3	12.0	2.2
=	0.0	-32.1	12.0	2.2
=	0.0	-31.9	12.0	2.2
=	0.0	-31.8	12.0	2.2
=	0.0	-31.5	12.0	2.2
=	0.0	-31.3	12.0	2.3
=	0.0	-31.0	12.0	2.3
=	0.0	-30.9	12.0	2.3
=	0.0	-30.7	12.0	2.4
=	0.0	-30.4	12.0	2.4
=	0.0	-30.2	12.0	2.4
=	0.0	-30.1	12.0	2.5
=	0.0	-29.8	12.0	2.5
=	0.0	-29.7	12.0	2.5
=	0.0	-29.4	12.0	2.6
=	0.0	-29.3	12.0	2.6
=	0.0	-29.0	12.0	2.7
=	0.0	-28.8	12.0	2.7
=	0.0	-28.7	12.0	2.7
=	0.0	-28.6	12.0	2.7
=	0.0	-28.4	12.0	2.8
=	0.0	-28.2	12.0	2.8
=	0.0	-28.0	12.0	2.9
=	0.0	-27.8	12.0	3.0
=	0.0	-27.7	12.0	3.1
=	0.0	-27.6	12.0	3.1
=	0.0	-27.3	12.0	3.2
=	0.0	-27.2	12.0	3.3
=	0.0	-27.0	12.0	3.4
=	0.0	-26.8	12.0	3.5
=	0.0	-26.6	12.0	3.7
=	0.0	-26.4	12.0	3.8
=	0.0	-26.2	12.0	4.0
=	0.0	-26.0	12.0	4.3
=	0.0	-25.8	12.0	4.5
=	0.0	-25.6	12.0	4.8
=	0.0	-25.4	12.0	5.0
=	0.0	-25.2	12.0	5.3
=	0.0	-25.0	12.0	5.8
=	0.0	-24.8	12.0	6.2
=	0.0	-24.6	12.0	6.7
=	0.0	-24.3	12.0	7.3
=	0.0	-24.2	12.0	7.7
=	0.0	-23.9	12.0	8.8
=	0.0	-23.8	12.0	9.5
=	0.0	-23.6	12.0	10.5
=	0.0	-23.3	12.0	11.8
=	0.0	-23.1	12.0	13.1
=	0.0	-23.0	12.0	13.8
=	0.0	-22.8	12.0	15.4
=	0.0	-22.5	12.0	18.0
=	0.0	-22.3	12.0	19.8
=	0.0	-22.1	12.0	21.8
=	0.0	-21.9	12.0	24.2
=	0.0	-21.7	12.0	26.4
=	0.0	-21.5	12.0	29.1
=	0.0	-21.3	12.0	31.2
=	0.0	-21.1	12.0	34.2
=	0.0	-21.0	12.0	36.1
=	0.0	-20.8	12.0	38.1
=	0.0	-20.7	12.0	39.7
=	0.0	-20.5	12.0	42.5
=	0.0	-20.3	12.0	44.8
=	0.0	-20.1	12.0	47.9
=	0.0	-20.0	12.0	49.7
=	0.0	-19.8	12.0	51.4
=	0.0	-19.7	12.0	53.4
=	0.0	-19.5	12.0	56.1
=	0.0	-19.4	12.0	57.4
=	0.0	-19.3	12.0	59.2
=	0.0	-19.1	12.0	61.7
=	0.0	-18.9	12.0	63.7
=	0.0	-18.7	12.0	67.1
=	0.0	-18.5	12.0	69.6
=	0.0	-18.3	12.0	71.5
=	0.0	-18.1	12.0	74.9
=	0.0	-17.9	12.0	76.5
=	0.0	-17.8	12.0	77.8
=	0.0	-17.7	12.0	79.5
=	0.0	-17.5	12.0	82.1
=	0.0	-17.2	12.0	84.5
=	0.0	-17.1	12.0	86.3
=	0.0	-17.0	12.0	87.3
=	0.0	-16.8	12.0	88.4
=	0.0	-16.7	12.0	89.8
=	0.0	-16.4	12.0	91.7
=	0.0	-16.3	12.0	93.0
=	0.0	-16.1	12.0	94.2
=	0.0	-15.9	12.0	94.9
=	0.0	-15.6	12.0	96.5
=	0.0	-15.4	12.0	97.3
=	0.0	-15.2	12.0	97.9
=	0.0	-15.0	12.0	98.6
=	0.0	-14.8	12.0	98.9
=	0.0	-14.6	12.0	99.3
=	0.0	-14.4	12.0	99.6
=	0.0	-14.2	12.0	99.9
=	0.0	-14.0	12.0	100.3
=	0.0	-13.8	12.0	100.4
=	0.0	-13.6	12.0	100.6
=	0.0	-13.4	12.0	100.7
=	0.0	-13.2	12.0	100.9
=	0.0	-13.0	12.0	101.0
=	0.0	-12.8	12.0	101.1
=	0.0	-12.6	12.0	101.1
=	0.0	-12.4	12.0	101.1
=	0.0	-12.1	12.0	101.2
=	0.0	-11.9	12.0	101.3
=	0.0	-11.8	12.0	101.3
=	0.0	-11.6	12.0	101.3
=	0.0	-11.4	12.0	101.3
=	0.0	-11.1	12.0	101.3
=	0.0	-10.9	12.0	101.3
=	0.0	-10.7	12.0	101.3
=	0.0	-10.5	12.0	101.3
=	0.0	-10.4	12.0	101.3
=	0.0	-10.3	12.0	101.3
=	0.0	-10.1	12.0	101.3
=	0.0	-9.9	12.0	101.3
=	0.0	-9.8	12.0	101.3
=	0.0	-9.5	12.0	101.3
=	0.0	-9.4	12.0	101.3
=	0.0	-9.1	12.0	101.3
=	0.0	-8.9	12.0	101.2
=	0.0	-8.8	12.0	101.2
=	0.0	-8.7	12.0	101.2
=	0.0	-8.5	12.0	101.2
=	0.0	-8.4	12.0	101.2
=	0.0	-8.1	12.0	101.1
=	0.0	-7.9	12.0	101.1
=	0.0	-7.8	12.0	101.1
=	0.0	-7.5	12.0	101.1
=	0.0	-7.4	12.0	101.1
=	0.0	-7.1	12.0	101.0
=	0.0	-6.9	12.0	101.0
=	0.0	-6.7	12.0	101.0
=	0.0	-6.5	12.0	101.0
=	0.0	-6.3	12.0	101.0
=	0.0	-6.1	12.0	101.0
=	0.0	-5.9	12.0	100.9
=	0.0	-5.6	12.0	100.9
=	0.0	-5.5	12.0	100.9
=	0.0	-5.3	12.0	100.9
=	0.0	-5.1	12.0	100.8
=	0.0	-4.9	12.0	100.8
=	0.0	-4.8	12.0	100.8
=	0.0	-4.7	12.0	100.7
=	0.0	-4.4	12.0	100.7
=	0.0	-4.3	12.0	100.7
=	0.0	-4.0	12.0	100.7
=	0.0	-3.8	12.0	100.6
=	0.0	-3.6	12.0	100.6
=	0.0	-3.4	12.0	100.5
=	0.0	-3.3	12.0	100.5
=	0.0	-3.0	12.0	100.5
=	0.0	-2.8	12.0	100.5
=	0.0	-2.6	12.0	100.4
=	0.0	-2.4	12.0	100.4
=	0.0	-2.3	12.0	100.4
=	0.0	-2.2	12.0	100.3
=	0.0	-2.0	12.0	100.3
=	0.0	-1.8	12.0	100.3
=	0.0	-1.6	12.0	100.2
=	0.0	-1.4	12.0	100.2
=	0.0	-1.3	12.0	100.2
=	0.0	-1.0	12.0	100.2
=	0.0	-0.8	12.0	100.1
=	0.0	-0.6	12.0	100.1
=	0.0	-0.4	12.0	100.1
=	0.0	-0.2	12.0	100.1
=	0.0	0.0	12.0	100.0
=	0.0	0.2	12.0	99.9
=	0.0	0.4	12.0	99.9
=	0.0	0.6	12.0	99.8
=	0.0	0.8	12.0	99.8
=	0.0	1.1	12.0	99.8
=	0.0	1.2	12.0	99.8
=	0.0	1.3	12.0	99.7
=	0.0	1.4	12.0	99.7
=	0.0	1.7	12.0	99.7
=	0.0	1.8	12.0	99.7
=	0.0	2.1	12.0	99.7
=	0.0	2.2	12.0	99.6
=	0.0	2.5	12.0	99.6
=	0.0	2.7	12.0	99.6
=	0.0	2.8	12.0	99.6
=	0.0	3.1	12.0	99.5
=	0.0	3.3	12.0	99.5
=	0.0	3.5	12.0	99.4
=	0.0	3.7	12.0	99.3
=	0.0	3.9	12.0	99.3
=	0.0	4.1	12.0	99.3
=	0.0	4.2	12.0	99.3
=	0.0	4.5	12.0	99.2
=	0.0	4.7	12.0	99.2
=	0.0	4.8	12.0	99.2
=	0.0	5.1	12.0	99.2
=	0.0	5.3	12.0	99.1
=	0.0	5.5	12.0	99.1
=	0.0	5.7	12.0	99.1
=	0.0	5.9	12.0	99.1
=	0.0	6.1	12.0	99.1
=	0.0	6.2	12.0	99.1
=	0.0	6.3	12.0	99.0
=	0.0	6.6	12.0	99.0
=	0.0	6.7	12.0	99.0
=	0.0	6.9	12.0	99.0
=	0.0	7.1	12.0	98.9
=	0.0	7.3	12.0	98.9
=	0.0	7.6	12.0	98.9
=	0.0	7.7	12.0	98.8
=	0.0	8.0	12.0	98.8
=	0.0	8.2	12.0	98.8
=	0.0	8.3	12.0	98.7
=	0.0	8.5	12.0	98.7
=	0.0	8.7	12.0	98.7
=	0.0	9.0	12.0	98.6
=	0.0	9.2	12.0	98.5
=	0.0	9.4	12.0	98.4
=	0.0	9.6	12.0	98.4
=	0.0	9.7	12.0	98.4
=	0.0	9.9	12.0	98.3
=	0.0	10.2	12.0	98.2
=	0.0	10.4	12.0	98.2
=	0.0	10.6	12.0	98.1
=	0.0	10.7	12.0	98.0
=	0.0	11.0	12.0	97.9
=	0.0	11.2	12.0	97.9
=	0.0	11.4	12.0	97.9
=	0.0	11.6	12.0	97.8
=	0.0	11.7	12.0	97.7
=	0.0	12.0	12.0	97.6
=	0.0	12.2	12.0	97.5
=	0.0	12.4	12.0	97.3
=	0.0	12.6	12.0	97.2
=	0.0	12.8	12.0	97.1
=	0.0	13.0	12.0	97.0
=	0.0	13.2	12.0	96.9
=	0.0	13.4	12.0	96.6
=	0.0	13.6	12.0	96.4
=	0.0	13.8	12.0	96.1
=	0.0	14.0	12.0	95.7
=	0.0	14.2	12.0	95.5
=	0.0	14.3	12.0	95.3
=	0.0	14.4	12.0	95.1
=	0.0	14.7	12.0	94.7
=	0.0	14.8	12.0	94.4
=	0.0	15.0	12.0	93.7
=	0.0	15.2	12.0	93.3
=	0.0	15.3	12.0	92.9
=	0.0	15.5	12.0	92.3
=	0.0	15.7	12.0	91.5
=	0.0	15.8	12.0	90.9
=	0.0	16.1	12.0	89.4
=	0.0	16.2	12.0	88.2
=	0.0	16.4	12.0	86.9
=	0.0	16.7	12.0	85.3
=	0.0	16.8	12.0	83.8
=	0.0	17.1	12.0	81.5
=	0.0	17.2	12.0	80.5
=	0.0	17.3	12.0	79.2
=	0.0	17.5	12.0	77.3
=	0.0	17.7	12.0	75.3
=	0.0	17.8	12.0	73.6
=	0.0	18.1	12.0	71.0
=	0.0	18.2	12.0	69.1
=	0.0	18.5	12.0	66.2
=	0.0	18.7	12.0	63.8
=	0.0	18.8	12.0	61.6
=	0.0	19.1	12.0	58.4
=	0.0	19.3	12.0	55.6
=	0.0	19.5	12.0	53.0
=	0.0	19.7	12.0	50.0
=	0.0	19.9	12.0	47.5
=	0.0	20.1	12.0	44.8
=	0.0	20.2	12.0	43.4
=	0.0	20.4	12.0	41.3
=	0.0	20.5	12.0	39.5
=	0.0	20.7	12.0	37.0
=	0.0	20.9	12.0	35.3
=	0.0	21.1	12.0	32.4
=	0.0	21.2	12.0	30.6
=	0.0	21.3	12.0	29.4
=	0.0	21.5	12.0	27.4
=	0.0	21.7	12.0	25.3
=	0.0	21.8	12.0	23.9
=	0.0	22.1	12.0	21.0
=	0.0	22.3	12.0	19.4
=	0.0	22.5	12.0	17.1
=	0.0	22.7	12.0	15.6
=	0.0	22.8	12.0	14.6
=	0.0	23.0	12.0	13.7
=	0.0	23.1	12.0	12.5
=	0.0	23.4	12.0	11.0
=	0.0	23.5	12.0	10.0
=	0.0	23.7	12.0	9.1
=	0.0	23.9	12.0	8.3
=	0.0	24.1	12.0	7.3
=	0.0	24.4	12.0	6.7
=	0.0	24.5	12.0	6.2
=	0.0	24.7	12.0	5.8
=	0.0	24.9	12.0	5.4
=	0.0	25.2	12.0	4.9
=	0.0	25.4	12.0	4.6
=	0.0	25.6	12.0	4.4
=	0.0	25.7	12.0	4.2
=	0.0	25.9	12.0	4.1
=	0.0	26.1	12.0	3.8
=	0.0	26.4	12.0	3.6
=	0.0	26.6	12.0	3.5
=	0.0	26.7	12.0	3.4
=	0.0	27.0	12.0	3.2
=	0.0	27.2	12.0	3.2
=	0.0	27.4	12.0	3.1
=	0.0	27.6	12.0	3.0
=	0.0	27.7	12.0	2.9
=	0.0	28.0	12.0	2.8
=	0.0	28.2	12.0	2.7
=	0.0	28.4	12.0	2.7
=	0.0	28.6	12.0	2.6
=	0.0	28.7	12.0	2.6
=	0.0	29.0	12.0	2.5
=	0.0	29.2	12.0	2.5
=	0.0	29.4	12.0	2.5
=	0.0	29.6	12.0	2.4
=	0.0	29.7	12.0	2.4
=	0.0	30.0	12.0	2.3
=	0.0	30.2	12.0	2.3
=	0.0	30.5	12.0	2.3
=	0.0	30.7	12.0	2.2
=	0.0	30.8	12.0	2.2
=	0.0	31.0	12.0	2.2
=	0.0	31.2	12.0	2.2
=	0.0	31.5	12.0	2.1
=	0.0	31.7	12.0	2.1
=	0.0	31.9	12.0	2.1
=	0.0	32.0	12.0	2.1
=	0.0	32.2	12.0	2.0
=	0.0	32.5	12.0	2.0
=	0.0	32.6	12.0	2.0
=	0.0	32.9	12.0	2.0
=	0.0	33.1	12.0	2.0
=	0.0	33.2	12.0	1.9
=	0.0	33.5	12.0	1.9
=	0.0	33.7	12.0	1.9
=	0.0	33.8	12.0	1.9
=	0.0	34.1	12.0	1.9
=	0.0	34.3	12.0	1.8
=	0.0	34.5	12.0	1.8
=	0.0	34.7	12.0	1.8
=	0.0	34.9	12.0	1.8
=	0.0	35.0	12.0	1.8
=	0.0	35.2	12.0	1.8
=	0.0	35.5	12.0	1.7
=	0.0	35.7	12.0	1.7
=	0.0	35.9	12.0	1.7
=	0.0	36.1	12.0	1.7
=	0.0	36.3	12.0	1.7
=	0.0	36.5	12.0	1.6
=	0.0	36.7	12.0	1.6
=	0.0	36.9	12.0	1.6
=	0.0	37.1	12.0	1.6
=	0.0	37.2	12.0	1.6
=	0.0	37.3	12.0	1.6
=	0.0	37.5	12.0	1.6
=	0.0	37.7	12.0	1.6
=	0.0	37.9	12.0	1.6
=	0.0	38.1	12.0	1.6
=	0.0	38.3	12.0	1.6
=	0.0	38.5	12.0	1.5
=	0.0	38.7	12.0	1.5
=	0.0	38.9	12.0	1.5
=	0.0	39.1	12.0	1.5
=	0.0	39.2	12.0	1.5
=	0.0	39.6	12.0	1.5
=	0.0	39.7	12.0	1.5
=	0.0	39.8	12.0	1.5
=	0.0	40.2	12.0	1.4
=	0.0	40.3	12.0	1.4
=	0.0	40.6	12.0	1.4
=	0.0	40.7	12.0	1.4
=	0.0	40.9	12.0	1.4
=	0.0	41.2	12.0	1.4
=	0.0	41.4	12.0	1.4
=	0.0	41.6	12.0	1.4
=	0.0	41.7	12.0	1.4
=	0.0	41.9	12.0	1.4
=	0.0	42.2	12.0	1.3
=	0.0	42.3	12.0	1.3
=	0.0	42.4	12.0	1.3
=	0.0	42.6	12.0	1.3
=	0.0	42.7	12.0	1.3
=	0.0	42.9	12.0	1.3
=	0.0	43.2	12.0	1.3
=	0.0	43.4	12.0	1.3
=	0.0	43.6	12.0	1.3
=	0.0	43.8	12.0	1.2
=	0.0	43.9	12.0	1.2
=	0.0	44.2	12.0	1.2
=	0.0	44.4	12.0	1.2
=	0.0	44.6	12.0	1.2
=	0.0	44.8	12.0	1.2
=	0.0	44.9	12.0	1.2
=	0.0	45.0	12.0	1.2
=	0.0	45.2	12.0	1.2
=	0.0	45.4	12.0	1.2
=	0.0	45.6	12.0	1.2
=	0.0	45.7	12.0	1.2
=	0.0	46.0	12.0	1.2
=	0.0	46.2	12.0	1.2
=	0.0	46.4	12.0	1.2
=	0.0	46.6	12.0	1.2
=	0.0	46.8	12.0	1.2
=	0.0	46.9	12.0	1.1
=	0.0	47.2	12.0	1.1
=	0.0	47.4	12.0	1.1
=	0.0	47.6	12.0	1.1
=	0.0	47.9	12.0	1.1
=	0.0	48.0	12.0	1.1
=	0.0	48.2	12.0	1.1
=	0.0	48.5	12.0	1.1
=	0.0	48.6	12.0	1.1
=	0.0	48.8	12.0	1.1
=	0.0	49.0	12.0	1.1
=	0.0	49.1	12.0	1.1
=	0.0	49.2	12.0	1.1
=	0.0	49.5	12.0	1.1
=	0.0	49.7	12.0	1.1
=	0.0	49.9	12.0	1.1
=	0.0	50.0	12.0	1.1
=	0.0	50.3	12.0	1.0
=	0.0	50.5	12.0	1.0
=	0.0	50.7	12.0	1.0
=	0.0	50.9	12.0	1.0
=	0.0	51.0	12.0	1.0
=	0.0	51.3	12.0	1.0
=	0.0	51.5	12.0	1.0
=	0.0	51.7	12.0	1.0
=	0.0	51.8	12.0	1.0
=	0.0	52.0	12.0	1.0
=	0.0	52.1	12.0	1.0
=	0.0	52.3	12.0	1.0
=	0.0	52.5	12.0	1.0
=	0.0	52.7	12.0	1.0
=	0.0	53.0	12.0	1.0
=	0.0	53.2	12.0	1.0
=	0.0	53.3	12.0	1.0
=	0.0	53.5	12.0	1.0
=	0.0	53.8	12.0	1.0
=	0.0	53.9	12.0	1.0
=	0.0	54.1	12.0	1.0
=	0.0	54.3	12.0	1.0
=	0.0	54.5	12.0	0.9
=	0.0	54.8	12.0	0.9
=	0.0	55.0	12.0	0.9
=	0.0	55.2	12.0	0.9
=	0.0	55.4	12.0	0.9
=	0.0	55.6	12.0	0.9
=	0.0	55.7	12.0	0.9
=	0.0	56.0	12.0	0.9
=	0.0	56.2	12.0	0.9
=	0.0	56.4	12.0	0.9
=	0.0	56.6	12.0	0.9
=	0.0	56.8	12.0	0.9
=	0.0	57.0	12.0	0.9
=	0.0	57.1	12.0	0.9
=	0.0	57.4	12.0	0.9
=	0.0	57.6	12.0	0.9
=	0.0	57.7	12.0	0.9
=	0.0	57.8	12.0	0.9
=	0.0	58.0	12.0	0.9
=	0.0	58.1	12.0	0.9
=	0.0	58.2	12.0	0.9
=	0.0	58.4	12.0	0.9
=	0.0	58.6	12.0	0.9
=	0.0	58.7	12.0	0.9
=	0.0	58.8	12.0	0.9
=	0.0	59.0	12.0	0.9
=	0.0	59.2	12.0	0.9
=	0.0	59.4	12.0	0.9
=	0.0	59.6	12.0	0.9
=	0.0	59.8	12.0	0.9
=	0.0	60.1	12.0	0.9
=	0.0	60.2	12.0	0.9
=	0.0	60.4	12.0	0.8
=	0.0	60.6	12.0	0.8
=	0.0	60.8	12.0	0.8
=	0.0	60.9	12.0	0.8
=	0.0	61.1	12.0	0.8
=	0.0	61.3	12.0	0.8
=	0.0	61.5	12.0	0.8
=	0.0	61.6	12.0	0.8
=	0.0	61.8	12.0	0.8
=	0.0	61.9	12.0	0.8
=	0.0	62.1	12.0	0.8
=	0.0	62.3	12.0	0.8
=	0.0	62.5	12.0	0.8
=	0.0	62.6	12.0	0.8
=	0.0	62.7	12.0	0.8
=	0.0	62.9	12.0	0.8
=	0.0	63.1	12.0	0.8
=	0.0	63.3	12.0	0.8
=	0.0	63.5	12.0	0.8
=	0.0	63.7	12.0	0.8
=	0.0	63.9	12.0	0.8
=	0.0	64.1	12.0	0.8
=	0.0	64.3	12.0	0.8
=	0.0	64.5	12.0	0.8
=	0.0	64.6	12.0	0.8
=	0.0	64.8	12.0	0.8
=	0.0	65.0	12.0	0.8
=	0.0	65.1	12.0	0.8
=	0.0	65.3	12.0	0.8
=	0.0	65.5	12.0	0.8
=	0.0	65.8	12.0	0.8
=	0.0	66.0	12.0	0.8
=	0.0	66.1	12.0	0.8
=	0.0	66.3	12.0	0.8
=	0.0	66.6	12.0	0.8
=	0.0	66.7	12.0	0.8
=	0.0	66.8	12.0	0.8
=	0.0	67.0	12.0	0.8
=	0.0	67.2	12.0	0.8
=	0.0	67.3	12.0	0.8
=	0.0	67.6	12.0	0.8
=	0.0	67.8	12.0	0.8
=	0.0	68.0	12.0	0.8
=	0.0	68.2	12.0	0.8
=	0.0	68.4	12.0	0.8
=	0.0	68.6	12.0	0.8
=	0.0	68.8	12.0	0.8
=	0.0	69.0	12.0	0.8
=	0.0	69.2	12.0	0.8
=	0.0	69.4	12.0	0.8
=	0.0	69.6	12.0	0.8
=	0.0	69.7	12.0	0.8
=	0.0	69.9	12.0	0.8
=	0.0	70.0	12.0	0.8
=	0.0	70.2	12.0	0.8
=	0.0	70.3	12.0	0.7
=	0.0	70.6	12.0	0.7
=	0.0	70.7	12.0	0.7
=	0.0	70.8	12.0	0.7
=	0.0	71.0	12.0	0.7
=	0.0	71.2	12.0	0.7
=	0.0	71.3	12.0	0.7
=	0.0	71.6	12.0	0.7
=	0.0	71.8	12.0	0.7
=	0.0	72.1	12.0	0.7
=	0.0	72.2	12.0	0.7
=	0.0	72.4	12.0	0.7
=	0.0	72.7	12.0	0.7
=	0.0	72.9	12.0	0.7
=	0.0	73.1	12.0	0.7
=	0.0	73.2	12.0	0.7
=	0.0	73.4	12.0	0.7
=	0.0	73.7	12.0	0.7
=	0.0	73.9	12.0	0.7
=	0.0	74.1	12.0	0.7
=	0.0	74.3	12.0	0.7
=	0.0	74.4	12.0	0.7
=	0.0	74.7	12.0	0.7
=	0.0	74.9	12.0	0.7
=	0.0	75.1	12.0	0.7
=	0.0	75.3	12.0	0.7
=	0.0	75.4	12.0	0.7
=	0.0	75.7	12.0	0.7
=	0.0	75.9	12.0	0.7
=	0.0	76.1	12.0	0.7
=	0.0	76.3	12.0	0.7
=	0.0	76.4	12.0	0.7
=	0.0	76.5	12.0	0.7
=	0.0	76.7	12.0	0.7
=	0.0	76.9	12.0	0.7
=	0.0	77.1	12.0	0.7
=	0.0	77.3	12.0	0.7
=	0.0	77.4	12.0	0.7
=	0.0	77.5	12.0	0.7
=	0.0	77.7	12.0	0.7
=	0.0	77.9	12.0	0.7
=	0.0	78.1	12.0	0.7
=	0.0	78.3	12.0	0.7
=	0.0	78.4	12.0	0.7
=	0.0	78.5	12.0	0.7
=	0.0	78.8	12.0	0.7
=	0.0	79.0	12.0	0.7
=	0.0	79.2	12.0	0.7
=	0.0	79.3	12.0	0.7
=	0.0	79.5	12.0	0.7
=	0.0	79.7	12.0	0.7
=	0.0	79.9	12.0	0.7
=	0.0	80.1	12.0	0.7
=	0.0	80.3	12.0	0.7
=	0.0	80.4	12.0	0.7
=	0.0	80.5	12.0	0.7
=	0.0	80.7	12.0	0.7
=	0.0	80.8	12.0	0.7
=	0.0	81.0	12.0	0.7
=	0.0	81.2	12.0	0.7
=	0.0	81.4	12.0	0.7
=	0.0	81.5	12.0	0.7
=	0.0	81.7	12.0	0.7
=	0.0	81.9	12.0	0.7
=	0.0	82.0	12.0	0.7
=	0.0	82.1	12.0	0.7
=	0.0	82.4	12.0	0.7
=	0.0	82.5	12.0	0.7
=	0.0	82.8	12.0	0.6
=	0.0	82.9	12.0	0.6
=	0.0	83.0	12.0	0.6
=	0.0	83.2	12.0	0.6
=	0.0	83.4	12.0	0.6
=	0.0	83.5	12.0	0.6
=	0.0	83.8	12.0	0.6
=	0.0	84.0	12.0	0.6
=	0.0	84.2	12.0	0.6
=	0.0	84.4	12.0	0.6
=	0.0	84.5	12.0	0.6
=	0.0	84.8	12.0	0.6
=	0.0	85.0	12.0	0.6
=	0.0	85.2	12.0	0.6
=	0.0	85.4	12.0	0.6
=	0.0	85.6	12.0	0.6
=	0.0	85.8	12.0	0.6
=	0.0	85.9	12.0	0.6
=	0.0	86.1	12.0	0.6
=	0.0	86.2	12.0	0.6
=	0.0	86.4	12.0	0.6
=	0.0	86.6	12.0	0.6
=	0.0	86.8	12.0	0.6
=	0.0	86.9	12.0	0.6
=	0.0	87.1	12.0	0.6
=	0.0	87.4	12.0	0.6
=	0.0	87.6	12.0	0.6
=	0.0	87.8	12.0	0.6
=	0.0	88.0	12.0	0.6
=	0.0	88.1	12.0	0.6
=	0.0	88.2	12.0	0.6
=	0.0	88.4	12.0	0.6
=	0.0	88.6	12.0	0.6
=	0.0	88.9	12.0	0.6
=	0.0	89.0	12.0	0.6
=	0.0	89.1	12.0	0.6
=	0.0	89.3	12.0	0.6
=	0.0	89.5	12.0	0.6
=	0.0	89.6	12.0	0.6
=	0.0	89.9	12.0	0.6
=	0.0	90.0	12.0	0.6
=	0.0	90.1	12.0	0.6
:EOM # End of Measurement
#
# RFA300 ASCII Measurement Dump ( BDS format )
#
# Measurement number 	2
#
%VNR 1.0
%MOD 	RAT
%TYP 	SCN
%SCN 	PRO
%FLD 	ION
%DAT 	02-01-2012
%TIM 	12:00:00
%FSZ 	040	040
%BMT 	PHO	   4.0
%SSD 	1000
%BUP 	0
%BRD 	1000
%FSH 	1
%ASC 	0
%WEG 	15
%GPO 	0
%CPO 	0
%MEA 	6
%PRD 	50,0
%PTS 	501
%STS 	    0.0	  -94.4	   50.0 # Start Scan values in mm ( X , Y , Z )
%EDS 	    0.0	   94.4	   50.0 # End Scan values in mm ( X , Y , Z )
#
#	  X      Y      Z     Dose
#
=	0.0	-94.4	50.0	0.9
=	0.0	-94.1	50.0	0.8
=	0.0	-93.6	50.0	0.8
=	0.0	-93.2	50.0	0.8
=	0.0	-92.8	50.0	0.8
=	0.0	-92.4	50.0	0.8
=	0.0	-92.0	50.0	0.8
=	0.0	-91.6	50.0	0.8
=	0.0	-91.2	50.0	0.8
=	0.0	-90.8	50.0	0.8
=	0.0	-90.4	50.0	0.8
=	0.0	-90.0	50.0	0.8
=	0.0	-89.6	50.0	0.8
=	0.0	-89.2	50.0	0.8
=	0.0	-88.8	50.0	0.8
=	0.0	-88.5	50.0	0.8
=	0.0	-88.2	50.0	0.8
=	0.0	-87.8	50.0	0.8
=	0.0	-87.3	50.0	0.8
=	0.0	-86.9	50.0	0.9
=	0.0	-86.7	50.0	0.9
=	0.0	-86.3	50.0	0.9
=	0.0	-85.9	50.0	0.9
=	0.0	-85.5	50.0	0.9
=	0.0	-85.1	50.0	0.9
=	0.0	-84.7	50.0	0.9
=	0.0	-84.5	50.0	0.9
=	0.0	-84.1	50.0	0.9
=	0.0	-83.7	50.0	0.9
=	0.0	-83.3	50.0	0.9
=	0.0	-83.0	50.0	0.9
=	0.0	-82.6	50.0	0.9
=	0.0	-82.3	50.0	0.9
=	0.0	-81.9	50.0	0.9
=	0.0	-81.5	50.0	0.9
=	0.0	-81.0	50.0	0.9
=	0.0	-80.6	50.0	0.9
=	0.0	-80.2	50.0	0.9
=	0.0	-79.8	50.0	0.9
=	0.0	-79.5	50.0	0.9
=	0.0	-79.0	50.0	0.9
=	0.0	-78.6	50.0	0.9
=	0.0	-78.2	50.0	0.9
=	0.0	-77.8	50.0	0.9
=	0.0	-77.5	50.0	0.9
=	0.0	-77.2	50.0	1.0
=	0.0	-76.8	50.0	1.0
=	0.0	-76.5	50.0	1.0
=	0.0	-76.2	50.0	1.0
=	0.0	-75.7	50.0	1.0
=	0.0	-75.5	50.0	1.0
=	0.0	-75.2	50.0	1.0
=	0.0	-74.7	50.0	1.0
=	0.0	-74.5	50.0	1.0
=	0.0	-74.2	50.0	1.0
=	0.0	-73.7	50.0	1.0
=	0.0	-73.3	50.0	1.0
=	0.0	-72.9	50.0	1.0
=	0.0	-72.5	50.0	1.0
=	0.0	-72.1	50.0	1.0
=	0.0	-71.7	50.0	1.0
=	0.0	-71.3	50.0	1.0
=	0.0	-70.9	50.0	1.0
=	0.0	-70.4	50.0	1.1
=	0.0	-70.1	50.0	1.1
=	0.0	-69.7	50.0	1.1
=	0.0	-69.2	50.0	1.1
=	0.0	-68.8	50.0	1.1
=	0.0	-68.4	50.0	1.1
=	0.0	-68.1	50.0	1.1
=	0.0	-67.8	50.0	1.1
=	0.0	-67.4	50.0	1.1
=	0.0	-67.1	50.0	1.1
=	0.0	-66.6	50.0	1.1
=	0.0	-66.2	50.0	1.1
=	0.0	-65.8	50.0	1.1
=	0.0	-65.6	50.0	1.1
=	0.0	-65.2	50.0	1.2
=	0.0	-64.9	50.0	1.2
=	0.0	-64.4	50.0	1.2
=	0.0	-64.0	50.0	1.2
=	0.0	-63.8	50.0	1.2
=	0.0	-63.4	50.0	1.2
=	0.0	-63.0	50.0	1.2
=	0.0	-62.7	50.0	1.2
=	0.0	-62.4	50.0	1.2
=	0.0	-62.0	50.0	1.2
=	0.0	-61.7	50.0	1.2
=	0.0	-61.3	50.0	1.2
=	0.0	-61.0	50.0	1.2
=	0.0	-60.6	50.0	1.2
=	0.0	-60.1	50.0	1.3
=	0.0	-59.9	50.0	1.3
=	0.0	-59.5	50.0	1.3
=	0.0	-59.1	50.0	1.3
=	0.0	-58.9	50.0	1.3
=	0.0	-58.5	50.0	1.3
=	0.0	-58.1	50.0	1.3
=	0.0	-57.7	50.0	1.4
=	0.0	-57.3	50.0	1.4
=	0.0	-56.9	50.0	1.4
=	0.0	-56.7	50.0	1.4
=	0.0	-56.3	50.0	1.4
=	0.0	-55.9	50.0	1.4
=	0.0	-55.5	50.0	1.4
=	0.0	-55.0	50.0	1.5
=	0.0	-54.7	50.0	1.5
=	0.0	-54.3	50.0	1.5
=	0.0	-53.8	50.0	1.5
=	0.0	-53.4	50.0	1.5
=	0.0	-53.1	50.0	1.5
=	0.0	-52.7	50.0	1.5
=	0.0	-52.2	50.0	1.6
=	0.0	-51.8	50.0	1.6
=	0.0	-51.4	50.0	1.6
=	0.0	-51.0	50.0	1.6
=	0.0	-50.8	50.0	1.7
=	0.0	-50.4	50.0	1.7
=	0.0	-50.0	50.0	1.7
=	0.0	-49.6	50.0	1.7
=	0.0	-49.3	50.0	1.7
=	0.0	-49.0	50.0	1.8
=	0.0	-48.5	50.0	1.8
=	0.0	-48.2	50.0	1.8
=	0.0	-47.7	50.0	1.8
=	0.0	-47.3	50.0	1.9
=	0.0	-46.9	50.0	1.9
=	0.0	-46.6	50.0	1.9
=	0.0	-46.1	50.0	1.9
=	0.0	-45.7	50.0	2.0
=	0.0	-45.3	50.0	2.0
=	0.0	-44.9	50.0	2.1
=	0.0	-44.5	50.0	2.1
=	0.0	-44.1	50.0	2.1
=	0.0	-43.7	50.0	2.2
=	0.0	-43.3	50.0	2.2
=	0.0	-42.9	50.0	2.2
=	0.0	-42.5	50.0	2.2
=	0.0	-42.3	50.0	2.3
=	0.0	-41.8	50.0	2.3
=	0.0	-41.4	50.0	2.4
=	0.0	-41.1	50.0	2.4
=	0.0	-40.6	50.0	2.5
=	0.0	-40.2	50.0	2.5
=	0.0	-39.9	50.0	2.5
=	0.0	-39.6	50.0	2.6
=	0.0	-39.2	50.0	2.6
=	0.0	-38.8	50.0	2.7
=	0.0	-38.5	50.0	2.7
=	0.0	-38.2	50.0	2.8
=	0.0	-37.9	50.0	2.8
=	0.0	-37.6	50.0	2.8
=	0.0	-37.2	50.0	2.9
=	0.0	-36.8	50.0	3.0
=	0.0	-36.4	50.0	3.0
=	0.0	-36.0	50.0	3.1
=	0.0	-35.6	50.0	3.2
=	0.0	-35.2	50.0	3.3
=	0.0	-34.8	50.0	3.3
=	0.0	-34.4	50.0	3.4
=	0.0	-33.9	50.0	3.4
=	0.0	-33.6	50.0	3.5
=	0.0	-33.3	50.0	3.6
=	0.0	-32.9	50.0	3.6
=	0.0	-32.6	50.0	3.7
=	0.0	-32.1	50.0	3.8
=	0.0	-31.7	50.0	3.9
=	0.0	-31.3	50.0	4.0
=	0.0	-30.9	50.0	4.1
=	0.0	-30.5	50.0	4.3
=	0.0	-30.1	50.0	4.4
=	0.0	-29.7	50.0	4.5
=	0.0	-29.2	50.0	4.7
=	0.0	-28.8	50.0	4.9
=	0.0	-28.5	50.0	5.1
=	0.0	-28.0	50.0	5.4
=	0.0	-27.6	50.0	5.7
=	0.0	-27.3	50.0	6.0
=	0.0	-26.8	50.0	6.4
=	0.0	-26.4	50.0	6.9
=	0.0	-26.1	50.0	7.4
=	0.0	-25.6	50.0	8.2
=	0.0	-25.2	50.0	9.2
=	0.0	-24.8	50.0	10.5
=	0.0	-24.4	50.0	12.3
=	0.0	-24.0	50.0	14.2
=	0.0	-23.6	50.0	17.3
=	0.0	-23.2	50.0	20.2
=	0.0	-22.8	50.0	24.1
=	0.0	-22.4	50.0	28.5
=	0.0	-22.0	50.0	32.3
=	0.0	-21.6	50.0	37.8
=	0.0	-21.2	50.0	42.4
=	0.0	-20.8	50.0	47.6
=	0.0	-20.4	50.0	53.4
=	0.0	-20.0	50.0	58.0
=	0.0	-19.5	50.0	63.9
=	0.0	-19.2	50.0	68.5
=	0.0	-18.7	50.0	73.5
=	0.0	-18.3	50.0	78.1
=	0.0	-18.0	50.0	81.6
=	0.0	-17.5	50.0	86.2
=	0.0	-17.2	50.0	89.2
=	0.0	-16.9	50.0	91.2
=	0.0	-16.5	50.0	93.1
=	0.0	-16.1	50.0	95.1
=	0.0	-15.9	50.0	96.0
=	0.0	-15.5	50.0	97.1
=	0.0	-15.1	50.0	98.0
=	0.0	-14.9	50.0	98.3
=	0.0	-14.5	50.0	98.9
=	0.0	-14.1	50.0	99.3
=	0.0	-13.7	50.0	99.7
=	0.0	-13.2	50.0	100.1
=	0.0	-12.8	50.0	100.3
=	0.0	-12.4	50.0	100.3
=	0.0	-12.1	50.0	100.4
=	0.0	-11.8	50.0	100.5
=	0.0	-11.4	50.0	100.5
=	0.0	-11.1	50.0	100.6
=	0.0	-10.6	50.0	100.7
=	0.0	-10.2	50.0	100.7
=	0.0	-9.8	50.0	100.7
=	0.0	-9.4	50.0	100.8
=	0.0	-9.0	50.0	100.8
=	0.0	-8.6	50.0	100.8
=	0.0	-8.2	50.0	100.8
=	0.0	-7.9	50.0	100.8
=	0.0	-7.6	50.0	100.8
=	0.0	-7.2	50.0	100.8
=	0.0	-6.8	50.0	100.8
=	0.0	-6.5	50.0	100.7
=	0.0	-6.1	50.0	100.7
=	0.0	-5.8	50.0	100.7
=	0.0	-5.4	50.0	100.6
=	0.0	-5.0	50.0	100.6
=	0.0	-4.7	50.0	100.6
=	0.0	-4.3	50.0	100.5
=	0.0	-3.9	50.0	100.5
=	0.0	-3.5	50.0	100.5
=	0.0	-3.1	50.0	100.4
=	0.0	-2.7	50.0	100.4
=	0.0	-2.3	50.0	100.3
=	0.0	-1.9	50.0	100.3
=	0.0	-1.7	50.0	100.2
=	0.0	-1.3	50.0	100.2
=	0.0	-0.9	50.0	100.2
=	0.0	-0.4	50.0	100.1
=	0.0	-0.1	50.0	100.0
=	0.0	0.4	50.0	99.9
=	0.0	0.8	50.0	99.9
=	0.0	1.1	50.0	99.8
=	0.0	1.5	50.0	99.8
=	0.0	1.8	50.0	99.7
=	0.0	2.2	50.0	99.7
=	0.0	2.6	50.0	99.6
=	0.0	3.0	50.0	99.6
=	0.0	3.4	50.0	99.6
=	0.0	3.6	50.0	99.5
=	0.0	4.0	50.0	99.5
=	0.0	4.4	50.0	99.4
=	0.0	4.9	50.0	99.2
=	0.0	5.3	50.0	99.2
=	0.0	5.7	50.0	99.1
=	0.0	6.1	50.0	98.9
=	0.0	6.4	50.0	98.9
=	0.0	6.7	50.0	98.9
=	0.0	7.1	50.0	98.8
=	0.0	7.5	50.0	98.8
=	0.0	7.9	50.0	98.7
=	0.0	8.3	50.0	98.5
=	0.0	8.6	50.0	98.4
=	0.0	8.9	50.0	98.3
=	0.0	9.1	50.0	98.2
=	0.0	9.5	50.0	98.1
=	0.0	9.7	50.0	98.1
=	0.0	10.1	50.0	98.0
=	0.0	10.5	50.0	97.9
=	0.0	10.9	50.0	97.7
=	0.0	11.4	50.0	97.5
=	0.0	11.8	50.0	97.3
=	0.0	12.1	50.0	97.1
=	0.0	12.5	50.0	96.9
=	0.0	12.8	50.0	96.7
=	0.0	13.2	50.0	96.5
=	0.0	13.5	50.0	96.2
=	0.0	13.8	50.0	96.0
=	0.0	14.2	50.0	95.6
=	0.0	14.6	50.0	95.0
=	0.0	15.0	50.0	94.4
=	0.0	15.4	50.0	93.7
=	0.0	15.8	50.0	92.5
=	0.0	16.2	50.0	91.2
=	0.0	16.6	50.0	89.3
=	0.0	17.0	50.0	87.4
=	0.0	17.4	50.0	84.6
=	0.0	17.9	50.0	81.2
=	0.0	18.3	50.0	77.7
=	0.0	18.7	50.0	73.5
=	0.0	19.1	50.0	68.5
=	0.0	19.5	50.0	64.0
=	0.0	19.9	50.0	59.0
=	0.0	20.3	50.0	54.4
=	0.0	20.7	50.0	49.5
=	0.0	21.1	50.0	44.3
=	0.0	21.4	50.0	40.5
=	0.0	21.9	50.0	34.8
=	0.0	22.3	50.0	30.6
=	0.0	22.7	50.0	26.2
=	0.0	23.1	50.0	22.0
=	0.0	23.5	50.0	19.0
=	0.0	24.0	50.0	15.5
=	0.0	24.3	50.0	13.3
=	0.0	24.6	50.0	12.0
=	0.0	25.0	50.0	10.3
=	0.0	25.3	50.0	9.2
=	0.0	25.7	50.0	8.2
=	0.0	26.2	50.0	7.3
=	0.0	26.5	50.0	6.8
=	0.0	26.8	50.0	6.4
=	0.0	27.2	50.0	6.0
=	0.0	27.5	50.0	5.7
=	0.0	27.8	50.0	5.4
=	0.0	28.2	50.0	5.2
=	0.0	28.5	50.0	5.0
=	0.0	29.0	50.0	4.7
=	0.0	29.4	50.0	4.6
=	0.0	29.7	50.0	4.5
=	0.0	30.0	50.0	4.3
=	0.0	30.4	50.0	4.2
=	0.0	30.7	50.0	4.1
=	0.0	31.0	50.0	4.0
=	0.0	31.4	50.0	3.9
=	0.0	31.7	50.0	3.8
=	0.0	32.0	50.0	3.7
=	0.0	32.4	50.0	3.7
=	0.0	32.6	50.0	3.6
=	0.0	33.0	50.0	3.5
=	0.0	33.4	50.0	3.5
=	0.0	33.7	50.0	3.4
=	0.0	34.1	50.0	3.3
=	0.0	34.5	50.0	3.3
=	0.0	34.9	50.0	3.2
=	0.0	35.3	50.0	3.1
=	0.0	35.6	50.0	3.1
=	0.0	35.9	50.0	3.0
=	0.0	36.3	50.0	3.0
=	0.0	36.6	50.0	2.9
=	0.0	36.9	50.0	2.9
=	0.0	37.3	50.0	2.8
=	0.0	37.6	50.0	2.8
=	0.0	37.9	50.0	2.7
=	0.0	38.3	50.0	2.7
=	0.0	38.6	50.0	2.7
=	0.0	38.9	50.0	2.6
=	0.0	39.3	50.0	2.5
=	0.0	39.7	50.0	2.5
=	0.0	40.1	50.0	2.4
=	0.0	40.5	50.0	2.4
=	0.0	40.8	50.0	2.4
=	0.0	41.1	50.0	2.3
=	0.0	41.5	50.0	2.3
=	0.0	41.7	50.0	2.3
=	0.0	42.2	50.0	2.2
=	0.0	42.6	50.0	2.2
=	0.0	43.0	50.0	2.2
=	0.0	43.4	50.0	2.1
=	0.0	43.7	50.0	2.1
=	0.0	44.2	50.0	2.0
=	0.0	44.5	50.0	2.0
=	0.0	45.0	50.0	2.0
=	0.0	45.4	50.0	1.9
=	0.0	45.7	50.0	1.9
=	0.0	46.2	50.0	1.9
=	0.0	46.6	50.0	1.9
=	0.0	47.0	50.0	1.8
=	0.0	47.5	50.0	1.8
=	0.0	47.8	50.0	1.8
=	0.0	48.2	50.0	1.8
=	0.0	48.6	50.0	1.7
=	0.0	49.0	50.0	1.7
=	0.0	49.5	50.0	1.7
=	0.0	49.7	50.0	1.7
=	0.0	50.1	50.0	1.6
=	0.0	50.5	50.0	1.6
=	0.0	50.8	50.0	1.6
=	0.0	51.3	50.0	1.6
=	0.0	51.7	50.0	1.6
=	0.0	52.1	50.0	1.5
=	0.0	52.5	50.0	1.5
=	0.0	52.8	50.0	1.5
=	0.0	53.1	50.0	1.5
=	0.0	53.5	50.0	1.5
=	0.0	53.8	50.0	1.5
=	0.0	54.1	50.0	1.4
=	0.0	54.5	50.0	1.4
=	0.0	54.9	50.0	1.4
=	0.0	55.3	50.0	1.4
=	0.0	55.8	50.0	1.4
=	0.0	56.1	50.0	1.4
=	0.0	56.6	50.0	1.4
=	0.0	56.9	50.0	1.3
=	0.0	57.4	50.0	1.3
=	0.0	57.8	50.0	1.3
=	0.0	58.0	50.0	1.3
=	0.0	58.4	50.0	1.3
=	0.0	58.8	50.0	1.3
=	0.0	59.2	50.0	1.3
=	0.0	59.6	50.0	1.2
=	0.0	60.0	50.0	1.2
=	0.0	60.4	50.0	1.2
=	0.0	60.8	50.0	1.2
=	0.0	61.2	50.0	1.2
=	0.0	61.6	50.0	1.2
=	0.0	62.1	50.0	1.2
=	0.0	62.4	50.0	1.2
=	0.0	62.7	50.0	1.2
=	0.0	63.1	50.0	1.2
=	0.0	63.5	50.0	1.1
=	0.0	63.9	50.0	1.1
=	0.0	64.2	50.0	1.1
=	0.0	64.7	50.0	1.1
=	0.0	65.1	50.0	1.1
=	0.0	65.5	50.0	1.1
=	0.0	65.9	50.0	1.1
=	0.0	66.3	50.0	1.1
=	0.0	66.7	50.0	1.1
=	0.0	67.2	50.0	1.1
=	0.0	67.5	50.0	1.1
=	0.0	68.0	50.0	1.0
=	0.0	68.3	50.0	1.0
=	0.0	68.6	50.0	1.0
=	0.0	69.0	50.0	1.0
=	0.0	69.4	50.0	1.0
=	0.0	69.6	50.0	1.0
=	0.0	70.0	50.0	1.0
=	0.0	70.4	50.0	1.0
=	0.0	70.7	50.0	1.0
=	0.0	71.0	50.0	1.0
=	0.0	71.4	50.0	1.0
=	0.0	71.8	50.0	1.0
=	0.0	72.3	50.0	1.0
=	0.0	72.6	50.0	1.0
=	0.0	72.8	50.0	1.0
=	0.0	73.3	50.0	0.9
=	0.0	73.7	50.0	0.9
=	0.0	74.0	50.0	0.9
=	0.0	74.5	50.0	0.9
=	0.0	74.9	50.0	0.9
=	0.0	75.1	50.0	0.9
=	0.0	75.5	50.0	0.9
=	0.0	75.9	50.0	0.9
=	0.0	76.3	50.0	0.9
