:MSR 	5	 # No. of measurement in file
:SYS BDS 0   # Beam Data Scanner System
#
# RFA300 ASCII Measurement Dump ( BDS format )
#
# Measurement number 	1
#
%VNR 1.0
%MOD 	RAT
%TYP 	SCN
%SCN 	DPT
%FLD 	ION
%DAT 	02-03-2012
%TIM 	12:00:00
%FSZ 	040	040
%BMT 	PHO	   4.0
%SSD 	0800
%BUP 	0
%BRD 	0800
%FSH 	1
%ASC 	0
%WEG 	15
%GPO 	0
%CPO 	0
%MEA 	5
%PRD 	0,0
%PTS 	718
%STS 	    0.0	  0.0	   0.0 # Start Scan values in mm ( X , Y , Z )
%EDS 	    0.0	   0.0	   347.9 # End Scan values in mm ( X , Y , Z )
#
#	  X      Y      Z     Dose
#
=	0.0	0.0	0.0	56.2
=	0.0	0.0	0.4	57.7
=	0.0	0.0	0.9	60.0
=	0.0	0.0	1.4	62.8
=	0.0	0.0	1.8	65.5
=	0.0	0.0	2.0	67.9
=	0.0	0.0	2.5	72.5
=	0.0	0.0	3.1	79.0
=	0.0	0.0	3.6	83.0
=	0.0	0.0	3.9	85.3
=	0.0	0.0	4.4	88.5
=	0.0	0.0	5.1	91.7
=	0.0	0.0	5.6	93.6
=	0.0	0.0	6.0	94.7
=	0.0	0.0	6.3	95.8
=	0.0	0.0	6.7	96.8
=	0.0	0.0	7.4	98.0
=	0.0	0.0	7.9	98.6
=	0.0	0.0	8.3	99.1
=	0.0	0.0	8.8	99.5
=	0.0	0.0	9.5	99.9
=	0.0	0.0	9.9	100.0
=	0.0	0.0	10.4	100.0
=	0.0	0.0	11.0	100.0
=	0.0	0.0	11.5	100.0
=	0.0	0.0	11.9	100.0
=	0.0	0.0	12.3	99.9
=	0.0	0.0	13.2	99.7
=	0.0	0.0	13.7	99.5
=	0.0	0.0	14.1	99.3
=	0.0	0.0	14.8	99.0
=	0.0	0.0	15.5	98.6
=	0.0	0.0	16.0	98.3
=	0.0	0.0	16.4	98.1
=	0.0	0.0	17.2	97.6
=	0.0	0.0	17.7	97.3
=	0.0	0.0	18.2	97.2
=	0.0	0.0	18.8	96.7
=	0.0	0.0	19.5	96.3
=	0.0	0.0	20.0	96.0
=	0.0	0.0	20.5	95.8
=	0.0	0.0	20.9	95.5
=	0.0	0.0	21.4	95.1
=	0.0	0.0	21.7	95.0
=	0.0	0.0	22.4	94.6
=	0.0	0.0	23.2	94.0
=	0.0	0.0	23.6	93.8
=	0.0	0.0	23.8	93.7
=	0.0	0.0	24.2	93.4
=	0.0	0.0	24.9	93.0
=	0.0	0.0	25.4	92.7
=	0.0	0.0	25.8	92.5
=	0.0	0.0	26.3	92.2
=	0.0	0.0	26.6	92.0
=	0.0	0.0	27.1	91.7
=	0.0	0.0	27.5	91.5
=	0.0	0.0	27.8	91.3
=	0.0	0.0	28.3	91.0
=	0.0	0.0	28.8	90.7
=	0.0	0.0	29.3	90.4
=	0.0	0.0	29.6	90.1
=	0.0	0.0	30.1	89.9
=	0.0	0.0	30.6	89.6
=	0.0	0.0	31.1	89.3
=	0.0	0.0	31.7	89.0
=	0.0	0.0	32.1	88.6
=	0.0	0.0	32.5	88.4
=	0.0	0.0	32.9	88.2
=	0.0	0.0	33.4	87.9
=	0.0	0.0	33.9	87.6
=	0.0	0.0	34.2	87.4
=	0.0	0.0	34.5	87.3
=	0.0	0.0	35.0	87.0
=	0.0	0.0	35.5	86.7
=	0.0	0.0	35.9	86.4
=	0.0	0.0	36.2	86.1
=	0.0	0.0	36.6	86.0
=	0.0	0.0	37.0	85.9
=	0.0	0.0	37.4	85.6
=	0.0	0.0	37.9	85.2
=	0.0	0.0	38.4	85.0
=	0.0	0.0	38.7	84.8
=	0.0	0.0	39.2	84.5
=	0.0	0.0	39.7	84.2
=	0.0	0.0	40.2	83.9
=	0.0	0.0	40.6	83.7
=	0.0	0.0	41.0	83.4
=	0.0	0.0	41.5	83.1
=	0.0	0.0	41.9	82.8
=	0.0	0.0	42.3	82.6
=	0.0	0.0	42.6	82.5
=	0.0	0.0	43.0	82.2
=	0.0	0.0	43.5	81.9
=	0.0	0.0	44.0	81.8
=	0.0	0.0	44.3	81.6
=	0.0	0.0	44.6	81.3
=	0.0	0.0	45.1	81.1
=	0.0	0.0	45.5	80.9
=	0.0	0.0	46.0	80.7
=	0.0	0.0	46.4	80.4
=	0.0	0.0	46.8	80.1
=	0.0	0.0	47.3	79.8
=	0.0	0.0	47.8	79.6
=	0.0	0.0	48.2	79.4
=	0.0	0.0	48.7	79.1
=	0.0	0.0	49.4	78.7
=	0.0	0.0	49.8	78.5
=	0.0	0.0	50.3	78.2
=	0.0	0.0	50.7	78.0
=	0.0	0.0	51.3	77.6
=	0.0	0.0	51.7	77.3
=	0.0	0.0	52.2	77.1
=	0.0	0.0	52.9	76.7
=	0.0	0.0	53.4	76.6
=	0.0	0.0	53.8	76.4
=	0.0	0.0	54.2	76.1
=	0.0	0.0	54.9	75.7
=	0.0	0.0	55.3	75.6
=	0.0	0.0	55.8	75.2
=	0.0	0.0	56.3	75.0
=	0.0	0.0	57.1	74.6
=	0.0	0.0	57.6	74.3
=	0.0	0.0	58.2	73.9
=	0.0	0.0	59.1	73.4
=	0.0	0.0	59.6	73.2
=	0.0	0.0	60.1	73.0
=	0.0	0.0	60.7	72.6
=	0.0	0.0	61.4	72.2
=	0.0	0.0	61.9	72.0
=	0.0	0.0	62.3	71.8
=	0.0	0.0	63.0	71.3
=	0.0	0.0	63.5	71.1
=	0.0	0.0	63.9	70.8
=	0.0	0.0	64.4	70.5
=	0.0	0.0	65.2	70.2
=	0.0	0.0	65.7	70.0
=	0.0	0.0	66.1	69.8
=	0.0	0.0	66.6	69.6
=	0.0	0.0	67.1	69.3
=	0.0	0.0	67.5	69.1
=	0.0	0.0	68.0	68.7
=	0.0	0.0	68.4	68.5
=	0.0	0.0	68.9	68.4
=	0.0	0.0	69.4	68.2
=	0.0	0.0	69.8	68.0
=	0.0	0.0	70.2	67.8
=	0.0	0.0	70.6	67.5
=	0.0	0.0	71.1	67.3
=	0.0	0.0	71.7	67.0
=	0.0	0.0	72.0	66.8
=	0.0	0.0	72.5	66.6
=	0.0	0.0	72.9	66.4
=	0.0	0.0	73.4	66.1
=	0.0	0.0	73.9	65.9
=	0.0	0.0	74.3	65.7
=	0.0	0.0	74.7	65.5
=	0.0	0.0	75.1	65.3
=	0.0	0.0	75.7	65.2
=	0.0	0.0	76.2	64.9
=	0.0	0.0	76.5	64.6
=	0.0	0.0	76.9	64.4
=	0.0	0.0	77.4	64.3
=	0.0	0.0	77.9	64.0
=	0.0	0.0	78.4	63.7
=	0.0	0.0	78.7	63.6
=	0.0	0.0	79.2	63.4
=	0.0	0.0	79.8	63.1
=	0.0	0.0	80.3	62.9
=	0.0	0.0	80.6	62.7
=	0.0	0.0	81.0	62.4
=	0.0	0.0	81.5	62.3
=	0.0	0.0	82.0	62.1
=	0.0	0.0	82.5	61.9
=	0.0	0.0	82.8	61.9
=	0.0	0.0	83.2	61.7
=	0.0	0.0	83.6	61.5
=	0.0	0.0	83.9	61.3
=	0.0	0.0	84.3	61.1
=	0.0	0.0	84.8	60.8
=	0.0	0.0	85.3	60.7
=	0.0	0.0	85.8	60.6
=	0.0	0.0	86.1	60.5
=	0.0	0.0	86.5	60.2
=	0.0	0.0	87.0	60.0
=	0.0	0.0	87.3	59.8
=	0.0	0.0	87.8	59.6
=	0.0	0.0	88.1	59.4
=	0.0	0.0	88.6	59.2
=	0.0	0.0	89.1	59.0
=	0.0	0.0	89.6	58.7
=	0.0	0.0	90.0	58.6
=	0.0	0.0	90.3	58.5
=	0.0	0.0	90.8	58.3
=	0.0	0.0	91.2	58.2
=	0.0	0.0	91.6	58.1
=	0.0	0.0	92.0	57.9
=	0.0	0.0	92.4	57.7
=	0.0	0.0	92.9	57.5
=	0.0	0.0	93.4	57.4
=	0.0	0.0	93.8	57.1
=	0.0	0.0	94.2	57.0
=	0.0	0.0	94.7	56.7
=	0.0	0.0	95.2	56.5
=	0.0	0.0	95.6	56.3
=	0.0	0.0	96.0	56.2
=	0.0	0.0	96.4	56.0
=	0.0	0.0	96.9	55.8
=	0.0	0.0	97.4	55.7
=	0.0	0.0	97.9	55.5
=	0.0	0.0	98.2	55.3
=	0.0	0.0	98.5	55.2
=	0.0	0.0	98.9	55.0
=	0.0	0.0	99.4	54.9
=	0.0	0.0	99.9	54.7
=	0.0	0.0	100.2	54.5
=	0.0	0.0	100.5	54.4
=	0.0	0.0	100.9	54.2
=	0.0	0.0	101.4	54.0
=	0.0	0.0	101.9	53.8
=	0.0	0.0	102.2	53.7
=	0.0	0.0	102.5	53.6
=	0.0	0.0	103.0	53.4
=	0.0	0.0	103.5	53.2
=	0.0	0.0	103.9	53.0
=	0.0	0.0	104.4	52.8
=	0.0	0.0	104.7	52.7
=	0.0	0.0	105.2	52.5
=	0.0	0.0	105.7	52.4
=	0.0	0.0	106.1	52.1
=	0.0	0.0	106.4	52.0
=	0.0	0.0	106.7	51.9
=	0.0	0.0	107.0	51.9
=	0.0	0.0	107.5	51.7
=	0.0	0.0	108.0	51.5
=	0.0	0.0	108.3	51.4
=	0.0	0.0	108.6	51.2
=	0.0	0.0	109.0	51.1
=	0.0	0.0	109.5	51.0
=	0.0	0.0	110.0	50.8
=	0.0	0.0	110.5	50.6
=	0.0	0.0	110.8	50.5
=	0.0	0.0	111.1	50.3
=	0.0	0.0	111.5	50.1
=	0.0	0.0	112.0	49.9
=	0.0	0.0	112.4	49.8
=	0.0	0.0	112.9	49.7
=	0.0	0.0	113.6	49.5
=	0.0	0.0	114.3	49.2
=	0.0	0.0	114.7	49.0
=	0.0	0.0	115.2	48.8
=	0.0	0.0	116.0	48.5
=	0.0	0.0	116.5	48.4
=	0.0	0.0	116.9	48.3
=	0.0	0.0	117.6	48.0
=	0.0	0.0	118.3	47.8
=	0.0	0.0	118.8	47.6
=	0.0	0.0	119.2	47.4
=	0.0	0.0	119.7	47.3
=	0.0	0.0	120.4	47.0
=	0.0	0.0	120.8	46.9
=	0.0	0.0	121.2	46.7
=	0.0	0.0	121.7	46.6
=	0.0	0.0	122.2	46.4
=	0.0	0.0	122.7	46.2
=	0.0	0.0	123.0	46.1
=	0.0	0.0	123.4	46.0
=	0.0	0.0	124.0	45.8
=	0.0	0.0	124.5	45.7
=	0.0	0.0	124.8	45.6
=	0.0	0.0	125.1	45.5
=	0.0	0.0	125.5	45.3
=	0.0	0.0	126.0	45.1
=	0.0	0.0	126.5	45.0
=	0.0	0.0	126.8	44.9
=	0.0	0.0	127.3	44.8
=	0.0	0.0	127.7	44.6
=	0.0	0.0	128.3	44.4
=	0.0	0.0	128.8	44.2
=	0.0	0.0	129.3	44.0
=	0.0	0.0	129.8	43.9
=	0.0	0.0	130.3	43.7
=	0.0	0.0	130.8	43.6
=	0.0	0.0	131.3	43.4
=	0.0	0.0	131.7	43.3
=	0.0	0.0	132.1	43.2
=	0.0	0.0	132.6	43.1
=	0.0	0.0	133.1	42.9
=	0.0	0.0	133.5	42.7
=	0.0	0.0	134.0	42.6
=	0.0	0.0	134.4	42.4
=	0.0	0.0	134.9	42.3
=	0.0	0.0	135.3	42.2
=	0.0	0.0	135.8	42.1
=	0.0	0.0	136.2	41.9
=	0.0	0.0	136.9	41.7
=	0.0	0.0	137.4	41.6
=	0.0	0.0	137.8	41.5
=	0.0	0.0	138.7	41.3
=	0.0	0.0	139.1	41.1
=	0.0	0.0	139.6	41.0
=	0.0	0.0	140.2	40.8
=	0.0	0.0	141.0	40.6
=	0.0	0.0	141.4	40.5
=	0.0	0.0	141.9	40.3
=	0.0	0.0	142.3	40.2
=	0.0	0.0	143.0	40.0
=	0.0	0.0	143.4	39.9
=	0.0	0.0	143.9	39.7
=	0.0	0.0	144.3	39.6
=	0.0	0.0	145.0	39.4
=	0.0	0.0	145.4	39.3
=	0.0	0.0	145.9	39.2
=	0.0	0.0	146.3	39.1
=	0.0	0.0	147.0	38.8
=	0.0	0.0	147.5	38.7
=	0.0	0.0	147.9	38.6
=	0.0	0.0	148.4	38.5
=	0.0	0.0	149.2	38.3
=	0.0	0.0	149.7	38.2
=	0.0	0.0	150.1	38.0
=	0.0	0.0	150.8	37.8
=	0.0	0.0	151.5	37.7
=	0.0	0.0	151.9	37.6
=	0.0	0.0	152.4	37.4
=	0.0	0.0	153.2	37.2
=	0.0	0.0	153.7	37.0
=	0.0	0.0	154.2	37.0
=	0.0	0.0	154.8	36.8
=	0.0	0.0	155.3	36.6
=	0.0	0.0	155.7	36.5
=	0.0	0.0	156.1	36.4
=	0.0	0.0	156.9	36.2
=	0.0	0.0	157.6	36.0
=	0.0	0.0	158.0	35.9
=	0.0	0.0	158.4	35.8
=	0.0	0.0	158.9	35.7
=	0.0	0.0	159.4	35.6
=	0.0	0.0	159.9	35.5
=	0.0	0.0	160.2	35.4
=	0.0	0.0	160.5	35.3
=	0.0	0.0	160.9	35.1
=	0.0	0.0	161.4	35.1
=	0.0	0.0	161.9	35.0
=	0.0	0.0	162.2	34.9
=	0.0	0.0	162.5	34.9
=	0.0	0.0	163.0	34.7
=	0.0	0.0	163.4	34.6
=	0.0	0.0	163.9	34.5
=	0.0	0.0	164.2	34.4
=	0.0	0.0	164.5	34.3
=	0.0	0.0	165.0	34.3
=	0.0	0.0	165.4	34.1
=	0.0	0.0	165.9	34.0
=	0.0	0.0	166.2	33.9
=	0.0	0.0	166.7	33.8
=	0.0	0.0	167.2	33.7
=	0.0	0.0	167.7	33.6
=	0.0	0.0	168.2	33.5
=	0.0	0.0	168.6	33.4
=	0.0	0.0	169.0	33.3
=	0.0	0.0	169.5	33.1
=	0.0	0.0	170.2	33.0
=	0.0	0.0	170.6	32.9
=	0.0	0.0	171.1	32.8
=	0.0	0.0	171.5	32.7
=	0.0	0.0	172.4	32.5
=	0.0	0.0	172.8	32.4
=	0.0	0.0	173.3	32.3
=	0.0	0.0	173.9	32.1
=	0.0	0.0	174.6	31.9
=	0.0	0.0	175.1	31.8
=	0.0	0.0	175.5	31.8
=	0.0	0.0	176.0	31.7
=	0.0	0.0	176.7	31.5
=	0.0	0.0	177.1	31.4
=	0.0	0.0	177.6	31.3
=	0.0	0.0	178.0	31.2
=	0.0	0.0	178.7	31.1
=	0.0	0.0	179.1	30.9
=	0.0	0.0	179.6	30.8
=	0.0	0.0	180.1	30.8
=	0.0	0.0	180.7	30.6
=	0.0	0.0	181.2	30.5
=	0.0	0.0	181.6	30.4
=	0.0	0.0	182.1	30.4
=	0.0	0.0	182.9	30.2
=	0.0	0.0	183.4	30.1
=	0.0	0.0	183.8	30.0
=	0.0	0.0	184.3	29.9
=	0.0	0.0	184.8	29.8
=	0.0	0.0	185.2	29.7
=	0.0	0.0	185.7	29.6
=	0.0	0.0	186.1	29.5
=	0.0	0.0	186.6	29.4
=	0.0	0.0	187.0	29.3
=	0.0	0.0	187.4	29.3
=	0.0	0.0	187.7	29.2
=	0.0	0.0	188.1	29.1
=	0.0	0.0	188.6	29.0
=	0.0	0.0	189.0	28.9
=	0.0	0.0	189.4	28.8
=	0.0	0.0	189.9	28.7
=	0.0	0.0	190.4	28.6
=	0.0	0.0	190.8	28.5
=	0.0	0.0	191.3	28.4
=	0.0	0.0	191.7	28.3
=	0.0	0.0	192.1	28.3
=	0.0	0.0	192.6	28.2
=	0.0	0.0	193.1	28.1
=	0.0	0.0	193.4	28.1
=	0.0	0.0	193.7	28.0
=	0.0	0.0	194.1	27.9
=	0.0	0.0	194.6	27.8
=	0.0	0.0	195.1	27.7
=	0.0	0.0	195.5	27.6
=	0.0	0.0	196.0	27.5
=	0.0	0.0	196.6	27.4
=	0.0	0.0	197.3	27.2
=	0.0	0.0	197.8	27.2
=	0.0	0.0	198.2	27.1
=	0.0	0.0	198.7	27.0
=	0.0	0.0	199.5	26.9
=	0.0	0.0	200.0	26.8
=	0.0	0.0	200.4	26.7
=	0.0	0.0	201.1	26.6
=	0.0	0.0	201.6	26.5
=	0.0	0.0	202.0	26.4
=	0.0	0.0	202.4	26.4
=	0.0	0.0	203.1	26.2
=	0.0	0.0	203.8	26.1
=	0.0	0.0	204.3	26.0
=	0.0	0.0	204.7	25.9
=	0.0	0.0	205.5	25.8
=	0.0	0.0	206.0	25.7
=	0.0	0.0	206.5	25.6
=	0.0	0.0	207.1	25.5
=	0.0	0.0	207.9	25.3
=	0.0	0.0	208.3	25.3
=	0.0	0.0	208.8	25.2
=	0.0	0.0	209.6	25.1
=	0.0	0.0	210.1	25.0
=	0.0	0.0	210.5	24.9
=	0.0	0.0	211.2	24.8
=	0.0	0.0	211.9	24.7
=	0.0	0.0	212.4	24.6
=	0.0	0.0	212.8	24.5
=	0.0	0.0	213.3	24.4
=	0.0	0.0	213.9	24.3
=	0.0	0.0	214.4	24.2
=	0.0	0.0	214.8	24.1
=	0.0	0.0	215.3	24.1
=	0.0	0.0	216.0	23.9
=	0.0	0.0	216.4	23.9
=	0.0	0.0	216.8	23.8
=	0.0	0.0	217.3	23.8
=	0.0	0.0	218.1	23.7
=	0.0	0.0	218.6	23.6
=	0.0	0.0	219.1	23.5
=	0.0	0.0	219.7	23.4
=	0.0	0.0	220.2	23.3
=	0.0	0.0	220.6	23.2
=	0.0	0.0	221.1	23.1
=	0.0	0.0	221.6	23.1
=	0.0	0.0	222.1	23.0
=	0.0	0.0	222.5	22.9
=	0.0	0.0	222.9	22.8
=	0.0	0.0	223.3	22.8
=	0.0	0.0	223.8	22.7
=	0.0	0.0	224.3	22.6
=	0.0	0.0	224.6	22.6
=	0.0	0.0	224.9	22.5
=	0.0	0.0	225.4	22.4
=	0.0	0.0	226.1	22.3
=	0.0	0.0	226.5	22.2
=	0.0	0.0	227.0	22.2
=	0.0	0.0	227.4	22.2
=	0.0	0.0	227.9	22.1
=	0.0	0.0	228.7	22.0
=	0.0	0.0	229.1	21.9
=	0.0	0.0	229.8	21.8
=	0.0	0.0	230.6	21.7
=	0.0	0.0	231.0	21.6
=	0.0	0.0	231.4	21.6
=	0.0	0.0	232.0	21.5
=	0.0	0.0	232.4	21.4
=	0.0	0.0	232.9	21.4
=	0.0	0.0	233.2	21.3
=	0.0	0.0	233.7	21.2
=	0.0	0.0	234.2	21.2
=	0.0	0.0	234.7	21.1
=	0.0	0.0	235.0	21.0
=	0.0	0.0	235.4	21.0
=	0.0	0.0	235.9	20.9
=	0.0	0.0	236.4	20.8
=	0.0	0.0	236.9	20.8
=	0.0	0.0	237.2	20.7
=	0.0	0.0	237.7	20.7
=	0.0	0.0	238.2	20.6
=	0.0	0.0	238.7	20.5
=	0.0	0.0	239.2	20.5
=	0.0	0.0	239.5	20.4
=	0.0	0.0	240.0	20.3
=	0.0	0.0	240.5	20.3
=	0.0	0.0	240.9	20.2
=	0.0	0.0	241.4	20.2
=	0.0	0.0	241.7	20.1
=	0.0	0.0	242.2	20.1
=	0.0	0.0	242.7	20.0
=	0.0	0.0	243.2	19.9
=	0.0	0.0	243.6	19.9
=	0.0	0.0	244.0	19.8
=	0.0	0.0	244.5	19.8
=	0.0	0.0	245.0	19.6
=	0.0	0.0	245.4	19.6
=	0.0	0.0	245.7	19.6
=	0.0	0.0	246.0	19.5
=	0.0	0.0	246.5	19.5
=	0.0	0.0	247.0	19.5
=	0.0	0.0	247.4	19.4
=	0.0	0.0	247.7	19.3
=	0.0	0.0	248.1	19.2
=	0.0	0.0	248.5	19.2
=	0.0	0.0	249.2	19.1
=	0.0	0.0	249.6	19.0
=	0.0	0.0	249.9	19.0
=	0.0	0.0	250.3	19.0
=	0.0	0.0	250.8	18.9
=	0.0	0.0	251.2	18.9
=	0.0	0.0	251.6	18.8
=	0.0	0.0	251.9	18.8
=	0.0	0.0	252.3	18.7
=	0.0	0.0	252.8	18.6
=	0.0	0.0	253.3	18.6
=	0.0	0.0	253.7	18.5
=	0.0	0.0	254.1	18.5
=	0.0	0.0	254.5	18.4
=	0.0	0.0	255.0	18.4
=	0.0	0.0	255.5	18.3
=	0.0	0.0	256.0	18.2
=	0.0	0.0	256.3	18.2
=	0.0	0.0	256.6	18.2
=	0.0	0.0	257.1	18.1
=	0.0	0.0	257.5	18.0
=	0.0	0.0	258.0	18.0
=	0.0	0.0	258.4	17.9
=	0.0	0.0	258.8	17.9
=	0.0	0.0	259.5	17.8
=	0.0	0.0	260.2	17.8
=	0.0	0.0	260.6	17.7
=	0.0	0.0	261.1	17.7
=	0.0	0.0	261.5	17.6
=	0.0	0.0	262.2	17.5
=	0.0	0.0	262.7	17.5
=	0.0	0.0	263.1	17.4
=	0.0	0.0	264.0	17.3
=	0.0	0.0	264.7	17.2
=	0.0	0.0	265.1	17.2
=	0.0	0.0	265.6	17.1
=	0.0	0.0	266.4	17.0
=	0.0	0.0	266.9	17.0
=	0.0	0.0	267.3	16.9
=	0.0	0.0	268.0	16.8
=	0.0	0.0	268.7	16.8
=	0.0	0.0	269.2	16.7
=	0.0	0.0	269.6	16.7
=	0.0	0.0	270.5	16.6
=	0.0	0.0	270.9	16.5
=	0.0	0.0	271.4	16.4
=	0.0	0.0	272.1	16.4
=	0.0	0.0	272.7	16.3
=	0.0	0.0	273.2	16.3
=	0.0	0.0	273.7	16.2
=	0.0	0.0	274.4	16.2
=	0.0	0.0	274.8	16.1
=	0.0	0.0	275.2	16.1
=	0.0	0.0	275.7	16.0
=	0.0	0.0	276.5	15.9
=	0.0	0.0	277.0	15.9
=	0.0	0.0	277.5	15.8
=	0.0	0.0	277.9	15.8
=	0.0	0.0	278.5	15.7
=	0.0	0.0	278.9	15.7
=	0.0	0.0	279.3	15.6
=	0.0	0.0	279.5	15.6
=	0.0	0.0	279.9	15.6
=	0.0	0.0	280.6	15.5
=	0.0	0.0	281.1	15.4
=	0.0	0.0	281.4	15.4
=	0.0	0.0	281.7	15.4
=	0.0	0.0	282.2	15.3
=	0.0	0.0	282.7	15.2
=	0.0	0.0	283.1	15.2
=	0.0	0.0	283.4	15.2
=	0.0	0.0	283.8	15.2
=	0.0	0.0	284.2	15.1
=	0.0	0.0	284.7	15.1
=	0.0	0.0	285.1	15.1
=	0.0	0.0	285.5	15.0
=	0.0	0.0	286.0	14.9
=	0.0	0.0	286.5	14.9
=	0.0	0.0	287.1	14.8
=	0.0	0.0	287.6	14.8
=	0.0	0.0	288.0	14.7
=	0.0	0.0	288.5	14.7
=	0.0	0.0	289.1	14.6
=	0.0	0.0	289.8	14.6
=	0.0	0.0	290.3	14.5
=	0.0	0.0	290.8	14.5
=	0.0	0.0	291.6	14.4
=	0.0	0.0	292.0	14.3
=	0.0	0.0	292.5	14.3
=	0.0	0.0	293.1	14.2
=	0.0	0.0	293.9	14.2
=	0.0	0.0	294.3	14.2
=	0.0	0.0	294.7	14.1
=	0.0	0.0	295.2	14.0
=	0.0	0.0	295.8	14.0
=	0.0	0.0	296.3	13.9
=	0.0	0.0	296.6	13.9
=	0.0	0.0	297.0	13.9
=	0.0	0.0	297.6	13.8
=	0.0	0.0	298.1	13.8
=	0.0	0.0	298.5	13.7
=	0.0	0.0	299.0	13.7
=	0.0	0.0	299.7	13.6
=	0.0	0.0	300.1	13.6
=	0.0	0.0	300.6	13.5
=	0.0	0.0	301.2	13.5
=	0.0	0.0	302.0	13.5
=	0.0	0.0	302.4	13.4
=	0.0	0.0	302.8	13.4
=	0.0	0.0	303.3	13.3
=	0.0	0.0	304.1	13.3
=	0.0	0.0	304.6	13.2
=	0.0	0.0	305.1	13.2
=	0.0	0.0	305.7	13.1
=	0.0	0.0	306.4	13.1
=	0.0	0.0	306.9	13.0
=	0.0	0.0	307.3	13.0
=	0.0	0.0	308.2	12.9
=	0.0	0.0	308.6	12.9
=	0.0	0.0	309.1	12.9
=	0.0	0.0	309.7	12.8
=	0.0	0.0	310.5	12.8
=	0.0	0.0	310.9	12.7
=	0.0	0.0	311.3	12.6
=	0.0	0.0	311.8	12.6
=	0.0	0.0	312.5	12.6
=	0.0	0.0	312.9	12.5
=	0.0	0.0	313.4	12.5
=	0.0	0.0	313.8	12.5
=	0.0	0.0	314.5	12.4
=	0.0	0.0	314.9	12.3
=	0.0	0.0	315.4	12.3
=	0.0	0.0	315.8	12.3
=	0.0	0.0	316.5	12.2
=	0.0	0.0	316.9	12.2
=	0.0	0.0	317.2	12.2
=	0.0	0.0	317.6	12.1
=	0.0	0.0	318.2	12.1
=	0.0	0.0	318.7	12.0
=	0.0	0.0	319.2	12.0
=	0.0	0.0	319.6	12.0
=	0.0	0.0	320.1	12.0
=	0.0	0.0	320.7	11.9
=	0.0	0.0	321.2	11.9
=	0.0	0.0	321.6	11.8
=	0.0	0.0	322.1	11.8
=	0.0	0.0	322.7	11.7
=	0.0	0.0	323.2	11.7
=	0.0	0.0	323.7	11.7
=	0.0	0.0	324.3	11.6
=	0.0	0.0	325.0	11.6
=	0.0	0.0	325.5	11.6
=	0.0	0.0	325.9	11.5
=	0.0	0.0	326.4	11.5
=	0.0	0.0	327.0	11.4
=	0.0	0.0	327.5	11.4
=	0.0	0.0	328.0	11.4
=	0.0	0.0	328.4	11.3
=	0.0	0.0	329.1	11.3
=	0.0	0.0	329.5	11.2
=	0.0	0.0	330.0	11.2
=	0.0	0.0	330.4	11.2
=	0.0	0.0	331.1	11.1
=	0.0	0.0	331.5	11.1
=	0.0	0.0	332.0	11.1
=	0.0	0.0	332.4	11.0
=	0.0	0.0	333.1	11.0
=	0.0	0.0	333.6	10.9
=	0.0	0.0	334.0	10.9
=	0.0	0.0	334.5	10.9
=	0.0	0.0	335.3	10.8
=	0.0	0.0	335.8	10.8
=	0.0	0.0	336.2	10.8
=	0.0	0.0	336.9	10.7
=	0.0	0.0	337.6	10.6
=	0.0	0.0	338.1	10.6
=	0.0	0.0	338.5	10.6
=	0.0	0.0	339.0	10.6
=	0.0	0.0	339.6	10.5
=	0.0	0.0	340.1	10.5
=	0.0	0.0	340.5	10.5
=	0.0	0.0	341.0	10.5
=	0.0	0.0	341.7	10.4
=	0.0	0.0	342.1	10.4
=	0.0	0.0	342.5	10.4
=	0.0	0.0	343.0	10.3
=	0.0	0.0	343.7	10.3
=	0.0	0.0	344.3	10.2
=	0.0	0.0	344.8	10.2
=	0.0	0.0	345.2	10.2
=	0.0	0.0	345.7	10.1
=	0.0	0.0	346.0	10.1
=	0.0	0.0	346.4	10.1
=	0.0	0.0	346.9	10.0
=	0.0	0.0	347.4	10.0
=	0.0	0.0	347.9	10.0
:EOM # End of Measurement
#
# RFA300 ASCII Measurement Dump ( BDS format )
#
# Measurement number 	2
#
%VNR 1.0
%MOD 	RAT
%TYP 	SCN
%SCN 	DPT
%FLD 	ION
%DAT 	02-03-2012
%TIM 	12:00:00
%FSZ 	100	100
%BMT 	PHO	   4.0
%SSD 	0800
%BUP 	0
%BRD 	0800
%FSH 	1
%ASC 	0
%WEG 	15
%GPO 	0
%CPO 	0
%MEA 	5
%PRD 	0,0
%PTS 	714
%STS 	    0.0	  0.0	   0.0 # Start Scan values in mm ( X , Y , Z )
%EDS 	    0.0	   0.0	   348.1 # End Scan values in mm ( X , Y , Z )
#
#	  X      Y      Z     Dose
#
=	0.0	0.0	0.0	61.8
=	0.0	0.0	0.4	63.2
=	0.0	0.0	0.8	65.2
=	0.0	0.0	1.3	67.5
=	0.0	0.0	2.0	71.9
=	0.0	0.0	2.4	76.3
=	0.0	0.0	2.9	80.6
=	0.0	0.0	3.3	84.1
=	0.0	0.0	4.0	88.7
=	0.0	0.0	4.4	90.7
=	0.0	0.0	4.8	92.4
=	0.0	0.0	5.3	94.1
=	0.0	0.0	5.8	95.5
=	0.0	0.0	6.2	96.6
=	0.0	0.0	6.7	97.5
=	0.0	0.0	7.1	98.2
=	0.0	0.0	7.8	99.0
=	0.0	0.0	8.2	99.5
=	0.0	0.0	8.7	99.7
=	0.0	0.0	9.1	99.9
=	0.0	0.0	9.8	100.0
=	0.0	0.0	10.3	100.0
=	0.0	0.0	10.6	100.0
=	0.0	0.0	11.2	100.0
=	0.0	0.0	11.8	99.9
=	0.0	0.0	12.3	99.9
=	0.0	0.0	12.7	99.8
=	0.0	0.0	13.2	99.5
=	0.0	0.0	13.8	99.4
=	0.0	0.0	14.5	99.2
=	0.0	0.0	15.0	98.9
=	0.0	0.0	15.4	98.8
=	0.0	0.0	16.3	98.3
=	0.0	0.0	16.7	98.0
=	0.0	0.0	17.4	97.7
=	0.0	0.0	18.1	97.4
=	0.0	0.0	18.6	97.2
=	0.0	0.0	19.0	97.0
=	0.0	0.0	19.5	96.8
=	0.0	0.0	20.1	96.4
=	0.0	0.0	20.6	96.2
=	0.0	0.0	20.9	96.1
=	0.0	0.0	21.2	95.8
=	0.0	0.0	21.7	95.4
=	0.0	0.0	22.2	95.3
=	0.0	0.0	22.6	95.1
=	0.0	0.0	23.0	94.9
=	0.0	0.0	23.5	94.7
=	0.0	0.0	24.0	94.5
=	0.0	0.0	24.4	94.3
=	0.0	0.0	24.8	94.1
=	0.0	0.0	25.2	93.8
=	0.0	0.0	25.8	93.5
=	0.0	0.0	26.2	93.2
=	0.0	0.0	26.6	93.0
=	0.0	0.0	27.1	92.8
=	0.0	0.0	27.5	92.6
=	0.0	0.0	28.0	92.4
=	0.0	0.0	28.5	92.1
=	0.0	0.0	28.9	91.9
=	0.0	0.0	29.3	91.7
=	0.0	0.0	29.8	91.4
=	0.0	0.0	30.3	91.2
=	0.0	0.0	30.7	91.0
=	0.0	0.0	31.1	90.8
=	0.0	0.0	31.6	90.6
=	0.0	0.0	32.1	90.3
=	0.0	0.0	32.6	90.0
=	0.0	0.0	33.1	89.8
=	0.0	0.0	33.6	89.7
=	0.0	0.0	34.1	89.3
=	0.0	0.0	34.7	89.1
=	0.0	0.0	35.1	88.9
=	0.0	0.0	35.6	88.6
=	0.0	0.0	36.1	88.3
=	0.0	0.0	36.5	88.0
=	0.0	0.0	36.9	87.9
=	0.0	0.0	37.4	87.7
=	0.0	0.0	37.9	87.4
=	0.0	0.0	38.4	87.2
=	0.0	0.0	38.7	87.0
=	0.0	0.0	39.2	86.8
=	0.0	0.0	39.5	86.6
=	0.0	0.0	40.0	86.4
=	0.0	0.0	40.5	86.1
=	0.0	0.0	40.9	85.9
=	0.0	0.0	41.4	85.7
=	0.0	0.0	41.7	85.6
=	0.0	0.0	42.1	85.4
=	0.0	0.0	42.8	85.0
=	0.0	0.0	43.2	84.8
=	0.0	0.0	43.6	84.6
=	0.0	0.0	44.0	84.4
=	0.0	0.0	44.5	84.2
=	0.0	0.0	45.0	83.9
=	0.0	0.0	45.3	83.7
=	0.0	0.0	45.6	83.5
=	0.0	0.0	46.1	83.3
=	0.0	0.0	46.8	83.1
=	0.0	0.0	47.2	82.8
=	0.0	0.0	47.7	82.6
=	0.0	0.0	48.5	82.1
=	0.0	0.0	49.0	81.9
=	0.0	0.0	49.4	81.7
=	0.0	0.0	49.9	81.5
=	0.0	0.0	50.5	81.2
=	0.0	0.0	50.9	81.0
=	0.0	0.0	51.6	80.7
=	0.0	0.0	52.0	80.4
=	0.0	0.0	52.5	80.3
=	0.0	0.0	52.9	80.1
=	0.0	0.0	53.6	79.7
=	0.0	0.0	54.1	79.5
=	0.0	0.0	54.5	79.3
=	0.0	0.0	55.0	79.1
=	0.0	0.0	55.4	78.9
=	0.0	0.0	56.1	78.6
=	0.0	0.0	56.6	78.3
=	0.0	0.0	57.0	78.1
=	0.0	0.0	57.7	77.8
=	0.0	0.0	58.1	77.6
=	0.0	0.0	58.5	77.4
=	0.0	0.0	59.0	77.2
=	0.0	0.0	59.7	76.8
=	0.0	0.0	60.2	76.6
=	0.0	0.0	60.5	76.5
=	0.0	0.0	61.1	76.2
=	0.0	0.0	61.6	75.9
=	0.0	0.0	62.1	75.7
=	0.0	0.0	62.4	75.5
=	0.0	0.0	62.9	75.4
=	0.0	0.0	63.2	75.2
=	0.0	0.0	63.7	75.0
=	0.0	0.0	64.2	74.7
=	0.0	0.0	64.6	74.4
=	0.0	0.0	65.1	74.2
=	0.0	0.0	65.5	74.1
=	0.0	0.0	65.8	74.0
=	0.0	0.0	66.2	73.7
=	0.0	0.0	66.6	73.5
=	0.0	0.0	67.1	73.4
=	0.0	0.0	67.5	73.2
=	0.0	0.0	68.0	72.9
=	0.0	0.0	68.5	72.7
=	0.0	0.0	68.9	72.5
=	0.0	0.0	69.3	72.3
=	0.0	0.0	69.8	72.1
=	0.0	0.0	70.3	71.9
=	0.0	0.0	70.9	71.6
=	0.0	0.0	71.4	71.4
=	0.0	0.0	71.9	71.2
=	0.0	0.0	72.7	70.9
=	0.0	0.0	73.2	70.6
=	0.0	0.0	73.6	70.4
=	0.0	0.0	74.3	70.1
=	0.0	0.0	75.0	69.8
=	0.0	0.0	75.5	69.7
=	0.0	0.0	75.9	69.5
=	0.0	0.0	76.7	69.1
=	0.0	0.0	77.2	68.9
=	0.0	0.0	77.7	68.6
=	0.0	0.0	78.4	68.3
=	0.0	0.0	79.1	68.1
=	0.0	0.0	79.5	67.9
=	0.0	0.0	79.9	67.7
=	0.0	0.0	80.8	67.3
=	0.0	0.0	81.3	67.1
=	0.0	0.0	81.7	66.8
=	0.0	0.0	82.4	66.5
=	0.0	0.0	83.1	66.3
=	0.0	0.0	83.5	66.1
=	0.0	0.0	84.0	66.0
=	0.0	0.0	84.8	65.6
=	0.0	0.0	85.3	65.3
=	0.0	0.0	85.8	65.1
=	0.0	0.0	86.2	65.0
=	0.0	0.0	86.7	64.8
=	0.0	0.0	87.1	64.6
=	0.0	0.0	87.6	64.4
=	0.0	0.0	88.1	64.2
=	0.0	0.0	88.5	64.0
=	0.0	0.0	89.2	63.7
=	0.0	0.0	89.6	63.5
=	0.0	0.0	90.1	63.4
=	0.0	0.0	90.5	63.2
=	0.0	0.0	91.0	63.0
=	0.0	0.0	91.3	62.9
=	0.0	0.0	91.6	62.7
=	0.0	0.0	92.1	62.6
=	0.0	0.0	92.5	62.4
=	0.0	0.0	93.0	62.2
=	0.0	0.0	93.5	62.0
=	0.0	0.0	93.8	61.9
=	0.0	0.0	94.1	61.8
=	0.0	0.0	94.6	61.6
=	0.0	0.0	95.0	61.4
=	0.0	0.0	95.5	61.3
=	0.0	0.0	95.9	61.1
=	0.0	0.0	96.3	60.9
=	0.0	0.0	96.8	60.7
=	0.0	0.0	97.3	60.5
=	0.0	0.0	97.7	60.3
=	0.0	0.0	98.0	60.3
=	0.0	0.0	98.4	60.2
=	0.0	0.0	98.8	60.0
=	0.0	0.0	99.1	59.8
=	0.0	0.0	99.6	59.6
=	0.0	0.0	99.9	59.6
=	0.0	0.0	100.4	59.4
=	0.0	0.0	100.9	59.2
=	0.0	0.0	101.4	59.0
=	0.0	0.0	101.7	58.8
=	0.0	0.0	102.2	58.6
=	0.0	0.0	102.6	58.5
=	0.0	0.0	103.2	58.3
=	0.0	0.0	103.6	58.1
=	0.0	0.0	103.9	57.9
=	0.0	0.0	104.4	57.8
=	0.0	0.0	104.9	57.6
=	0.0	0.0	105.4	57.3
=	0.0	0.0	105.8	57.2
=	0.0	0.0	106.2	57.1
=	0.0	0.0	106.7	56.9
=	0.0	0.0	107.0	56.8
=	0.0	0.0	107.4	56.6
=	0.0	0.0	107.9	56.5
=	0.0	0.0	108.4	56.3
=	0.0	0.0	108.9	56.1
=	0.0	0.0	109.2	56.0
=	0.0	0.0	109.7	55.8
=	0.0	0.0	110.1	55.7
=	0.0	0.0	110.5	55.5
=	0.0	0.0	110.9	55.4
=	0.0	0.0	111.5	55.2
=	0.0	0.0	112.0	55.0
=	0.0	0.0	112.4	54.9
=	0.0	0.0	113.0	54.7
=	0.0	0.0	113.3	54.6
=	0.0	0.0	113.8	54.4
=	0.0	0.0	114.3	54.2
=	0.0	0.0	114.8	54.0
=	0.0	0.0	115.1	53.9
=	0.0	0.0	115.4	53.8
=	0.0	0.0	115.8	53.6
=	0.0	0.0	116.3	53.5
=	0.0	0.0	116.8	53.3
=	0.0	0.0	117.2	53.2
=	0.0	0.0	117.4	53.1
=	0.0	0.0	117.8	53.0
=	0.0	0.0	118.3	52.8
=	0.0	0.0	118.8	52.5
=	0.0	0.0	119.2	52.4
=	0.0	0.0	119.5	52.3
=	0.0	0.0	119.8	52.3
=	0.0	0.0	120.3	52.1
=	0.0	0.0	120.7	51.9
=	0.0	0.0	121.0	51.8
=	0.0	0.0	121.5	51.6
=	0.0	0.0	121.8	51.5
=	0.0	0.0	122.3	51.3
=	0.0	0.0	122.8	51.2
=	0.0	0.0	123.2	51.1
=	0.0	0.0	123.7	50.9
=	0.0	0.0	124.2	50.7
=	0.0	0.0	124.9	50.5
=	0.0	0.0	125.3	50.4
=	0.0	0.0	125.7	50.3
=	0.0	0.0	126.2	50.2
=	0.0	0.0	126.6	50.0
=	0.0	0.0	127.1	49.8
=	0.0	0.0	127.5	49.7
=	0.0	0.0	127.9	49.5
=	0.0	0.0	128.4	49.3
=	0.0	0.0	128.9	49.2
=	0.0	0.0	129.3	49.0
=	0.0	0.0	129.8	48.8
=	0.0	0.0	130.2	48.7
=	0.0	0.0	131.0	48.4
=	0.0	0.0	131.5	48.3
=	0.0	0.0	132.0	48.2
=	0.0	0.0	132.7	48.0
=	0.0	0.0	133.4	47.8
=	0.0	0.0	133.8	47.6
=	0.0	0.0	134.2	47.5
=	0.0	0.0	134.7	47.3
=	0.0	0.0	135.2	47.2
=	0.0	0.0	135.6	47.0
=	0.0	0.0	136.0	46.9
=	0.0	0.0	136.5	46.7
=	0.0	0.0	137.1	46.5
=	0.0	0.0	137.9	46.3
=	0.0	0.0	138.3	46.2
=	0.0	0.0	138.7	46.1
=	0.0	0.0	139.6	45.9
=	0.0	0.0	140.1	45.7
=	0.0	0.0	140.4	45.6
=	0.0	0.0	140.8	45.5
=	0.0	0.0	141.2	45.4
=	0.0	0.0	141.7	45.2
=	0.0	0.0	142.1	45.1
=	0.0	0.0	142.5	45.1
=	0.0	0.0	143.2	44.8
=	0.0	0.0	143.7	44.6
=	0.0	0.0	144.2	44.5
=	0.0	0.0	144.6	44.4
=	0.0	0.0	145.2	44.3
=	0.0	0.0	146.0	44.0
=	0.0	0.0	146.4	43.8
=	0.0	0.0	146.9	43.6
=	0.0	0.0	147.7	43.5
=	0.0	0.0	148.2	43.3
=	0.0	0.0	148.6	43.2
=	0.0	0.0	149.3	43.0
=	0.0	0.0	150.0	42.8
=	0.0	0.0	150.4	42.7
=	0.0	0.0	150.9	42.6
=	0.0	0.0	151.7	42.3
=	0.0	0.0	152.2	42.2
=	0.0	0.0	152.6	42.1
=	0.0	0.0	153.3	41.9
=	0.0	0.0	154.0	41.7
=	0.0	0.0	154.5	41.6
=	0.0	0.0	154.9	41.5
=	0.0	0.0	155.8	41.2
=	0.0	0.0	156.2	41.1
=	0.0	0.0	156.7	41.0
=	0.0	0.0	157.4	40.8
=	0.0	0.0	158.1	40.6
=	0.0	0.0	158.5	40.5
=	0.0	0.0	159.0	40.3
=	0.0	0.0	159.4	40.3
=	0.0	0.0	160.3	40.0
=	0.0	0.0	160.8	39.9
=	0.0	0.0	161.2	39.8
=	0.0	0.0	161.9	39.6
=	0.0	0.0	162.3	39.4
=	0.0	0.0	162.8	39.4
=	0.0	0.0	163.2	39.3
=	0.0	0.0	163.9	39.1
=	0.0	0.0	164.6	38.9
=	0.0	0.0	165.1	38.8
=	0.0	0.0	165.5	38.7
=	0.0	0.0	166.2	38.5
=	0.0	0.0	166.6	38.4
=	0.0	0.0	166.9	38.3
=	0.0	0.0	167.2	38.2
=	0.0	0.0	167.9	38.1
=	0.0	0.0	168.4	38.0
=	0.0	0.0	168.8	37.8
=	0.0	0.0	169.3	37.7
=	0.0	0.0	169.7	37.6
=	0.0	0.0	170.3	37.5
=	0.0	0.0	170.7	37.3
=	0.0	0.0	171.1	37.3
=	0.0	0.0	171.6	37.2
=	0.0	0.0	172.1	37.1
=	0.0	0.0	172.5	36.9
=	0.0	0.0	173.0	36.7
=	0.0	0.0	173.3	36.7
=	0.0	0.0	173.8	36.6
=	0.0	0.0	174.3	36.4
=	0.0	0.0	174.8	36.4
=	0.0	0.0	175.1	36.3
=	0.0	0.0	175.6	36.2
=	0.0	0.0	176.1	36.1
=	0.0	0.0	176.6	35.9
=	0.0	0.0	177.0	35.8
=	0.0	0.0	177.4	35.7
=	0.0	0.0	177.8	35.6
=	0.0	0.0	178.4	35.5
=	0.0	0.0	178.8	35.4
=	0.0	0.0	179.2	35.3
=	0.0	0.0	179.6	35.1
=	0.0	0.0	180.0	35.1
=	0.0	0.0	180.4	35.0
=	0.0	0.0	180.9	34.9
=	0.0	0.0	181.4	34.8
=	0.0	0.0	181.9	34.7
=	0.0	0.0	182.4	34.6
=	0.0	0.0	182.9	34.4
=	0.0	0.0	183.4	34.3
=	0.0	0.0	183.7	34.3
=	0.0	0.0	184.1	34.3
=	0.0	0.0	184.5	34.1
=	0.0	0.0	184.9	34.0
=	0.0	0.0	185.2	34.0
=	0.0	0.0	185.7	33.9
=	0.0	0.0	186.1	33.8
=	0.0	0.0	186.5	33.7
=	0.0	0.0	187.0	33.6
=	0.0	0.0	187.5	33.5
=	0.0	0.0	187.8	33.5
=	0.0	0.0	188.1	33.4
=	0.0	0.0	188.5	33.2
=	0.0	0.0	189.1	33.1
=	0.0	0.0	189.7	33.0
=	0.0	0.0	190.2	32.9
=	0.0	0.0	190.6	32.8
=	0.0	0.0	191.0	32.7
=	0.0	0.0	191.5	32.6
=	0.0	0.0	192.0	32.5
=	0.0	0.0	192.3	32.5
=	0.0	0.0	192.6	32.4
=	0.0	0.0	193.1	32.3
=	0.0	0.0	193.8	32.1
=	0.0	0.0	194.2	32.0
=	0.0	0.0	194.7	31.9
=	0.0	0.0	195.1	31.8
=	0.0	0.0	195.8	31.7
=	0.0	0.0	196.2	31.6
=	0.0	0.0	196.4	31.5
=	0.0	0.0	196.8	31.5
=	0.0	0.0	197.5	31.4
=	0.0	0.0	198.0	31.2
=	0.0	0.0	198.4	31.2
=	0.0	0.0	198.9	31.1
=	0.0	0.0	199.6	31.0
=	0.0	0.0	200.0	30.9
=	0.0	0.0	200.5	30.8
=	0.0	0.0	200.9	30.7
=	0.0	0.0	201.6	30.6
=	0.0	0.0	202.3	30.4
=	0.0	0.0	202.7	30.3
=	0.0	0.0	203.2	30.2
=	0.0	0.0	203.7	30.1
=	0.0	0.0	204.4	30.0
=	0.0	0.0	204.8	29.9
=	0.0	0.0	205.2	29.8
=	0.0	0.0	205.7	29.7
=	0.0	0.0	206.4	29.7
=	0.0	0.0	206.8	29.6
=	0.0	0.0	207.3	29.4
=	0.0	0.0	207.7	29.3
=	0.0	0.0	208.4	29.2
=	0.0	0.0	208.8	29.2
=	0.0	0.0	209.2	29.1
=	0.0	0.0	209.6	29.0
=	0.0	0.0	210.1	28.9
=	0.0	0.0	210.6	28.8
=	0.0	0.0	211.0	28.7
=	0.0	0.0	211.4	28.7
=	0.0	0.0	211.9	28.5
=	0.0	0.0	212.4	28.4
=	0.0	0.0	212.8	28.4
=	0.0	0.0	213.2	28.3
=	0.0	0.0	213.7	28.2
=	0.0	0.0	214.2	28.1
=	0.0	0.0	214.6	28.0
=	0.0	0.0	215.0	27.9
=	0.0	0.0	215.4	27.8
=	0.0	0.0	215.9	27.8
=	0.0	0.0	216.4	27.7
=	0.0	0.0	216.9	27.6
=	0.0	0.0	217.2	27.5
=	0.0	0.0	217.7	27.5
=	0.0	0.0	218.2	27.4
=	0.0	0.0	218.6	27.3
=	0.0	0.0	219.0	27.3
=	0.0	0.0	219.5	27.2
=	0.0	0.0	220.0	27.1
=	0.0	0.0	220.5	26.9
=	0.0	0.0	220.9	26.8
=	0.0	0.0	221.3	26.8
=	0.0	0.0	221.6	26.8
=	0.0	0.0	221.9	26.7
=	0.0	0.0	222.6	26.6
=	0.0	0.0	223.1	26.5
=	0.0	0.0	223.5	26.5
=	0.0	0.0	223.8	26.4
=	0.0	0.0	224.2	26.3
=	0.0	0.0	224.7	26.2
=	0.0	0.0	225.4	26.1
=	0.0	0.0	225.9	26.0
=	0.0	0.0	226.7	25.9
=	0.0	0.0	227.2	25.8
=	0.0	0.0	227.6	25.8
=	0.0	0.0	228.1	25.7
=	0.0	0.0	228.7	25.6
=	0.0	0.0	229.2	25.6
=	0.0	0.0	229.6	25.5
=	0.0	0.0	230.1	25.3
=	0.0	0.0	230.7	25.2
=	0.0	0.0	231.2	25.1
=	0.0	0.0	231.6	25.0
=	0.0	0.0	232.1	25.0
=	0.0	0.0	232.8	25.0
=	0.0	0.0	233.5	24.8
=	0.0	0.0	233.9	24.8
=	0.0	0.0	234.4	24.7
=	0.0	0.0	235.2	24.5
=	0.0	0.0	235.7	24.5
=	0.0	0.0	236.1	24.4
=	0.0	0.0	236.6	24.4
=	0.0	0.0	237.2	24.2
=	0.0	0.0	237.7	24.1
=	0.0	0.0	238.1	24.1
=	0.0	0.0	238.6	24.0
=	0.0	0.0	239.3	23.9
=	0.0	0.0	239.8	23.8
=	0.0	0.0	240.2	23.7
=	0.0	0.0	240.8	23.7
=	0.0	0.0	241.6	23.5
=	0.0	0.0	242.0	23.5
=	0.0	0.0	242.4	23.4
=	0.0	0.0	242.9	23.3
=	0.0	0.0	243.6	23.2
=	0.0	0.0	244.0	23.2
=	0.0	0.0	244.4	23.1
=	0.0	0.0	244.9	23.0
=	0.0	0.0	245.6	23.0
=	0.0	0.0	246.0	22.9
=	0.0	0.0	246.4	22.8
=	0.0	0.0	246.8	22.8
=	0.0	0.0	247.3	22.7
=	0.0	0.0	247.7	22.6
=	0.0	0.0	248.3	22.5
=	0.0	0.0	248.7	22.5
=	0.0	0.0	249.0	22.5
=	0.0	0.0	249.5	22.4
=	0.0	0.0	250.1	22.3
=	0.0	0.0	250.5	22.2
=	0.0	0.0	251.0	22.2
=	0.0	0.0	251.5	22.1
=	0.0	0.0	251.9	22.0
=	0.0	0.0	252.3	22.0
=	0.0	0.0	252.8	21.9
=	0.0	0.0	253.3	21.9
=	0.0	0.0	253.8	21.8
=	0.0	0.0	254.1	21.7
=	0.0	0.0	254.4	21.7
=	0.0	0.0	254.8	21.7
=	0.0	0.0	255.2	21.6
=	0.0	0.0	255.8	21.5
=	0.0	0.0	256.2	21.4
=	0.0	0.0	256.6	21.4
=	0.0	0.0	257.1	21.3
=	0.0	0.0	257.5	21.3
=	0.0	0.0	258.0	21.2
=	0.0	0.0	258.5	21.2
=	0.0	0.0	258.8	21.1
=	0.0	0.0	259.3	21.1
=	0.0	0.0	259.8	21.0
=	0.0	0.0	260.3	20.9
=	0.0	0.0	260.7	20.8
=	0.0	0.0	261.1	20.8
=	0.0	0.0	261.6	20.7
=	0.0	0.0	262.1	20.7
=	0.0	0.0	262.5	20.6
=	0.0	0.0	262.9	20.6
=	0.0	0.0	263.3	20.5
=	0.0	0.0	263.9	20.4
=	0.0	0.0	264.4	20.3
=	0.0	0.0	264.8	20.3
=	0.0	0.0	265.4	20.2
=	0.0	0.0	265.9	20.1
=	0.0	0.0	266.4	20.1
=	0.0	0.0	266.7	20.0
=	0.0	0.0	267.1	20.0
=	0.0	0.0	267.5	20.0
=	0.0	0.0	267.8	19.9
=	0.0	0.0	268.2	19.9
=	0.0	0.0	268.7	19.8
=	0.0	0.0	269.2	19.7
=	0.0	0.0	269.6	19.7
=	0.0	0.0	270.0	19.7
=	0.0	0.0	270.5	19.6
=	0.0	0.0	271.1	19.5
=	0.0	0.0	271.6	19.4
=	0.0	0.0	271.8	19.4
=	0.0	0.0	272.5	19.3
=	0.0	0.0	273.2	19.2
=	0.0	0.0	273.6	19.2
=	0.0	0.0	274.0	19.1
=	0.0	0.0	274.5	19.1
=	0.0	0.0	275.2	19.0
=	0.0	0.0	275.7	19.0
=	0.0	0.0	276.1	18.9
=	0.0	0.0	276.9	18.8
=	0.0	0.0	277.4	18.7
=	0.0	0.0	277.9	18.7
=	0.0	0.0	278.5	18.6
=	0.0	0.0	279.2	18.6
=	0.0	0.0	279.5	18.5
=	0.0	0.0	279.9	18.5
=	0.0	0.0	280.3	18.4
=	0.0	0.0	281.0	18.3
=	0.0	0.0	281.4	18.3
=	0.0	0.0	281.9	18.2
=	0.0	0.0	282.6	18.1
=	0.0	0.0	283.3	18.1
=	0.0	0.0	283.7	18.0
=	0.0	0.0	284.2	17.9
=	0.0	0.0	284.6	17.9
=	0.0	0.0	285.5	17.8
=	0.0	0.0	286.0	17.7
=	0.0	0.0	286.4	17.7
=	0.0	0.0	287.1	17.6
=	0.0	0.0	287.8	17.5
=	0.0	0.0	288.2	17.5
=	0.0	0.0	288.7	17.5
=	0.0	0.0	289.5	17.3
=	0.0	0.0	290.0	17.3
=	0.0	0.0	290.4	17.2
=	0.0	0.0	290.9	17.1
=	0.0	0.0	291.5	17.1
=	0.0	0.0	292.3	17.0
=	0.0	0.0	292.7	17.0
=	0.0	0.0	293.2	16.9
=	0.0	0.0	294.0	16.9
=	0.0	0.0	294.5	16.8
=	0.0	0.0	294.9	16.8
=	0.0	0.0	295.6	16.7
=	0.0	0.0	296.3	16.6
=	0.0	0.0	296.7	16.6
=	0.0	0.0	297.2	16.5
=	0.0	0.0	298.0	16.4
=	0.0	0.0	298.5	16.4
=	0.0	0.0	299.0	16.4
=	0.0	0.0	299.4	16.3
=	0.0	0.0	300.0	16.2
=	0.0	0.0	300.5	16.2
=	0.0	0.0	300.9	16.1
=	0.0	0.0	301.6	16.1
=	0.0	0.0	302.3	16.0
=	0.0	0.0	302.8	16.0
=	0.0	0.0	303.2	15.9
=	0.0	0.0	303.7	15.9
=	0.0	0.0	304.4	15.8
=	0.0	0.0	304.8	15.8
=	0.0	0.0	305.3	15.7
=	0.0	0.0	305.7	15.6
=	0.0	0.0	306.4	15.6
=	0.0	0.0	306.8	15.6
=	0.0	0.0	307.3	15.5
=	0.0	0.0	307.7	15.5
=	0.0	0.0	308.6	15.4
=	0.0	0.0	309.1	15.4
=	0.0	0.0	309.5	15.3
=	0.0	0.0	310.2	15.2
=	0.0	0.0	310.6	15.2
=	0.0	0.0	311.1	15.2
=	0.0	0.0	311.5	15.1
=	0.0	0.0	312.2	15.1
=	0.0	0.0	312.9	15.0
=	0.0	0.0	313.4	15.0
=	0.0	0.0	313.8	14.9
=	0.0	0.0	314.7	14.8
=	0.0	0.0	315.2	14.8
=	0.0	0.0	315.6	14.8
=	0.0	0.0	316.0	14.7
=	0.0	0.0	316.5	14.7
=	0.0	0.0	317.0	14.6
=	0.0	0.0	317.5	14.6
=	0.0	0.0	317.8	14.5
=	0.0	0.0	318.3	14.5
=	0.0	0.0	318.7	14.5
=	0.0	0.0	319.2	14.4
=	0.0	0.0	319.7	14.4
=	0.0	0.0	320.1	14.3
=	0.0	0.0	320.7	14.3
=	0.0	0.0	321.4	14.2
=	0.0	0.0	321.9	14.2
=	0.0	0.0	322.3	14.1
=	0.0	0.0	323.0	14.1
=	0.0	0.0	323.4	14.0
=	0.0	0.0	323.9	14.0
=	0.0	0.0	324.4	13.9
=	0.0	0.0	325.0	13.9
=	0.0	0.0	325.5	13.9
=	0.0	0.0	325.9	13.8
=	0.0	0.0	326.4	13.7
=	0.0	0.0	327.2	13.7
=	0.0	0.0	327.7	13.6
=	0.0	0.0	328.2	13.6
=	0.0	0.0	328.8	13.6
=	0.0	0.0	329.3	13.5
=	0.0	0.0	329.7	13.5
=	0.0	0.0	330.2	13.4
=	0.0	0.0	330.8	13.4
=	0.0	0.0	331.6	13.3
=	0.0	0.0	332.0	13.3
=	0.0	0.0	332.5	13.3
=	0.0	0.0	333.3	13.2
