:MSR 	25	 # No. of measurement in file
:SYS BDS 0   # Beam Data Scanner System
#
# RFA300 ASCII Measurement Dump ( BDS format )
#
# Measurement number 	1
#
%VNR 1.0
%MOD 	RAT
%TYP 	SCN
%SCN 	PRO
%FLD 	ION
%DAT 	02-01-2012
%TIM 	12:00:00
%FSZ 	040	040
%BMT 	PHO	   4.0
%SSD 	1000
%BUP 	0
%BRD 	1000
%FSH 	1
%ASC 	0
%WEG 	15
%GPO 	0
%CPO 	0
%MEA 	6
%PRD 	12,0
%PTS 	943
%STS 	    -89.6	  0.0	   12.0 # Start Scan values in mm ( X , Y , Z )
%EDS 	    90.1	   0.0	   12.0 # End Scan values in mm ( X , Y , Z )
#
#	  X      Y      Z     Dose
#
=	-89.6	0.0	12.0	0.6
=	-89.4	0.0	12.0	0.7
=	-89.3	0.0	12.0	0.7
=	-89.1	0.0	12.0	0.7
=	-88.8	0.0	12.0	0.7
=	-88.7	0.0	12.0	0.7
=	-88.5	0.0	12.0	0.7
=	-88.4	0.0	12.0	0.7
=	-88.2	0.0	12.0	0.7
=	-88.1	0.0	12.0	0.7
=	-87.9	0.0	12.0	0.7
=	-87.7	0.0	12.0	0.7
=	-87.5	0.0	12.0	0.7
=	-87.3	0.0	12.0	0.7
=	-87.2	0.0	12.0	0.7
=	-86.9	0.0	12.0	0.7
=	-86.8	0.0	12.0	0.7
=	-86.7	0.0	12.0	0.7
=	-86.4	0.0	12.0	0.7
=	-86.3	0.0	12.0	0.7
=	-86.1	0.0	12.0	0.7
=	-85.9	0.0	12.0	0.7
=	-85.7	0.0	12.0	0.7
=	-85.5	0.0	12.0	0.7
=	-85.3	0.0	12.0	0.7
=	-85.2	0.0	12.0	0.7
=	-85.0	0.0	12.0	0.7
=	-84.8	0.0	12.0	0.7
=	-84.7	0.0	12.0	0.7
=	-84.5	0.0	12.0	0.7
=	-84.2	0.0	12.0	0.7
=	-84.1	0.0	12.0	0.7
=	-83.9	0.0	12.0	0.7
=	-83.7	0.0	12.0	0.7
=	-83.5	0.0	12.0	0.7
=	-83.2	0.0	12.0	0.7
=	-83.0	0.0	12.0	0.7
=	-82.8	0.0	12.0	0.7
=	-82.7	0.0	12.0	0.7
=	-82.5	0.0	12.0	0.7
=	-82.2	0.0	12.0	0.7
=	-82.0	0.0	12.0	0.7
=	-81.8	0.0	12.0	0.7
=	-81.7	0.0	12.0	0.7
=	-81.5	0.0	12.0	0.7
=	-81.2	0.0	12.0	0.7
=	-81.0	0.0	12.0	0.7
=	-80.8	0.0	12.0	0.7
=	-80.7	0.0	12.0	0.7
=	-80.4	0.0	12.0	0.7
=	-80.2	0.0	12.0	0.7
=	-80.0	0.0	12.0	0.7
=	-79.8	0.0	12.0	0.7
=	-79.7	0.0	12.0	0.7
=	-79.4	0.0	12.0	0.7
=	-79.2	0.0	12.0	0.7
=	-79.0	0.0	12.0	0.7
=	-78.8	0.0	12.0	0.7
=	-78.7	0.0	12.0	0.7
=	-78.4	0.0	12.0	0.7
=	-78.2	0.0	12.0	0.7
=	-78.0	0.0	12.0	0.7
=	-77.8	0.0	12.0	0.7
=	-77.6	0.0	12.0	0.7
=	-77.4	0.0	12.0	0.7
=	-77.2	0.0	12.0	0.7
=	-77.0	0.0	12.0	0.7
=	-76.8	0.0	12.0	0.7
=	-76.7	0.0	12.0	0.7
=	-76.4	0.0	12.0	0.8
=	-76.1	0.0	12.0	0.8
=	-75.9	0.0	12.0	0.8
=	-75.7	0.0	12.0	0.8
=	-75.5	0.0	12.0	0.8
=	-75.4	0.0	12.0	0.8
=	-75.2	0.0	12.0	0.8
=	-74.9	0.0	12.0	0.8
=	-74.7	0.0	12.0	0.8
=	-74.5	0.0	12.0	0.8
=	-74.4	0.0	12.0	0.8
=	-74.1	0.0	12.0	0.8
=	-73.9	0.0	12.0	0.8
=	-73.7	0.0	12.0	0.8
=	-73.5	0.0	12.0	0.8
=	-73.3	0.0	12.0	0.8
=	-73.1	0.0	12.0	0.8
=	-72.9	0.0	12.0	0.8
=	-72.7	0.0	12.0	0.8
=	-72.4	0.0	12.0	0.8
=	-72.3	0.0	12.0	0.8
=	-72.1	0.0	12.0	0.8
=	-71.9	0.0	12.0	0.8
=	-71.7	0.0	12.0	0.8
=	-71.4	0.0	12.0	0.8
=	-71.3	0.0	12.0	0.8
=	-71.1	0.0	12.0	0.8
=	-70.8	0.0	12.0	0.8
=	-70.7	0.0	12.0	0.8
=	-70.5	0.0	12.0	0.8
=	-70.3	0.0	12.0	0.8
=	-70.1	0.0	12.0	0.8
=	-69.8	0.0	12.0	0.8
=	-69.6	0.0	12.0	0.8
=	-69.4	0.0	12.0	0.8
=	-69.2	0.0	12.0	0.8
=	-69.1	0.0	12.0	0.8
=	-68.8	0.0	12.0	0.8
=	-68.6	0.0	12.0	0.8
=	-68.4	0.0	12.0	0.8
=	-68.2	0.0	12.0	0.8
=	-68.1	0.0	12.0	0.8
=	-67.8	0.0	12.0	0.8
=	-67.6	0.0	12.0	0.8
=	-67.4	0.0	12.0	0.8
=	-67.2	0.0	12.0	0.8
=	-67.1	0.0	12.0	0.8
=	-66.8	0.0	12.0	0.8
=	-66.6	0.0	12.0	0.8
=	-66.4	0.0	12.0	0.8
=	-66.1	0.0	12.0	0.8
=	-66.0	0.0	12.0	0.8
=	-65.8	0.0	12.0	0.8
=	-65.6	0.0	12.0	0.8
=	-65.4	0.0	12.0	0.8
=	-65.3	0.0	12.0	0.8
=	-65.0	0.0	12.0	0.8
=	-64.8	0.0	12.0	0.8
=	-64.6	0.0	12.0	0.8
=	-64.3	0.0	12.0	0.9
=	-64.1	0.0	12.0	0.9
=	-64.0	0.0	12.0	0.9
=	-63.8	0.0	12.0	0.9
=	-63.6	0.0	12.0	0.9
=	-63.3	0.0	12.0	0.9
=	-63.1	0.0	12.0	0.9
=	-62.9	0.0	12.0	0.9
=	-62.8	0.0	12.0	0.9
=	-62.6	0.0	12.0	0.9
=	-62.4	0.0	12.0	0.9
=	-62.2	0.0	12.0	0.9
=	-62.1	0.0	12.0	0.9
=	-61.9	0.0	12.0	0.9
=	-61.7	0.0	12.0	0.9
=	-61.6	0.0	12.0	0.9
=	-61.3	0.0	12.0	0.9
=	-61.2	0.0	12.0	0.9
=	-61.1	0.0	12.0	0.9
=	-60.9	0.0	12.0	0.9
=	-60.8	0.0	12.0	0.9
=	-60.6	0.0	12.0	0.9
=	-60.3	0.0	12.0	0.9
=	-60.1	0.0	12.0	0.9
=	-59.9	0.0	12.0	0.9
=	-59.7	0.0	12.0	0.9
=	-59.6	0.0	12.0	0.9
=	-59.3	0.0	12.0	0.9
=	-59.1	0.0	12.0	0.9
=	-59.0	0.0	12.0	0.9
=	-58.7	0.0	12.0	0.9
=	-58.6	0.0	12.0	0.9
=	-58.3	0.0	12.0	0.9
=	-58.1	0.0	12.0	0.9
=	-57.9	0.0	12.0	0.9
=	-57.7	0.0	12.0	0.9
=	-57.6	0.0	12.0	0.9
=	-57.5	0.0	12.0	0.9
=	-57.3	0.0	12.0	1.0
=	-57.2	0.0	12.0	1.0
=	-56.9	0.0	12.0	1.0
=	-56.7	0.0	12.0	1.0
=	-56.5	0.0	12.0	1.0
=	-56.3	0.0	12.0	1.0
=	-56.2	0.0	12.0	1.0
=	-55.9	0.0	12.0	1.0
=	-55.7	0.0	12.0	1.0
=	-55.6	0.0	12.0	1.0
=	-55.5	0.0	12.0	1.0
=	-55.3	0.0	12.0	1.0
=	-55.1	0.0	12.0	1.0
=	-54.9	0.0	12.0	1.0
=	-54.7	0.0	12.0	1.0
=	-54.4	0.0	12.0	1.0
=	-54.2	0.0	12.0	1.0
=	-54.1	0.0	12.0	1.0
=	-53.8	0.0	12.0	1.0
=	-53.6	0.0	12.0	1.0
=	-53.4	0.0	12.0	1.0
=	-53.2	0.0	12.0	1.0
=	-53.1	0.0	12.0	1.0
=	-52.8	0.0	12.0	1.0
=	-52.6	0.0	12.0	1.0
=	-52.4	0.0	12.0	1.0
=	-52.2	0.0	12.0	1.1
=	-52.1	0.0	12.0	1.1
=	-51.8	0.0	12.0	1.1
=	-51.6	0.0	12.0	1.1
=	-51.4	0.0	12.0	1.1
=	-51.1	0.0	12.0	1.1
=	-51.0	0.0	12.0	1.1
=	-50.8	0.0	12.0	1.1
=	-50.6	0.0	12.0	1.1
=	-50.4	0.0	12.0	1.1
=	-50.1	0.0	12.0	1.1
=	-49.9	0.0	12.0	1.1
=	-49.7	0.0	12.0	1.1
=	-49.6	0.0	12.0	1.1
=	-49.3	0.0	12.0	1.1
=	-49.1	0.0	12.0	1.1
=	-49.0	0.0	12.0	1.1
=	-48.7	0.0	12.0	1.2
=	-48.6	0.0	12.0	1.2
=	-48.3	0.0	12.0	1.2
=	-48.1	0.0	12.0	1.2
=	-48.0	0.0	12.0	1.2
=	-47.7	0.0	12.0	1.2
=	-47.5	0.0	12.0	1.2
=	-47.3	0.0	12.0	1.2
=	-47.1	0.0	12.0	1.2
=	-46.9	0.0	12.0	1.2
=	-46.7	0.0	12.0	1.2
=	-46.5	0.0	12.0	1.2
=	-46.3	0.0	12.0	1.2
=	-46.1	0.0	12.0	1.2
=	-45.9	0.0	12.0	1.2
=	-45.7	0.0	12.0	1.3
=	-45.5	0.0	12.0	1.3
=	-45.3	0.0	12.0	1.3
=	-45.1	0.0	12.0	1.3
=	-44.9	0.0	12.0	1.3
=	-44.7	0.0	12.0	1.3
=	-44.5	0.0	12.0	1.3
=	-44.3	0.0	12.0	1.3
=	-44.1	0.0	12.0	1.3
=	-44.0	0.0	12.0	1.3
=	-43.7	0.0	12.0	1.3
=	-43.5	0.0	12.0	1.3
=	-43.2	0.0	12.0	1.4
=	-43.1	0.0	12.0	1.4
=	-42.9	0.0	12.0	1.4
=	-42.6	0.0	12.0	1.4
=	-42.5	0.0	12.0	1.4
=	-42.2	0.0	12.0	1.4
=	-42.0	0.0	12.0	1.4
=	-41.9	0.0	12.0	1.4
=	-41.6	0.0	12.0	1.4
=	-41.4	0.0	12.0	1.4
=	-41.2	0.0	12.0	1.5
=	-41.0	0.0	12.0	1.5
=	-40.9	0.0	12.0	1.5
=	-40.6	0.0	12.0	1.5
=	-40.5	0.0	12.0	1.5
=	-40.2	0.0	12.0	1.5
=	-40.0	0.0	12.0	1.5
=	-39.9	0.0	12.0	1.5
=	-39.6	0.0	12.0	1.6
=	-39.5	0.0	12.0	1.6
=	-39.4	0.0	12.0	1.6
=	-39.2	0.0	12.0	1.6
=	-39.0	0.0	12.0	1.6
=	-38.8	0.0	12.0	1.6
=	-38.6	0.0	12.0	1.6
=	-38.5	0.0	12.0	1.6
=	-38.4	0.0	12.0	1.6
=	-38.2	0.0	12.0	1.7
=	-38.0	0.0	12.0	1.7
=	-37.9	0.0	12.0	1.7
=	-37.8	0.0	12.0	1.7
=	-37.6	0.0	12.0	1.7
=	-37.4	0.0	12.0	1.7
=	-37.2	0.0	12.0	1.7
=	-37.0	0.0	12.0	1.7
=	-36.8	0.0	12.0	1.7
=	-36.6	0.0	12.0	1.7
=	-36.3	0.0	12.0	1.8
=	-36.2	0.0	12.0	1.8
=	-36.0	0.0	12.0	1.8
=	-35.8	0.0	12.0	1.8
=	-35.5	0.0	12.0	1.8
=	-35.3	0.0	12.0	1.9
=	-35.2	0.0	12.0	1.9
=	-35.1	0.0	12.0	1.9
=	-34.9	0.0	12.0	1.9
=	-34.8	0.0	12.0	1.9
=	-34.6	0.0	12.0	1.9
=	-34.3	0.0	12.0	1.9
=	-34.1	0.0	12.0	2.0
=	-33.9	0.0	12.0	2.0
=	-33.8	0.0	12.0	2.0
=	-33.5	0.0	12.0	2.1
=	-33.3	0.0	12.0	2.1
=	-33.1	0.0	12.0	2.1
=	-32.9	0.0	12.0	2.1
=	-32.8	0.0	12.0	2.1
=	-32.5	0.0	12.0	2.1
=	-32.3	0.0	12.0	2.2
=	-32.1	0.0	12.0	2.2
=	-31.9	0.0	12.0	2.2
=	-31.8	0.0	12.0	2.2
=	-31.5	0.0	12.0	2.2
=	-31.3	0.0	12.0	2.3
=	-31.0	0.0	12.0	2.3
=	-30.9	0.0	12.0	2.3
=	-30.7	0.0	12.0	2.4
=	-30.4	0.0	12.0	2.4
=	-30.2	0.0	12.0	2.4
=	-30.1	0.0	12.0	2.5
=	-29.8	0.0	12.0	2.5
=	-29.7	0.0	12.0	2.5
=	-29.4	0.0	12.0	2.6
=	-29.3	0.0	12.0	2.6
=	-29.0	0.0	12.0	2.7
=	-28.8	0.0	12.0	2.7
=	-28.7	0.0	12.0	2.7
=	-28.6	0.0	12.0	2.7
=	-28.4	0.0	12.0	2.8
=	-28.2	0.0	12.0	2.8
=	-28.0	0.0	12.0	2.9
=	-27.8	0.0	12.0	3.0
=	-27.7	0.0	12.0	3.1
=	-27.6	0.0	12.0	3.1
=	-27.3	0.0	12.0	3.2
=	-27.2	0.0	12.0	3.3
=	-27.0	0.0	12.0	3.4
=	-26.8	0.0	12.0	3.5
=	-26.6	0.0	12.0	3.7
=	-26.4	0.0	12.0	3.8
=	-26.2	0.0	12.0	4.0
=	-26.0	0.0	12.0	4.3
=	-25.8	0.0	12.0	4.5
=	-25.6	0.0	12.0	4.8
=	-25.4	0.0	12.0	5.0
=	-25.2	0.0	12.0	5.3
=	-25.0	0.0	12.0	5.8
=	-24.8	0.0	12.0	6.2
=	-24.6	0.0	12.0	6.7
=	-24.3	0.0	12.0	7.3
=	-24.2	0.0	12.0	7.7
=	-23.9	0.0	12.0	8.8
=	-23.8	0.0	12.0	9.5
=	-23.6	0.0	12.0	10.5
=	-23.3	0.0	12.0	11.8
=	-23.1	0.0	12.0	13.1
=	-23.0	0.0	12.0	13.8
=	-22.8	0.0	12.0	15.4
=	-22.5	0.0	12.0	18.0
=	-22.3	0.0	12.0	19.8
=	-22.1	0.0	12.0	21.8
=	-21.9	0.0	12.0	24.2
=	-21.7	0.0	12.0	26.4
=	-21.5	0.0	12.0	29.1
=	-21.3	0.0	12.0	31.2
=	-21.1	0.0	12.0	34.2
=	-21.0	0.0	12.0	36.1
=	-20.8	0.0	12.0	38.1
=	-20.7	0.0	12.0	39.7
=	-20.5	0.0	12.0	42.5
=	-20.3	0.0	12.0	44.8
=	-20.1	0.0	12.0	47.9
=	-20.0	0.0	12.0	49.7
=	-19.8	0.0	12.0	51.4
=	-19.7	0.0	12.0	53.4
=	-19.5	0.0	12.0	56.1
=	-19.4	0.0	12.0	57.4
=	-19.3	0.0	12.0	59.2
=	-19.1	0.0	12.0	61.7
=	-18.9	0.0	12.0	63.7
=	-18.7	0.0	12.0	67.1
=	-18.5	0.0	12.0	69.6
=	-18.3	0.0	12.0	71.5
=	-18.1	0.0	12.0	74.9
=	-17.9	0.0	12.0	76.5
=	-17.8	0.0	12.0	77.8
=	-17.7	0.0	12.0	79.5
=	-17.5	0.0	12.0	82.1
=	-17.2	0.0	12.0	84.5
=	-17.1	0.0	12.0	86.3
=	-17.0	0.0	12.0	87.3
=	-16.8	0.0	12.0	88.4
=	-16.7	0.0	12.0	89.8
=	-16.4	0.0	12.0	91.7
=	-16.3	0.0	12.0	93.0
=	-16.1	0.0	12.0	94.2
=	-15.9	0.0	12.0	94.9
=	-15.6	0.0	12.0	96.5
=	-15.4	0.0	12.0	97.3
=	-15.2	0.0	12.0	97.9
=	-15.0	0.0	12.0	98.6
=	-14.8	0.0	12.0	98.9
=	-14.6	0.0	12.0	99.3
=	-14.4	0.0	12.0	99.6
=	-14.2	0.0	12.0	99.9
=	-14.0	0.0	12.0	100.3
=	-13.8	0.0	12.0	100.4
=	-13.6	0.0	12.0	100.6
=	-13.4	0.0	12.0	100.7
=	-13.2	0.0	12.0	100.9
=	-13.0	0.0	12.0	101.0
=	-12.8	0.0	12.0	101.1
=	-12.6	0.0	12.0	101.1
=	-12.4	0.0	12.0	101.1
=	-12.1	0.0	12.0	101.2
=	-11.9	0.0	12.0	101.3
=	-11.8	0.0	12.0	101.3
=	-11.6	0.0	12.0	101.3
=	-11.4	0.0	12.0	101.3
=	-11.1	0.0	12.0	101.3
=	-10.9	0.0	12.0	101.3
=	-10.7	0.0	12.0	101.3
=	-10.5	0.0	12.0	101.3
=	-10.4	0.0	12.0	101.3
=	-10.3	0.0	12.0	101.3
=	-10.1	0.0	12.0	101.3
=	-9.9	0.0	12.0	101.3
=	-9.8	0.0	12.0	101.3
=	-9.5	0.0	12.0	101.3
=	-9.4	0.0	12.0	101.3
=	-9.1	0.0	12.0	101.3
=	-8.9	0.0	12.0	101.2
=	-8.8	0.0	12.0	101.2
=	-8.7	0.0	12.0	101.2
=	-8.5	0.0	12.0	101.2
=	-8.4	0.0	12.0	101.2
=	-8.1	0.0	12.0	101.1
=	-7.9	0.0	12.0	101.1
=	-7.8	0.0	12.0	101.1
=	-7.5	0.0	12.0	101.1
=	-7.4	0.0	12.0	101.1
=	-7.1	0.0	12.0	101.0
=	-6.9	0.0	12.0	101.0
=	-6.7	0.0	12.0	101.0
=	-6.5	0.0	12.0	101.0
=	-6.3	0.0	12.0	101.0
=	-6.1	0.0	12.0	101.0
=	-5.9	0.0	12.0	100.9
=	-5.6	0.0	12.0	100.9
=	-5.5	0.0	12.0	100.9
=	-5.3	0.0	12.0	100.9
=	-5.1	0.0	12.0	100.8
=	-4.9	0.0	12.0	100.8
=	-4.8	0.0	12.0	100.8
=	-4.7	0.0	12.0	100.7
=	-4.4	0.0	12.0	100.7
=	-4.3	0.0	12.0	100.7
=	-4.0	0.0	12.0	100.7
=	-3.8	0.0	12.0	100.6
=	-3.6	0.0	12.0	100.6
=	-3.4	0.0	12.0	100.5
=	-3.3	0.0	12.0	100.5
=	-3.0	0.0	12.0	100.5
=	-2.8	0.0	12.0	100.5
=	-2.6	0.0	12.0	100.4
=	-2.4	0.0	12.0	100.4
=	-2.3	0.0	12.0	100.4
=	-2.2	0.0	12.0	100.3
=	-2.0	0.0	12.0	100.3
=	-1.8	0.0	12.0	100.3
=	-1.6	0.0	12.0	100.2
=	-1.4	0.0	12.0	100.2
=	-1.3	0.0	12.0	100.2
=	-1.0	0.0	12.0	100.2
=	-0.8	0.0	12.0	100.1
=	-0.6	0.0	12.0	100.1
=	-0.4	0.0	12.0	100.1
=	-0.2	0.0	12.0	100.1
=	0.0	0.0	12.0	100.0
=	0.2	0.0	12.0	99.9
=	0.4	0.0	12.0	99.9
=	0.6	0.0	12.0	99.8
=	0.8	0.0	12.0	99.8
=	1.1	0.0	12.0	99.8
=	1.2	0.0	12.0	99.8
=	1.3	0.0	12.0	99.7
=	1.4	0.0	12.0	99.7
=	1.7	0.0	12.0	99.7
=	1.8	0.0	12.0	99.7
=	2.1	0.0	12.0	99.7
=	2.2	0.0	12.0	99.6
=	2.5	0.0	12.0	99.6
=	2.7	0.0	12.0	99.6
=	2.8	0.0	12.0	99.6
=	3.1	0.0	12.0	99.5
=	3.3	0.0	12.0	99.5
=	3.5	0.0	12.0	99.4
=	3.7	0.0	12.0	99.3
=	3.9	0.0	12.0	99.3
=	4.1	0.0	12.0	99.3
=	4.2	0.0	12.0	99.3
=	4.5	0.0	12.0	99.2
=	4.7	0.0	12.0	99.2
=	4.8	0.0	12.0	99.2
=	5.1	0.0	12.0	99.2
=	5.3	0.0	12.0	99.1
=	5.5	0.0	12.0	99.1
=	5.7	0.0	12.0	99.1
=	5.9	0.0	12.0	99.1
=	6.1	0.0	12.0	99.1
=	6.2	0.0	12.0	99.1
=	6.3	0.0	12.0	99.0
=	6.6	0.0	12.0	99.0
=	6.7	0.0	12.0	99.0
=	6.9	0.0	12.0	99.0
=	7.1	0.0	12.0	98.9
=	7.3	0.0	12.0	98.9
=	7.6	0.0	12.0	98.9
=	7.7	0.0	12.0	98.8
=	8.0	0.0	12.0	98.8
=	8.2	0.0	12.0	98.8
=	8.3	0.0	12.0	98.7
=	8.5	0.0	12.0	98.7
=	8.7	0.0	12.0	98.7
=	9.0	0.0	12.0	98.6
=	9.2	0.0	12.0	98.5
=	9.4	0.0	12.0	98.4
=	9.6	0.0	12.0	98.4
=	9.7	0.0	12.0	98.4
=	9.9	0.0	12.0	98.3
=	10.2	0.0	12.0	98.2
=	10.4	0.0	12.0	98.2
=	10.6	0.0	12.0	98.1
=	10.7	0.0	12.0	98.0
=	11.0	0.0	12.0	97.9
=	11.2	0.0	12.0	97.9
=	11.4	0.0	12.0	97.9
=	11.6	0.0	12.0	97.8
=	11.7	0.0	12.0	97.7
=	12.0	0.0	12.0	97.6
=	12.2	0.0	12.0	97.5
=	12.4	0.0	12.0	97.3
=	12.6	0.0	12.0	97.2
=	12.8	0.0	12.0	97.1
=	13.0	0.0	12.0	97.0
=	13.2	0.0	12.0	96.9
=	13.4	0.0	12.0	96.6
=	13.6	0.0	12.0	96.4
=	13.8	0.0	12.0	96.1
=	14.0	0.0	12.0	95.7
=	14.2	0.0	12.0	95.5
=	14.3	0.0	12.0	95.3
=	14.4	0.0	12.0	95.1
=	14.7	0.0	12.0	94.7
=	14.8	0.0	12.0	94.4
=	15.0	0.0	12.0	93.7
=	15.2	0.0	12.0	93.3
=	15.3	0.0	12.0	92.9
=	15.5	0.0	12.0	92.3
=	15.7	0.0	12.0	91.5
=	15.8	0.0	12.0	90.9
=	16.1	0.0	12.0	89.4
=	16.2	0.0	12.0	88.2
=	16.4	0.0	12.0	86.9
=	16.7	0.0	12.0	85.3
=	16.8	0.0	12.0	83.8
=	17.1	0.0	12.0	81.5
=	17.2	0.0	12.0	80.5
=	17.3	0.0	12.0	79.2
=	17.5	0.0	12.0	77.3
=	17.7	0.0	12.0	75.3
=	17.8	0.0	12.0	73.6
=	18.1	0.0	12.0	71.0
=	18.2	0.0	12.0	69.1
=	18.5	0.0	12.0	66.2
=	18.7	0.0	12.0	63.8
=	18.8	0.0	12.0	61.6
=	19.1	0.0	12.0	58.4
=	19.3	0.0	12.0	55.6
=	19.5	0.0	12.0	53.0
=	19.7	0.0	12.0	50.0
=	19.9	0.0	12.0	47.5
=	20.1	0.0	12.0	44.8
=	20.2	0.0	12.0	43.4
=	20.4	0.0	12.0	41.3
=	20.5	0.0	12.0	39.5
=	20.7	0.0	12.0	37.0
=	20.9	0.0	12.0	35.3
=	21.1	0.0	12.0	32.4
=	21.2	0.0	12.0	30.6
=	21.3	0.0	12.0	29.4
=	21.5	0.0	12.0	27.4
=	21.7	0.0	12.0	25.3
=	21.8	0.0	12.0	23.9
=	22.1	0.0	12.0	21.0
=	22.3	0.0	12.0	19.4
=	22.5	0.0	12.0	17.1
=	22.7	0.0	12.0	15.6
=	22.8	0.0	12.0	14.6
=	23.0	0.0	12.0	13.7
=	23.1	0.0	12.0	12.5
=	23.4	0.0	12.0	11.0
=	23.5	0.0	12.0	10.0
=	23.7	0.0	12.0	9.1
=	23.9	0.0	12.0	8.3
=	24.1	0.0	12.0	7.3
=	24.4	0.0	12.0	6.7
=	24.5	0.0	12.0	6.2
=	24.7	0.0	12.0	5.8
=	24.9	0.0	12.0	5.4
=	25.2	0.0	12.0	4.9
=	25.4	0.0	12.0	4.6
=	25.6	0.0	12.0	4.4
=	25.7	0.0	12.0	4.2
=	25.9	0.0	12.0	4.1
=	26.1	0.0	12.0	3.8
=	26.4	0.0	12.0	3.6
=	26.6	0.0	12.0	3.5
=	26.7	0.0	12.0	3.4
=	27.0	0.0	12.0	3.2
=	27.2	0.0	12.0	3.2
=	27.4	0.0	12.0	3.1
=	27.6	0.0	12.0	3.0
=	27.7	0.0	12.0	2.9
=	28.0	0.0	12.0	2.8
=	28.2	0.0	12.0	2.7
=	28.4	0.0	12.0	2.7
=	28.6	0.0	12.0	2.6
=	28.7	0.0	12.0	2.6
=	29.0	0.0	12.0	2.5
=	29.2	0.0	12.0	2.5
=	29.4	0.0	12.0	2.5
=	29.6	0.0	12.0	2.4
=	29.7	0.0	12.0	2.4
=	30.0	0.0	12.0	2.3
=	30.2	0.0	12.0	2.3
=	30.5	0.0	12.0	2.3
=	30.7	0.0	12.0	2.2
=	30.8	0.0	12.0	2.2
=	31.0	0.0	12.0	2.2
=	31.2	0.0	12.0	2.2
=	31.5	0.0	12.0	2.1
=	31.7	0.0	12.0	2.1
=	31.9	0.0	12.0	2.1
=	32.0	0.0	12.0	2.1
=	32.2	0.0	12.0	2.0
=	32.5	0.0	12.0	2.0
=	32.6	0.0	12.0	2.0
=	32.9	0.0	12.0	2.0
=	33.1	0.0	12.0	2.0
=	33.2	0.0	12.0	1.9
=	33.5	0.0	12.0	1.9
=	33.7	0.0	12.0	1.9
=	33.8	0.0	12.0	1.9
=	34.1	0.0	12.0	1.9
=	34.3	0.0	12.0	1.8
=	34.5	0.0	12.0	1.8
=	34.7	0.0	12.0	1.8
=	34.9	0.0	12.0	1.8
=	35.0	0.0	12.0	1.8
=	35.2	0.0	12.0	1.8
=	35.5	0.0	12.0	1.7
=	35.7	0.0	12.0	1.7
=	35.9	0.0	12.0	1.7
=	36.1	0.0	12.0	1.7
=	36.3	0.0	12.0	1.7
=	36.5	0.0	12.0	1.6
=	36.7	0.0	12.0	1.6
=	36.9	0.0	12.0	1.6
=	37.1	0.0	12.0	1.6
=	37.2	0.0	12.0	1.6
=	37.3	0.0	12.0	1.6
=	37.5	0.0	12.0	1.6
=	37.7	0.0	12.0	1.6
=	37.9	0.0	12.0	1.6
=	38.1	0.0	12.0	1.6
=	38.3	0.0	12.0	1.6
=	38.5	0.0	12.0	1.5
=	38.7	0.0	12.0	1.5
=	38.9	0.0	12.0	1.5
=	39.1	0.0	12.0	1.5
=	39.2	0.0	12.0	1.5
=	39.6	0.0	12.0	1.5
=	39.7	0.0	12.0	1.5
=	39.8	0.0	12.0	1.5
=	40.2	0.0	12.0	1.4
=	40.3	0.0	12.0	1.4
=	40.6	0.0	12.0	1.4
=	40.7	0.0	12.0	1.4
=	40.9	0.0	12.0	1.4
=	41.2	0.0	12.0	1.4
=	41.4	0.0	12.0	1.4
=	41.6	0.0	12.0	1.4
=	41.7	0.0	12.0	1.4
=	41.9	0.0	12.0	1.4
=	42.2	0.0	12.0	1.3
=	42.3	0.0	12.0	1.3
=	42.4	0.0	12.0	1.3
=	42.6	0.0	12.0	1.3
=	42.7	0.0	12.0	1.3
=	42.9	0.0	12.0	1.3
=	43.2	0.0	12.0	1.3
=	43.4	0.0	12.0	1.3
=	43.6	0.0	12.0	1.3
=	43.8	0.0	12.0	1.2
=	43.9	0.0	12.0	1.2
=	44.2	0.0	12.0	1.2
=	44.4	0.0	12.0	1.2
=	44.6	0.0	12.0	1.2
=	44.8	0.0	12.0	1.2
=	44.9	0.0	12.0	1.2
=	45.0	0.0	12.0	1.2
=	45.2	0.0	12.0	1.2
=	45.4	0.0	12.0	1.2
=	45.6	0.0	12.0	1.2
=	45.7	0.0	12.0	1.2
=	46.0	0.0	12.0	1.2
=	46.2	0.0	12.0	1.2
=	46.4	0.0	12.0	1.2
=	46.6	0.0	12.0	1.2
=	46.8	0.0	12.0	1.2
=	46.9	0.0	12.0	1.1
=	47.2	0.0	12.0	1.1
=	47.4	0.0	12.0	1.1
=	47.6	0.0	12.0	1.1
=	47.9	0.0	12.0	1.1
=	48.0	0.0	12.0	1.1
=	48.2	0.0	12.0	1.1
=	48.5	0.0	12.0	1.1
=	48.6	0.0	12.0	1.1
=	48.8	0.0	12.0	1.1
=	49.0	0.0	12.0	1.1
=	49.1	0.0	12.0	1.1
=	49.2	0.0	12.0	1.1
=	49.5	0.0	12.0	1.1
=	49.7	0.0	12.0	1.1
=	49.9	0.0	12.0	1.1
=	50.0	0.0	12.0	1.1
=	50.3	0.0	12.0	1.0
=	50.5	0.0	12.0	1.0
=	50.7	0.0	12.0	1.0
=	50.9	0.0	12.0	1.0
=	51.0	0.0	12.0	1.0
=	51.3	0.0	12.0	1.0
=	51.5	0.0	12.0	1.0
=	51.7	0.0	12.0	1.0
=	51.8	0.0	12.0	1.0
=	52.0	0.0	12.0	1.0
=	52.1	0.0	12.0	1.0
=	52.3	0.0	12.0	1.0
=	52.5	0.0	12.0	1.0
=	52.7	0.0	12.0	1.0
=	53.0	0.0	12.0	1.0
=	53.2	0.0	12.0	1.0
=	53.3	0.0	12.0	1.0
=	53.5	0.0	12.0	1.0
=	53.8	0.0	12.0	1.0
=	53.9	0.0	12.0	1.0
=	54.1	0.0	12.0	1.0
=	54.3	0.0	12.0	1.0
=	54.5	0.0	12.0	0.9
=	54.8	0.0	12.0	0.9
=	55.0	0.0	12.0	0.9
=	55.2	0.0	12.0	0.9
=	55.4	0.0	12.0	0.9
=	55.6	0.0	12.0	0.9
=	55.7	0.0	12.0	0.9
=	56.0	0.0	12.0	0.9
=	56.2	0.0	12.0	0.9
=	56.4	0.0	12.0	0.9
=	56.6	0.0	12.0	0.9
=	56.8	0.0	12.0	0.9
=	57.0	0.0	12.0	0.9
=	57.1	0.0	12.0	0.9
=	57.4	0.0	12.0	0.9
=	57.6	0.0	12.0	0.9
=	57.7	0.0	12.0	0.9
=	57.8	0.0	12.0	0.9
=	58.0	0.0	12.0	0.9
=	58.1	0.0	12.0	0.9
=	58.2	0.0	12.0	0.9
=	58.4	0.0	12.0	0.9
=	58.6	0.0	12.0	0.9
=	58.7	0.0	12.0	0.9
=	58.8	0.0	12.0	0.9
=	59.0	0.0	12.0	0.9
=	59.2	0.0	12.0	0.9
=	59.4	0.0	12.0	0.9
=	59.6	0.0	12.0	0.9
=	59.8	0.0	12.0	0.9
=	60.1	0.0	12.0	0.9
=	60.2	0.0	12.0	0.9
=	60.4	0.0	12.0	0.8
=	60.6	0.0	12.0	0.8
=	60.8	0.0	12.0	0.8
=	60.9	0.0	12.0	0.8
=	61.1	0.0	12.0	0.8
=	61.3	0.0	12.0	0.8
=	61.5	0.0	12.0	0.8
=	61.6	0.0	12.0	0.8
=	61.8	0.0	12.0	0.8
=	61.9	0.0	12.0	0.8
=	62.1	0.0	12.0	0.8
=	62.3	0.0	12.0	0.8
=	62.5	0.0	12.0	0.8
=	62.6	0.0	12.0	0.8
=	62.7	0.0	12.0	0.8
=	62.9	0.0	12.0	0.8
=	63.1	0.0	12.0	0.8
=	63.3	0.0	12.0	0.8
=	63.5	0.0	12.0	0.8
=	63.7	0.0	12.0	0.8
=	63.9	0.0	12.0	0.8
=	64.1	0.0	12.0	0.8
=	64.3	0.0	12.0	0.8
=	64.5	0.0	12.0	0.8
=	64.6	0.0	12.0	0.8
=	64.8	0.0	12.0	0.8
=	65.0	0.0	12.0	0.8
=	65.1	0.0	12.0	0.8
=	65.3	0.0	12.0	0.8
=	65.5	0.0	12.0	0.8
=	65.8	0.0	12.0	0.8
=	66.0	0.0	12.0	0.8
=	66.1	0.0	12.0	0.8
=	66.3	0.0	12.0	0.8
=	66.6	0.0	12.0	0.8
=	66.7	0.0	12.0	0.8
=	66.8	0.0	12.0	0.8
=	67.0	0.0	12.0	0.8
=	67.2	0.0	12.0	0.8
=	67.3	0.0	12.0	0.8
=	67.6	0.0	12.0	0.8
=	67.8	0.0	12.0	0.8
=	68.0	0.0	12.0	0.8
=	68.2	0.0	12.0	0.8
=	68.4	0.0	12.0	0.8
=	68.6	0.0	12.0	0.8
=	68.8	0.0	12.0	0.8
=	69.0	0.0	12.0	0.8
=	69.2	0.0	12.0	0.8
=	69.4	0.0	12.0	0.8
=	69.6	0.0	12.0	0.8
=	69.7	0.0	12.0	0.8
=	69.9	0.0	12.0	0.8
=	70.0	0.0	12.0	0.8
=	70.2	0.0	12.0	0.8
=	70.3	0.0	12.0	0.7
=	70.6	0.0	12.0	0.7
=	70.7	0.0	12.0	0.7
=	70.8	0.0	12.0	0.7
=	71.0	0.0	12.0	0.7
=	71.2	0.0	12.0	0.7
=	71.3	0.0	12.0	0.7
=	71.6	0.0	12.0	0.7
=	71.8	0.0	12.0	0.7
=	72.1	0.0	12.0	0.7
=	72.2	0.0	12.0	0.7
=	72.4	0.0	12.0	0.7
=	72.7	0.0	12.0	0.7
=	72.9	0.0	12.0	0.7
=	73.1	0.0	12.0	0.7
=	73.2	0.0	12.0	0.7
=	73.4	0.0	12.0	0.7
=	73.7	0.0	12.0	0.7
=	73.9	0.0	12.0	0.7
=	74.1	0.0	12.0	0.7
=	74.3	0.0	12.0	0.7
=	74.4	0.0	12.0	0.7
=	74.7	0.0	12.0	0.7
=	74.9	0.0	12.0	0.7
=	75.1	0.0	12.0	0.7
=	75.3	0.0	12.0	0.7
=	75.4	0.0	12.0	0.7
=	75.7	0.0	12.0	0.7
=	75.9	0.0	12.0	0.7
=	76.1	0.0	12.0	0.7
=	76.3	0.0	12.0	0.7
=	76.4	0.0	12.0	0.7
=	76.5	0.0	12.0	0.7
=	76.7	0.0	12.0	0.7
=	76.9	0.0	12.0	0.7
=	77.1	0.0	12.0	0.7
=	77.3	0.0	12.0	0.7
=	77.4	0.0	12.0	0.7
=	77.5	0.0	12.0	0.7
=	77.7	0.0	12.0	0.7
=	77.9	0.0	12.0	0.7
=	78.1	0.0	12.0	0.7
=	78.3	0.0	12.0	0.7
=	78.4	0.0	12.0	0.7
=	78.5	0.0	12.0	0.7
=	78.8	0.0	12.0	0.7
=	79.0	0.0	12.0	0.7
=	79.2	0.0	12.0	0.7
=	79.3	0.0	12.0	0.7
=	79.5	0.0	12.0	0.7
=	79.7	0.0	12.0	0.7
=	79.9	0.0	12.0	0.7
=	80.1	0.0	12.0	0.7
=	80.3	0.0	12.0	0.7
=	80.4	0.0	12.0	0.7
=	80.5	0.0	12.0	0.7
=	80.7	0.0	12.0	0.7
=	80.8	0.0	12.0	0.7
=	81.0	0.0	12.0	0.7
=	81.2	0.0	12.0	0.7
=	81.4	0.0	12.0	0.7
=	81.5	0.0	12.0	0.7
=	81.7	0.0	12.0	0.7
=	81.9	0.0	12.0	0.7
=	82.0	0.0	12.0	0.7
=	82.1	0.0	12.0	0.7
=	82.4	0.0	12.0	0.7
=	82.5	0.0	12.0	0.7
=	82.8	0.0	12.0	0.6
=	82.9	0.0	12.0	0.6
=	83.0	0.0	12.0	0.6
=	83.2	0.0	12.0	0.6
=	83.4	0.0	12.0	0.6
=	83.5	0.0	12.0	0.6
=	83.8	0.0	12.0	0.6
=	84.0	0.0	12.0	0.6
=	84.2	0.0	12.0	0.6
=	84.4	0.0	12.0	0.6
=	84.5	0.0	12.0	0.6
=	84.8	0.0	12.0	0.6
=	85.0	0.0	12.0	0.6
=	85.2	0.0	12.0	0.6
=	85.4	0.0	12.0	0.6
=	85.6	0.0	12.0	0.6
=	85.8	0.0	12.0	0.6
=	85.9	0.0	12.0	0.6
=	86.1	0.0	12.0	0.6
=	86.2	0.0	12.0	0.6
=	86.4	0.0	12.0	0.6
=	86.6	0.0	12.0	0.6
=	86.8	0.0	12.0	0.6
=	86.9	0.0	12.0	0.6
=	87.1	0.0	12.0	0.6
=	87.4	0.0	12.0	0.6
=	87.6	0.0	12.0	0.6
=	87.8	0.0	12.0	0.6
=	88.0	0.0	12.0	0.6
=	88.1	0.0	12.0	0.6
=	88.2	0.0	12.0	0.6
=	88.4	0.0	12.0	0.6
=	88.6	0.0	12.0	0.6
=	88.9	0.0	12.0	0.6
=	89.0	0.0	12.0	0.6
=	89.1	0.0	12.0	0.6
=	89.3	0.0	12.0	0.6
=	89.5	0.0	12.0	0.6
=	89.6	0.0	12.0	0.6
=	89.9	0.0	12.0	0.6
=	90.0	0.0	12.0	0.6
=	90.1	0.0	12.0	0.6
:EOM # End of Measurement
#
# RFA300 ASCII Measurement Dump ( BDS format )
#
# Measurement number 	2
#
%VNR 1.0
%MOD 	RAT
%TYP 	SCN
%SCN 	PRO
%FLD 	ION
%DAT 	02-01-2012
%TIM 	12:00:00
%FSZ 	040	040
%BMT 	PHO	   4.0
%SSD 	1000
%BUP 	0
%BRD 	1000
%FSH 	1
%ASC 	0
%WEG 	15
%GPO 	0
%CPO 	0
%MEA 	6
%PRD 	50,0
%PTS 	501
%STS 	    -94.4	  0.0	   50.0 # Start Scan values in mm ( X , Y , Z )
%EDS 	    94.4	   0.0	   50.0 # End Scan values in mm ( X , Y , Z )
#
#	  X      Y      Z     Dose
#
=	-94.4	0.0	50.0	0.9
=	-94.1	0.0	50.0	0.8
=	-93.6	0.0	50.0	0.8
=	-93.2	0.0	50.0	0.8
=	-92.8	0.0	50.0	0.8
=	-92.4	0.0	50.0	0.8
=	-92.0	0.0	50.0	0.8
=	-91.6	0.0	50.0	0.8
=	-91.2	0.0	50.0	0.8
=	-90.8	0.0	50.0	0.8
=	-90.4	0.0	50.0	0.8
=	-90.0	0.0	50.0	0.8
=	-89.6	0.0	50.0	0.8
=	-89.2	0.0	50.0	0.8
=	-88.8	0.0	50.0	0.8
=	-88.5	0.0	50.0	0.8
=	-88.2	0.0	50.0	0.8
=	-87.8	0.0	50.0	0.8
=	-87.3	0.0	50.0	0.8
=	-86.9	0.0	50.0	0.9
=	-86.7	0.0	50.0	0.9
=	-86.3	0.0	50.0	0.9
=	-85.9	0.0	50.0	0.9
=	-85.5	0.0	50.0	0.9
=	-85.1	0.0	50.0	0.9
=	-84.7	0.0	50.0	0.9
=	-84.5	0.0	50.0	0.9
=	-84.1	0.0	50.0	0.9
=	-83.7	0.0	50.0	0.9
=	-83.3	0.0	50.0	0.9
=	-83.0	0.0	50.0	0.9
=	-82.6	0.0	50.0	0.9
=	-82.3	0.0	50.0	0.9
=	-81.9	0.0	50.0	0.9
=	-81.5	0.0	50.0	0.9
=	-81.0	0.0	50.0	0.9
=	-80.6	0.0	50.0	0.9
=	-80.2	0.0	50.0	0.9
=	-79.8	0.0	50.0	0.9
=	-79.5	0.0	50.0	0.9
=	-79.0	0.0	50.0	0.9
=	-78.6	0.0	50.0	0.9
=	-78.2	0.0	50.0	0.9
=	-77.8	0.0	50.0	0.9
=	-77.5	0.0	50.0	0.9
=	-77.2	0.0	50.0	1.0
=	-76.8	0.0	50.0	1.0
=	-76.5	0.0	50.0	1.0
=	-76.2	0.0	50.0	1.0
=	-75.7	0.0	50.0	1.0
=	-75.5	0.0	50.0	1.0
=	-75.2	0.0	50.0	1.0
=	-74.7	0.0	50.0	1.0
=	-74.5	0.0	50.0	1.0
=	-74.2	0.0	50.0	1.0
=	-73.7	0.0	50.0	1.0
=	-73.3	0.0	50.0	1.0
=	-72.9	0.0	50.0	1.0
=	-72.5	0.0	50.0	1.0
=	-72.1	0.0	50.0	1.0
=	-71.7	0.0	50.0	1.0
=	-71.3	0.0	50.0	1.0
=	-70.9	0.0	50.0	1.0
=	-70.4	0.0	50.0	1.1
=	-70.1	0.0	50.0	1.1
=	-69.7	0.0	50.0	1.1
=	-69.2	0.0	50.0	1.1
=	-68.8	0.0	50.0	1.1
=	-68.4	0.0	50.0	1.1
=	-68.1	0.0	50.0	1.1
=	-67.8	0.0	50.0	1.1
=	-67.4	0.0	50.0	1.1
=	-67.1	0.0	50.0	1.1
=	-66.6	0.0	50.0	1.1
=	-66.2	0.0	50.0	1.1
=	-65.8	0.0	50.0	1.1
=	-65.6	0.0	50.0	1.1
=	-65.2	0.0	50.0	1.2
=	-64.9	0.0	50.0	1.2
=	-64.4	0.0	50.0	1.2
=	-64.0	0.0	50.0	1.2
=	-63.8	0.0	50.0	1.2
=	-63.4	0.0	50.0	1.2
=	-63.0	0.0	50.0	1.2
=	-62.7	0.0	50.0	1.2
=	-62.4	0.0	50.0	1.2
=	-62.0	0.0	50.0	1.2
=	-61.7	0.0	50.0	1.2
=	-61.3	0.0	50.0	1.2
=	-61.0	0.0	50.0	1.2
=	-60.6	0.0	50.0	1.2
=	-60.1	0.0	50.0	1.3
=	-59.9	0.0	50.0	1.3
=	-59.5	0.0	50.0	1.3
=	-59.1	0.0	50.0	1.3
=	-58.9	0.0	50.0	1.3
=	-58.5	0.0	50.0	1.3
=	-58.1	0.0	50.0	1.3
=	-57.7	0.0	50.0	1.4
=	-57.3	0.0	50.0	1.4
=	-56.9	0.0	50.0	1.4
=	-56.7	0.0	50.0	1.4
=	-56.3	0.0	50.0	1.4
=	-55.9	0.0	50.0	1.4
=	-55.5	0.0	50.0	1.4
=	-55.0	0.0	50.0	1.5
=	-54.7	0.0	50.0	1.5
=	-54.3	0.0	50.0	1.5
=	-53.8	0.0	50.0	1.5
=	-53.4	0.0	50.0	1.5
=	-53.1	0.0	50.0	1.5
=	-52.7	0.0	50.0	1.5
=	-52.2	0.0	50.0	1.6
=	-51.8	0.0	50.0	1.6
=	-51.4	0.0	50.0	1.6
=	-51.0	0.0	50.0	1.6
=	-50.8	0.0	50.0	1.7
=	-50.4	0.0	50.0	1.7
=	-50.0	0.0	50.0	1.7
=	-49.6	0.0	50.0	1.7
=	-49.3	0.0	50.0	1.7
=	-49.0	0.0	50.0	1.8
=	-48.5	0.0	50.0	1.8
=	-48.2	0.0	50.0	1.8
=	-47.7	0.0	50.0	1.8
=	-47.3	0.0	50.0	1.9
=	-46.9	0.0	50.0	1.9
=	-46.6	0.0	50.0	1.9
=	-46.1	0.0	50.0	1.9
=	-45.7	0.0	50.0	2.0
=	-45.3	0.0	50.0	2.0
=	-44.9	0.0	50.0	2.1
=	-44.5	0.0	50.0	2.1
=	-44.1	0.0	50.0	2.1
=	-43.7	0.0	50.0	2.2
=	-43.3	0.0	50.0	2.2
=	-42.9	0.0	50.0	2.2
=	-42.5	0.0	50.0	2.2
=	-42.3	0.0	50.0	2.3
=	-41.8	0.0	50.0	2.3
=	-41.4	0.0	50.0	2.4
=	-41.1	0.0	50.0	2.4
=	-40.6	0.0	50.0	2.5
=	-40.2	0.0	50.0	2.5
=	-39.9	0.0	50.0	2.5
=	-39.6	0.0	50.0	2.6
=	-39.2	0.0	50.0	2.6
=	-38.8	0.0	50.0	2.7
=	-38.5	0.0	50.0	2.7
=	-38.2	0.0	50.0	2.8
=	-37.9	0.0	50.0	2.8
=	-37.6	0.0	50.0	2.8
=	-37.2	0.0	50.0	2.9
=	-36.8	0.0	50.0	3.0
=	-36.4	0.0	50.0	3.0
=	-36.0	0.0	50.0	3.1
=	-35.6	0.0	50.0	3.2
=	-35.2	0.0	50.0	3.3
=	-34.8	0.0	50.0	3.3
=	-34.4	0.0	50.0	3.4
=	-33.9	0.0	50.0	3.4
=	-33.6	0.0	50.0	3.5
=	-33.3	0.0	50.0	3.6
=	-32.9	0.0	50.0	3.6
=	-32.6	0.0	50.0	3.7
=	-32.1	0.0	50.0	3.8
=	-31.7	0.0	50.0	3.9
=	-31.3	0.0	50.0	4.0
=	-30.9	0.0	50.0	4.1
=	-30.5	0.0	50.0	4.3
=	-30.1	0.0	50.0	4.4
=	-29.7	0.0	50.0	4.5
=	-29.2	0.0	50.0	4.7
=	-28.8	0.0	50.0	4.9
=	-28.5	0.0	50.0	5.1
=	-28.0	0.0	50.0	5.4
=	-27.6	0.0	50.0	5.7
=	-27.3	0.0	50.0	6.0
=	-26.8	0.0	50.0	6.4
=	-26.4	0.0	50.0	6.9
=	-26.1	0.0	50.0	7.4
=	-25.6	0.0	50.0	8.2
=	-25.2	0.0	50.0	9.2
=	-24.8	0.0	50.0	10.5
=	-24.4	0.0	50.0	12.3
=	-24.0	0.0	50.0	14.2
=	-23.6	0.0	50.0	17.3
=	-23.2	0.0	50.0	20.2
=	-22.8	0.0	50.0	24.1
=	-22.4	0.0	50.0	28.5
=	-22.0	0.0	50.0	32.3
=	-21.6	0.0	50.0	37.8
=	-21.2	0.0	50.0	42.4
=	-20.8	0.0	50.0	47.6
=	-20.4	0.0	50.0	53.4
=	-20.0	0.0	50.0	58.0
=	-19.5	0.0	50.0	63.9
=	-19.2	0.0	50.0	68.5
=	-18.7	0.0	50.0	73.5
=	-18.3	0.0	50.0	78.1
=	-18.0	0.0	50.0	81.6
=	-17.5	0.0	50.0	86.2
=	-17.2	0.0	50.0	89.2
=	-16.9	0.0	50.0	91.2
=	-16.5	0.0	50.0	93.1
=	-16.1	0.0	50.0	95.1
=	-15.9	0.0	50.0	96.0
=	-15.5	0.0	50.0	97.1
=	-15.1	0.0	50.0	98.0
=	-14.9	0.0	50.0	98.3
=	-14.5	0.0	50.0	98.9
=	-14.1	0.0	50.0	99.3
=	-13.7	0.0	50.0	99.7
=	-13.2	0.0	50.0	100.1
=	-12.8	0.0	50.0	100.3
=	-12.4	0.0	50.0	100.3
=	-12.1	0.0	50.0	100.4
=	-11.8	0.0	50.0	100.5
=	-11.4	0.0	50.0	100.5
=	-11.1	0.0	50.0	100.6
=	-10.6	0.0	50.0	100.7
=	-10.2	0.0	50.0	100.7
=	-9.8	0.0	50.0	100.7
=	-9.4	0.0	50.0	100.8
=	-9.0	0.0	50.0	100.8
=	-8.6	0.0	50.0	100.8
=	-8.2	0.0	50.0	100.8
=	-7.9	0.0	50.0	100.8
=	-7.6	0.0	50.0	100.8
=	-7.2	0.0	50.0	100.8
=	-6.8	0.0	50.0	100.8
=	-6.5	0.0	50.0	100.7
=	-6.1	0.0	50.0	100.7
=	-5.8	0.0	50.0	100.7
=	-5.4	0.0	50.0	100.6
=	-5.0	0.0	50.0	100.6
=	-4.7	0.0	50.0	100.6
=	-4.3	0.0	50.0	100.5
=	-3.9	0.0	50.0	100.5
=	-3.5	0.0	50.0	100.5
=	-3.1	0.0	50.0	100.4
=	-2.7	0.0	50.0	100.4
=	-2.3	0.0	50.0	100.3
=	-1.9	0.0	50.0	100.3
=	-1.7	0.0	50.0	100.2
=	-1.3	0.0	50.0	100.2
=	-0.9	0.0	50.0	100.2
=	-0.4	0.0	50.0	100.1
=	-0.1	0.0	50.0	100.0
=	0.4	0.0	50.0	99.9
=	0.8	0.0	50.0	99.9
=	1.1	0.0	50.0	99.8
=	1.5	0.0	50.0	99.8
=	1.8	0.0	50.0	99.7
=	2.2	0.0	50.0	99.7
=	2.6	0.0	50.0	99.6
=	3.0	0.0	50.0	99.6
=	3.4	0.0	50.0	99.6
=	3.6	0.0	50.0	99.5
=	4.0	0.0	50.0	99.5
=	4.4	0.0	50.0	99.4
=	4.9	0.0	50.0	99.2
=	5.3	0.0	50.0	99.2
=	5.7	0.0	50.0	99.1
=	6.1	0.0	50.0	98.9
=	6.4	0.0	50.0	98.9
=	6.7	0.0	50.0	98.9
=	7.1	0.0	50.0	98.8
=	7.5	0.0	50.0	98.8
=	7.9	0.0	50.0	98.7
=	8.3	0.0	50.0	98.5
=	8.6	0.0	50.0	98.4
=	8.9	0.0	50.0	98.3
=	9.1	0.0	50.0	98.2
=	9.5	0.0	50.0	98.1
=	9.7	0.0	50.0	98.1
=	10.1	0.0	50.0	98.0
=	10.5	0.0	50.0	97.9
=	10.9	0.0	50.0	97.7
=	11.4	0.0	50.0	97.5
=	11.8	0.0	50.0	97.3
=	12.1	0.0	50.0	97.1
=	12.5	0.0	50.0	96.9
=	12.8	0.0	50.0	96.7
=	13.2	0.0	50.0	96.5
=	13.5	0.0	50.0	96.2
=	13.8	0.0	50.0	96.0
=	14.2	0.0	50.0	95.6
=	14.6	0.0	50.0	95.0
=	15.0	0.0	50.0	94.4
=	15.4	0.0	50.0	93.7
=	15.8	0.0	50.0	92.5
=	16.2	0.0	50.0	91.2
=	16.6	0.0	50.0	89.3
=	17.0	0.0	50.0	87.4
=	17.4	0.0	50.0	84.6
=	17.9	0.0	50.0	81.2
=	18.3	0.0	50.0	77.7
=	18.7	0.0	50.0	73.5
=	19.1	0.0	50.0	68.5
=	19.5	0.0	50.0	64.0
=	19.9	0.0	50.0	59.0
=	20.3	0.0	50.0	54.4
=	20.7	0.0	50.0	49.5
=	21.1	0.0	50.0	44.3
=	21.4	0.0	50.0	40.5
=	21.9	0.0	50.0	34.8
=	22.3	0.0	50.0	30.6
=	22.7	0.0	50.0	26.2
=	23.1	0.0	50.0	22.0
=	23.5	0.0	50.0	19.0
=	24.0	0.0	50.0	15.5
=	24.3	0.0	50.0	13.3
=	24.6	0.0	50.0	12.0
=	25.0	0.0	50.0	10.3
=	25.3	0.0	50.0	9.2
=	25.7	0.0	50.0	8.2
=	26.2	0.0	50.0	7.3
=	26.5	0.0	50.0	6.8
=	26.8	0.0	50.0	6.4
=	27.2	0.0	50.0	6.0
=	27.5	0.0	50.0	5.7
=	27.8	0.0	50.0	5.4
=	28.2	0.0	50.0	5.2
=	28.5	0.0	50.0	5.0
=	29.0	0.0	50.0	4.7
=	29.4	0.0	50.0	4.6
=	29.7	0.0	50.0	4.5
=	30.0	0.0	50.0	4.3
=	30.4	0.0	50.0	4.2
=	30.7	0.0	50.0	4.1
=	31.0	0.0	50.0	4.0
=	31.4	0.0	50.0	3.9
=	31.7	0.0	50.0	3.8
=	32.0	0.0	50.0	3.7
=	32.4	0.0	50.0	3.7
=	32.6	0.0	50.0	3.6
=	33.0	0.0	50.0	3.5
=	33.4	0.0	50.0	3.5
=	33.7	0.0	50.0	3.4
=	34.1	0.0	50.0	3.3
=	34.5	0.0	50.0	3.3
=	34.9	0.0	50.0	3.2
=	35.3	0.0	50.0	3.1
=	35.6	0.0	50.0	3.1
=	35.9	0.0	50.0	3.0
=	36.3	0.0	50.0	3.0
=	36.6	0.0	50.0	2.9
=	36.9	0.0	50.0	2.9
=	37.3	0.0	50.0	2.8
=	37.6	0.0	50.0	2.8
=	37.9	0.0	50.0	2.7
=	38.3	0.0	50.0	2.7
=	38.6	0.0	50.0	2.7
=	38.9	0.0	50.0	2.6
=	39.3	0.0	50.0	2.5
=	39.7	0.0	50.0	2.5
=	40.1	0.0	50.0	2.4
=	40.5	0.0	50.0	2.4
=	40.8	0.0	50.0	2.4
=	41.1	0.0	50.0	2.3
=	41.5	0.0	50.0	2.3
=	41.7	0.0	50.0	2.3
=	42.2	0.0	50.0	2.2
=	42.6	0.0	50.0	2.2
=	43.0	0.0	50.0	2.2
=	43.4	0.0	50.0	2.1
=	43.7	0.0	50.0	2.1
=	44.2	0.0	50.0	2.0
=	44.5	0.0	50.0	2.0
=	45.0	0.0	50.0	2.0
=	45.4	0.0	50.0	1.9
=	45.7	0.0	50.0	1.9
=	46.2	0.0	50.0	1.9
=	46.6	0.0	50.0	1.9
=	47.0	0.0	50.0	1.8
=	47.5	0.0	50.0	1.8
=	47.8	0.0	50.0	1.8
=	48.2	0.0	50.0	1.8
=	48.6	0.0	50.0	1.7
=	49.0	0.0	50.0	1.7
=	49.5	0.0	50.0	1.7
=	49.7	0.0	50.0	1.7
=	50.1	0.0	50.0	1.6
=	50.5	0.0	50.0	1.6
=	50.8	0.0	50.0	1.6
=	51.3	0.0	50.0	1.6
=	51.7	0.0	50.0	1.6
=	52.1	0.0	50.0	1.5
=	52.5	0.0	50.0	1.5
=	52.8	0.0	50.0	1.5
=	53.1	0.0	50.0	1.5
=	53.5	0.0	50.0	1.5
=	53.8	0.0	50.0	1.5
=	54.1	0.0	50.0	1.4
=	54.5	0.0	50.0	1.4
=	54.9	0.0	50.0	1.4
=	55.3	0.0	50.0	1.4
=	55.8	0.0	50.0	1.4
=	56.1	0.0	50.0	1.4
=	56.6	0.0	50.0	1.4
=	56.9	0.0	50.0	1.3
=	57.4	0.0	50.0	1.3
=	57.8	0.0	50.0	1.3
=	58.0	0.0	50.0	1.3
=	58.4	0.0	50.0	1.3
=	58.8	0.0	50.0	1.3
=	59.2	0.0	50.0	1.3
=	59.6	0.0	50.0	1.2
=	60.0	0.0	50.0	1.2
=	60.4	0.0	50.0	1.2
=	60.8	0.0	50.0	1.2
=	61.2	0.0	50.0	1.2
=	61.6	0.0	50.0	1.2
=	62.1	0.0	50.0	1.2
=	62.4	0.0	50.0	1.2
=	62.7	0.0	50.0	1.2
=	63.1	0.0	50.0	1.2
=	63.5	0.0	50.0	1.1
=	63.9	0.0	50.0	1.1
=	64.2	0.0	50.0	1.1
=	64.7	0.0	50.0	1.1
=	65.1	0.0	50.0	1.1
=	65.5	0.0	50.0	1.1
=	65.9	0.0	50.0	1.1
=	66.3	0.0	50.0	1.1
=	66.7	0.0	50.0	1.1
=	67.2	0.0	50.0	1.1
=	67.5	0.0	50.0	1.1
=	68.0	0.0	50.0	1.0
=	68.3	0.0	50.0	1.0
=	68.6	0.0	50.0	1.0
=	69.0	0.0	50.0	1.0
=	69.4	0.0	50.0	1.0
=	69.6	0.0	50.0	1.0
=	70.0	0.0	50.0	1.0
=	70.4	0.0	50.0	1.0
=	70.7	0.0	50.0	1.0
=	71.0	0.0	50.0	1.0
=	71.4	0.0	50.0	1.0
=	71.8	0.0	50.0	1.0
=	72.3	0.0	50.0	1.0
=	72.6	0.0	50.0	1.0
=	72.8	0.0	50.0	1.0
=	73.3	0.0	50.0	0.9
=	73.7	0.0	50.0	0.9
=	74.0	0.0	50.0	0.9
=	74.5	0.0	50.0	0.9
=	74.9	0.0	50.0	0.9
=	75.1	0.0	50.0	0.9
=	75.5	0.0	50.0	0.9
=	75.9	0.0	50.0	0.9
=	76.3	0.0	50.0	0.9
