:MSR 	1	 # No. of measurement in file
:SYS BDS 0   # Beam Data Scanner System
#
# RFA300 ASCII Measurement Dump ( BDS format )
#
# Measurement number 	1
#
%VNR 1.0
%MOD 	RAT
%TYP 	SCN
%SCN 	PRO
%FLD 	ION
%DAT 	02-09-2012
%TIM 	12:00:00
%FSZ 	400	400
%BMT 	ELE	   18.0
%SSD 	
%BUP 	0
%BRD 	
%FSH 	1
%ASC 	0
%WEG 	0
%GPO 	0
%CPO 	0
%MEA 	2
%PRD 	0,0
%PTS 	713
%STS 	    -226.0	  0.0	   0.0 # Start Scan values in mm ( X , Y , Z )
%EDS 	    239.4	   0.0	   0.0 # End Scan values in mm ( X , Y , Z )
#
#	  X      Y      Z     Dose
#
=	-226.0	0.0	0.0	4.5
=	-225.3	0.0	0.0	4.8
=	-224.7	0.0	0.0	5.0
=	-224.3	0.0	0.0	5.1
=	-223.9	0.0	0.0	5.3
=	-223.4	0.0	0.0	5.6
=	-222.9	0.0	0.0	5.8
=	-222.5	0.0	0.0	6.0
=	-221.9	0.0	0.0	6.3
=	-221.5	0.0	0.0	6.6
=	-221.1	0.0	0.0	6.8
=	-220.7	0.0	0.0	7.1
=	-220.1	0.0	0.0	7.4
=	-219.7	0.0	0.0	7.7
=	-219.2	0.0	0.0	8.1
=	-218.7	0.0	0.0	8.5
=	-218.2	0.0	0.0	8.9
=	-217.8	0.0	0.0	9.3
=	-217.4	0.0	0.0	9.6
=	-216.9	0.0	0.0	10.2
=	-216.3	0.0	0.0	10.8
=	-215.7	0.0	0.0	11.5
=	-215.1	0.0	0.0	12.2
=	-214.4	0.0	0.0	13.0
=	-213.9	0.0	0.0	13.7
=	-213.3	0.0	0.0	14.6
=	-212.7	0.0	0.0	15.4
=	-212.0	0.0	0.0	16.4
=	-211.5	0.0	0.0	17.4
=	-210.9	0.0	0.0	18.4
=	-210.3	0.0	0.0	19.4
=	-209.6	0.0	0.0	20.5
=	-209.1	0.0	0.0	21.6
=	-208.4	0.0	0.0	22.8
=	-207.9	0.0	0.0	24.0
=	-207.2	0.0	0.0	25.2
=	-206.6	0.0	0.0	26.5
=	-206.0	0.0	0.0	27.7
=	-205.4	0.0	0.0	29.0
=	-204.8	0.0	0.0	30.4
=	-204.2	0.0	0.0	31.7
=	-203.6	0.0	0.0	32.9
=	-203.0	0.0	0.0	34.4
=	-202.4	0.0	0.0	35.7
=	-201.8	0.0	0.0	37.1
=	-201.2	0.0	0.0	38.4
=	-200.6	0.0	0.0	39.7
=	-200.0	0.0	0.0	41.1
=	-199.4	0.0	0.0	42.3
=	-198.8	0.0	0.0	43.6
=	-198.2	0.0	0.0	44.7
=	-197.6	0.0	0.0	46.0
=	-197.0	0.0	0.0	47.2
=	-196.4	0.0	0.0	48.3
=	-195.7	0.0	0.0	49.4
=	-195.1	0.0	0.0	50.4
=	-194.6	0.0	0.0	51.4
=	-194.0	0.0	0.0	52.4
=	-193.5	0.0	0.0	53.2
=	-193.0	0.0	0.0	54.0
=	-192.3	0.0	0.0	55.0
=	-191.7	0.0	0.0	55.8
=	-191.1	0.0	0.0	56.7
=	-190.5	0.0	0.0	57.6
=	-189.9	0.0	0.0	58.3
=	-189.3	0.0	0.0	59.1
=	-188.7	0.0	0.0	59.9
=	-188.1	0.0	0.0	60.6
=	-187.5	0.0	0.0	61.3
=	-186.9	0.0	0.0	62.0
=	-186.3	0.0	0.0	62.7
=	-185.7	0.0	0.0	63.3
=	-185.1	0.0	0.0	64.0
=	-184.6	0.0	0.0	64.5
=	-184.0	0.0	0.0	65.1
=	-183.4	0.0	0.0	65.8
=	-182.9	0.0	0.0	66.3
=	-182.2	0.0	0.0	66.9
=	-181.6	0.0	0.0	67.5
=	-181.2	0.0	0.0	67.9
=	-180.6	0.0	0.0	68.5
=	-180.0	0.0	0.0	69.0
=	-179.4	0.0	0.0	69.6
=	-178.8	0.0	0.0	70.2
=	-178.2	0.0	0.0	70.7
=	-177.6	0.0	0.0	71.3
=	-177.0	0.0	0.0	71.8
=	-176.4	0.0	0.0	72.4
=	-175.8	0.0	0.0	72.9
=	-175.2	0.0	0.0	73.5
=	-174.6	0.0	0.0	74.0
=	-174.0	0.0	0.0	74.5
=	-173.3	0.0	0.0	75.0
=	-172.8	0.0	0.0	75.6
=	-172.1	0.0	0.0	76.1
=	-171.6	0.0	0.0	76.5
=	-170.9	0.0	0.0	77.1
=	-170.3	0.0	0.0	77.6
=	-169.7	0.0	0.0	78.1
=	-169.2	0.0	0.0	78.5
=	-168.5	0.0	0.0	79.1
=	-167.9	0.0	0.0	79.5
=	-167.3	0.0	0.0	80.0
=	-166.7	0.0	0.0	80.5
=	-166.2	0.0	0.0	80.9
=	-165.6	0.0	0.0	81.3
=	-164.9	0.0	0.0	81.8
=	-164.3	0.0	0.0	82.3
=	-163.8	0.0	0.0	82.6
=	-163.4	0.0	0.0	82.9
=	-163.0	0.0	0.0	83.2
=	-162.6	0.0	0.0	83.5
=	-162.0	0.0	0.0	84.0
=	-161.4	0.0	0.0	84.4
=	-160.8	0.0	0.0	84.8
=	-160.3	0.0	0.0	85.1
=	-159.6	0.0	0.0	85.5
=	-159.0	0.0	0.0	86.0
=	-158.4	0.0	0.0	86.5
=	-157.6	0.0	0.0	87.0
=	-156.8	0.0	0.0	87.6
=	-156.3	0.0	0.0	87.9
=	-155.8	0.0	0.0	88.2
=	-155.3	0.0	0.0	88.5
=	-154.4	0.0	0.0	89.0
=	-153.9	0.0	0.0	89.4
=	-153.2	0.0	0.0	89.7
=	-152.7	0.0	0.0	90.0
=	-152.1	0.0	0.0	90.4
=	-151.6	0.0	0.0	90.8
=	-151.0	0.0	0.0	91.1
=	-150.4	0.0	0.0	91.4
=	-149.8	0.0	0.0	91.7
=	-149.2	0.0	0.0	92.0
=	-148.5	0.0	0.0	92.4
=	-147.6	0.0	0.0	92.9
=	-147.1	0.0	0.0	93.2
=	-146.4	0.0	0.0	93.5
=	-145.8	0.0	0.0	93.8
=	-145.2	0.0	0.0	94.2
=	-144.6	0.0	0.0	94.5
=	-144.1	0.0	0.0	94.7
=	-143.4	0.0	0.0	95.0
=	-142.8	0.0	0.0	95.3
=	-141.9	0.0	0.0	95.6
=	-141.3	0.0	0.0	95.9
=	-140.8	0.0	0.0	96.1
=	-140.4	0.0	0.0	96.2
=	-140.0	0.0	0.0	96.4
=	-139.4	0.0	0.0	96.7
=	-138.8	0.0	0.0	96.9
=	-138.2	0.0	0.0	97.2
=	-137.6	0.0	0.0	97.4
=	-137.0	0.0	0.0	97.6
=	-136.4	0.0	0.0	97.8
=	-135.8	0.0	0.0	98.0
=	-135.2	0.0	0.0	98.3
=	-134.6	0.0	0.0	98.5
=	-134.0	0.0	0.0	98.7
=	-133.3	0.0	0.0	98.8
=	-132.7	0.0	0.0	99.0
=	-132.1	0.0	0.0	99.3
=	-131.5	0.0	0.0	99.4
=	-130.9	0.0	0.0	99.6
=	-130.3	0.0	0.0	99.8
=	-129.7	0.0	0.0	100.0
=	-129.2	0.0	0.0	100.1
=	-128.8	0.0	0.0	100.3
=	-128.4	0.0	0.0	100.4
=	-128.0	0.0	0.0	100.5
=	-127.6	0.0	0.0	100.5
=	-127.0	0.0	0.0	100.6
=	-126.4	0.0	0.0	100.8
=	-126.0	0.0	0.0	100.9
=	-125.4	0.0	0.0	101.0
=	-124.8	0.0	0.0	101.2
=	-124.2	0.0	0.0	101.3
=	-123.6	0.0	0.0	101.4
=	-122.9	0.0	0.0	101.6
=	-122.4	0.0	0.0	101.7
=	-121.7	0.0	0.0	101.7
=	-121.2	0.0	0.0	101.8
=	-120.8	0.0	0.0	101.9
=	-120.4	0.0	0.0	102.0
=	-120.0	0.0	0.0	102.0
=	-119.6	0.0	0.0	102.0
=	-119.0	0.0	0.0	102.2
=	-118.4	0.0	0.0	102.2
=	-117.7	0.0	0.0	102.3
=	-117.1	0.0	0.0	102.4
=	-116.6	0.0	0.0	102.5
=	-115.7	0.0	0.0	102.6
=	-114.5	0.0	0.0	102.7
=	-113.3	0.0	0.0	102.7
=	-112.4	0.0	0.0	102.8
=	-111.8	0.0	0.0	102.8
=	-111.3	0.0	0.0	102.8
=	-110.6	0.0	0.0	102.9
=	-110.1	0.0	0.0	102.9
=	-109.4	0.0	0.0	102.9
=	-108.4	0.0	0.0	103.0
=	-107.7	0.0	0.0	103.0
=	-107.1	0.0	0.0	103.0
=	-106.6	0.0	0.0	103.0
=	-106.0	0.0	0.0	103.1
=	-105.4	0.0	0.0	103.1
=	-104.7	0.0	0.0	103.1
=	-103.8	0.0	0.0	103.1
=	-103.2	0.0	0.0	103.1
=	-102.6	0.0	0.0	103.1
=	-102.0	0.0	0.0	103.1
=	-101.3	0.0	0.0	103.1
=	-100.7	0.0	0.0	103.0
=	-100.1	0.0	0.0	103.0
=	-99.5	0.0	0.0	103.0
=	-98.9	0.0	0.0	103.0
=	-98.3	0.0	0.0	102.9
=	-97.7	0.0	0.0	102.9
=	-97.1	0.0	0.0	102.9
=	-96.5	0.0	0.0	102.8
=	-95.8	0.0	0.0	102.8
=	-95.2	0.0	0.0	102.8
=	-94.6	0.0	0.0	102.8
=	-94.0	0.0	0.0	102.8
=	-93.3	0.0	0.0	102.8
=	-92.8	0.0	0.0	102.8
=	-92.1	0.0	0.0	102.7
=	-91.5	0.0	0.0	102.7
=	-90.9	0.0	0.0	102.6
=	-90.4	0.0	0.0	102.6
=	-89.9	0.0	0.0	102.5
=	-89.3	0.0	0.0	102.4
=	-88.7	0.0	0.0	102.4
=	-88.1	0.0	0.0	102.4
=	-87.7	0.0	0.0	102.4
=	-87.2	0.0	0.0	102.3
=	-86.6	0.0	0.0	102.3
=	-86.0	0.0	0.0	102.2
=	-85.4	0.0	0.0	102.2
=	-84.8	0.0	0.0	102.2
=	-84.2	0.0	0.0	102.1
=	-83.6	0.0	0.0	102.1
=	-82.9	0.0	0.0	102.0
=	-81.7	0.0	0.0	101.9
=	-80.5	0.0	0.0	101.9
=	-79.3	0.0	0.0	101.8
=	-78.4	0.0	0.0	101.7
=	-77.2	0.0	0.0	101.7
=	-76.0	0.0	0.0	101.6
=	-74.9	0.0	0.0	101.5
=	-74.2	0.0	0.0	101.4
=	-73.7	0.0	0.0	101.4
=	-73.1	0.0	0.0	101.3
=	-72.5	0.0	0.0	101.3
=	-71.6	0.0	0.0	101.3
=	-70.9	0.0	0.0	101.2
=	-70.3	0.0	0.0	101.2
=	-69.4	0.0	0.0	101.1
=	-68.4	0.0	0.0	101.0
=	-67.7	0.0	0.0	101.0
=	-67.1	0.0	0.0	101.0
=	-66.4	0.0	0.0	100.9
=	-65.9	0.0	0.0	100.9
=	-65.0	0.0	0.0	100.9
=	-63.7	0.0	0.0	100.8
=	-62.6	0.0	0.0	100.8
=	-62.0	0.0	0.0	100.7
=	-61.4	0.0	0.0	100.7
=	-60.8	0.0	0.0	100.7
=	-60.3	0.0	0.0	100.6
=	-59.8	0.0	0.0	100.6
=	-59.2	0.0	0.0	100.6
=	-58.6	0.0	0.0	100.6
=	-58.1	0.0	0.0	100.5
=	-57.7	0.0	0.0	100.5
=	-57.2	0.0	0.0	100.5
=	-56.7	0.0	0.0	100.5
=	-56.1	0.0	0.0	100.5
=	-55.5	0.0	0.0	100.4
=	-54.8	0.0	0.0	100.4
=	-54.2	0.0	0.0	100.4
=	-53.6	0.0	0.0	100.3
=	-53.0	0.0	0.0	100.3
=	-52.4	0.0	0.0	100.3
=	-51.8	0.0	0.0	100.3
=	-51.2	0.0	0.0	100.3
=	-50.8	0.0	0.0	100.3
=	-50.2	0.0	0.0	100.3
=	-49.5	0.0	0.0	100.2
=	-49.0	0.0	0.0	100.2
=	-48.3	0.0	0.0	100.2
=	-47.7	0.0	0.0	100.2
=	-47.1	0.0	0.0	100.1
=	-46.5	0.0	0.0	100.2
=	-45.9	0.0	0.0	100.2
=	-45.4	0.0	0.0	100.1
=	-44.8	0.0	0.0	100.1
=	-44.2	0.0	0.0	100.1
=	-43.6	0.0	0.0	100.1
=	-43.1	0.0	0.0	100.1
=	-42.5	0.0	0.0	100.1
=	-41.9	0.0	0.0	100.1
=	-41.3	0.0	0.0	100.1
=	-40.7	0.0	0.0	100.1
=	-39.7	0.0	0.0	100.0
=	-39.1	0.0	0.0	100.0
=	-37.9	0.0	0.0	100.0
=	-36.7	0.0	0.0	100.0
=	-35.5	0.0	0.0	100.0
=	-34.8	0.0	0.0	100.0
=	-34.3	0.0	0.0	100.0
=	-33.7	0.0	0.0	100.0
=	-33.1	0.0	0.0	100.0
=	-32.5	0.0	0.0	100.0
=	-31.9	0.0	0.0	100.0
=	-31.3	0.0	0.0	100.0
=	-30.7	0.0	0.0	100.0
=	-29.8	0.0	0.0	100.0
=	-28.9	0.0	0.0	100.0
=	-28.4	0.0	0.0	99.9
=	-27.7	0.0	0.0	99.9
=	-27.2	0.0	0.0	99.9
=	-26.1	0.0	0.0	99.9
=	-24.9	0.0	0.0	99.9
=	-24.1	0.0	0.0	99.9
=	-23.5	0.0	0.0	99.9
=	-22.9	0.0	0.0	99.9
=	-22.3	0.0	0.0	99.9
=	-21.7	0.0	0.0	99.9
=	-21.1	0.0	0.0	100.0
=	-20.4	0.0	0.0	100.0
=	-19.2	0.0	0.0	100.0
=	-18.1	0.0	0.0	100.0
=	-17.4	0.0	0.0	100.0
=	-16.8	0.0	0.0	100.0
=	-16.2	0.0	0.0	100.0
=	-15.6	0.0	0.0	100.0
=	-15.0	0.0	0.0	100.0
=	-14.4	0.0	0.0	100.0
=	-13.7	0.0	0.0	100.0
=	-12.9	0.0	0.0	100.0
=	-12.3	0.0	0.0	100.0
=	-11.5	0.0	0.0	100.0
=	-10.9	0.0	0.0	100.0
=	-10.3	0.0	0.0	100.0
=	-9.7	0.0	0.0	100.0
=	-9.1	0.0	0.0	100.0
=	-8.5	0.0	0.0	100.0
=	-7.9	0.0	0.0	100.0
=	-7.2	0.0	0.0	100.0
=	-6.6	0.0	0.0	100.0
=	-6.1	0.0	0.0	100.0
=	-5.6	0.0	0.0	100.0
=	-5.0	0.0	0.0	100.0
=	-4.5	0.0	0.0	100.0
=	-4.0	0.0	0.0	100.0
=	-3.4	0.0	0.0	100.0
=	-2.8	0.0	0.0	100.0
=	-2.1	0.0	0.0	100.0
=	-1.6	0.0	0.0	100.0
=	-0.9	0.0	0.0	100.0
=	0.0	0.0	0.0	100.0
=	0.1	0.0	0.0	100.0
=	1.0	0.0	0.0	100.0
=	2.2	0.0	0.0	100.0
=	3.0	0.0	0.0	100.0
=	3.8	0.0	0.0	100.0
=	4.5	0.0	0.0	100.0
=	5.1	0.0	0.0	100.0
=	5.8	0.0	0.0	100.0
=	6.6	0.0	0.0	100.0
=	7.2	0.0	0.0	100.0
=	7.8	0.0	0.0	100.0
=	8.4	0.0	0.0	100.0
=	9.0	0.0	0.0	100.1
=	9.6	0.0	0.0	100.1
=	10.2	0.0	0.0	100.1
=	10.8	0.0	0.0	100.0
=	11.4	0.0	0.0	100.0
=	12.0	0.0	0.0	100.0
=	12.6	0.0	0.0	100.0
=	13.2	0.0	0.0	100.0
=	13.8	0.0	0.0	100.0
=	14.4	0.0	0.0	100.0
=	15.0	0.0	0.0	100.0
=	16.0	0.0	0.0	100.0
=	17.1	0.0	0.0	100.0
=	17.8	0.0	0.0	100.0
=	18.5	0.0	0.0	100.0
=	19.1	0.0	0.0	100.0
=	19.8	0.0	0.0	100.0
=	20.4	0.0	0.0	100.0
=	21.0	0.0	0.0	100.0
=	21.6	0.0	0.0	100.0
=	22.2	0.0	0.0	100.0
=	22.8	0.0	0.0	100.0
=	23.4	0.0	0.0	100.0
=	24.0	0.0	0.0	100.0
=	24.4	0.0	0.0	100.0
=	24.8	0.0	0.0	100.0
=	25.4	0.0	0.0	100.0
=	26.0	0.0	0.0	100.0
=	26.6	0.0	0.0	100.1
=	27.1	0.0	0.0	100.1
=	27.6	0.0	0.0	100.1
=	28.1	0.0	0.0	100.1
=	28.8	0.0	0.0	100.1
=	29.4	0.0	0.0	100.1
=	30.0	0.0	0.0	100.1
=	30.6	0.0	0.0	100.1
=	31.2	0.0	0.0	100.1
=	31.9	0.0	0.0	100.1
=	32.5	0.0	0.0	100.1
=	33.1	0.0	0.0	100.1
=	33.7	0.0	0.0	100.1
=	34.3	0.0	0.0	100.0
=	34.9	0.0	0.0	100.0
=	35.5	0.0	0.0	100.1
=	36.1	0.0	0.0	100.1
=	36.8	0.0	0.0	100.1
=	37.4	0.0	0.0	100.1
=	38.0	0.0	0.0	100.1
=	38.5	0.0	0.0	100.1
=	39.0	0.0	0.0	100.1
=	39.7	0.0	0.0	100.2
=	40.3	0.0	0.0	100.2
=	40.9	0.0	0.0	100.2
=	41.4	0.0	0.0	100.2
=	41.9	0.0	0.0	100.2
=	42.6	0.0	0.0	100.2
=	43.3	0.0	0.0	100.2
=	44.0	0.0	0.0	100.2
=	44.7	0.0	0.0	100.2
=	45.3	0.0	0.0	100.2
=	46.0	0.0	0.0	100.2
=	46.7	0.0	0.0	100.3
=	47.3	0.0	0.0	100.3
=	48.0	0.0	0.0	100.4
=	48.7	0.0	0.0	100.4
=	49.3	0.0	0.0	100.4
=	49.9	0.0	0.0	100.4
=	50.5	0.0	0.0	100.4
=	51.3	0.0	0.0	100.4
=	52.1	0.0	0.0	100.5
=	52.7	0.0	0.0	100.5
=	53.3	0.0	0.0	100.5
=	53.9	0.0	0.0	100.5
=	54.5	0.0	0.0	100.5
=	55.1	0.0	0.0	100.5
=	55.7	0.0	0.0	100.5
=	56.4	0.0	0.0	100.6
=	57.0	0.0	0.0	100.6
=	57.6	0.0	0.0	100.6
=	58.2	0.0	0.0	100.6
=	58.8	0.0	0.0	100.7
=	59.2	0.0	0.0	100.7
=	59.8	0.0	0.0	100.7
=	60.4	0.0	0.0	100.8
=	61.1	0.0	0.0	100.8
=	61.7	0.0	0.0	100.8
=	62.3	0.0	0.0	100.8
=	62.9	0.0	0.0	100.9
=	63.5	0.0	0.0	100.9
=	64.1	0.0	0.0	101.0
=	64.8	0.0	0.0	101.0
=	65.4	0.0	0.0	101.0
=	66.0	0.0	0.0	101.0
=	66.6	0.0	0.0	101.0
=	67.2	0.0	0.0	101.1
=	67.8	0.0	0.0	101.1
=	68.4	0.0	0.0	101.1
=	69.0	0.0	0.0	101.2
=	69.6	0.0	0.0	101.2
=	70.2	0.0	0.0	101.2
=	70.9	0.0	0.0	101.3
=	71.5	0.0	0.0	101.3
=	72.1	0.0	0.0	101.4
=	72.7	0.0	0.0	101.4
=	73.1	0.0	0.0	101.5
=	73.8	0.0	0.0	101.5
=	74.4	0.0	0.0	101.5
=	74.9	0.0	0.0	101.6
=	75.4	0.0	0.0	101.6
=	76.0	0.0	0.0	101.6
=	76.6	0.0	0.0	101.7
=	77.2	0.0	0.0	101.7
=	77.8	0.0	0.0	101.7
=	78.5	0.0	0.0	101.8
=	79.1	0.0	0.0	101.8
=	79.7	0.0	0.0	101.9
=	80.3	0.0	0.0	101.9
=	81.0	0.0	0.0	102.0
=	81.6	0.0	0.0	102.0
=	82.3	0.0	0.0	102.1
=	83.0	0.0	0.0	102.1
=	83.6	0.0	0.0	102.1
=	84.2	0.0	0.0	102.2
=	84.8	0.0	0.0	102.2
=	85.4	0.0	0.0	102.3
=	86.0	0.0	0.0	102.3
=	87.0	0.0	0.0	102.4
=	88.1	0.0	0.0	102.5
=	88.9	0.0	0.0	102.5
=	89.6	0.0	0.0	102.5
=	90.4	0.0	0.0	102.6
=	91.0	0.0	0.0	102.6
=	91.6	0.0	0.0	102.6
=	92.2	0.0	0.0	102.7
=	92.8	0.0	0.0	102.7
=	93.3	0.0	0.0	102.7
=	93.9	0.0	0.0	102.7
=	94.4	0.0	0.0	102.7
=	94.9	0.0	0.0	102.8
=	95.5	0.0	0.0	102.8
=	96.1	0.0	0.0	102.8
=	96.7	0.0	0.0	102.9
=	97.3	0.0	0.0	102.9
=	97.9	0.0	0.0	102.9
=	98.4	0.0	0.0	102.9
=	98.9	0.0	0.0	103.0
=	99.5	0.0	0.0	103.0
=	100.2	0.0	0.0	103.0
=	100.8	0.0	0.0	103.0
=	101.4	0.0	0.0	103.0
=	102.0	0.0	0.0	103.0
=	102.6	0.0	0.0	103.0
=	103.2	0.0	0.0	103.0
=	103.7	0.0	0.0	103.0
=	104.3	0.0	0.0	103.0
=	104.9	0.0	0.0	103.0
=	105.5	0.0	0.0	103.0
=	106.1	0.0	0.0	103.0
=	106.7	0.0	0.0	103.0
=	107.4	0.0	0.0	103.0
=	107.9	0.0	0.0	103.0
=	108.8	0.0	0.0	102.9
=	109.5	0.0	0.0	102.9
=	110.4	0.0	0.0	102.9
=	111.5	0.0	0.0	102.8
=	112.2	0.0	0.0	102.8
=	112.9	0.0	0.0	102.7
=	113.6	0.0	0.0	102.7
=	114.4	0.0	0.0	102.6
=	115.0	0.0	0.0	102.5
=	115.6	0.0	0.0	102.5
=	116.2	0.0	0.0	102.4
=	116.9	0.0	0.0	102.4
=	117.5	0.0	0.0	102.3
=	118.1	0.0	0.0	102.2
=	118.7	0.0	0.0	102.2
=	119.3	0.0	0.0	102.1
=	119.9	0.0	0.0	102.0
=	120.5	0.0	0.0	101.9
=	121.1	0.0	0.0	101.9
=	121.7	0.0	0.0	101.8
=	122.4	0.0	0.0	101.6
=	123.0	0.0	0.0	101.5
=	123.6	0.0	0.0	101.4
=	124.2	0.0	0.0	101.4
=	124.8	0.0	0.0	101.2
=	125.4	0.0	0.0	101.1
=	126.0	0.0	0.0	100.9
=	126.4	0.0	0.0	100.8
=	127.0	0.0	0.0	100.7
=	127.6	0.0	0.0	100.6
=	128.2	0.0	0.0	100.4
=	128.8	0.0	0.0	100.2
=	129.4	0.0	0.0	100.0
=	130.0	0.0	0.0	99.9
=	130.6	0.0	0.0	99.8
=	131.2	0.0	0.0	99.6
=	131.9	0.0	0.0	99.4
=	132.9	0.0	0.0	99.2
=	134.2	0.0	0.0	98.8
=	135.1	0.0	0.0	98.4
=	135.7	0.0	0.0	98.3
=	136.2	0.0	0.0	98.1
=	136.6	0.0	0.0	98.0
=	137.1	0.0	0.0	97.8
=	137.8	0.0	0.0	97.5
=	138.2	0.0	0.0	97.3
=	138.8	0.0	0.0	97.2
=	139.4	0.0	0.0	96.9
=	140.0	0.0	0.0	96.7
=	140.7	0.0	0.0	96.4
=	141.2	0.0	0.0	96.0
=	141.9	0.0	0.0	95.8
=	142.5	0.0	0.0	95.6
=	143.1	0.0	0.0	95.3
=	143.7	0.0	0.0	95.1
=	144.1	0.0	0.0	94.9
=	144.5	0.0	0.0	94.7
=	145.0	0.0	0.0	94.4
=	145.4	0.0	0.0	94.2
=	145.8	0.0	0.0	94.0
=	146.3	0.0	0.0	93.9
=	146.9	0.0	0.0	93.6
=	147.6	0.0	0.0	93.3
=	148.1	0.0	0.0	92.9
=	148.8	0.0	0.0	92.5
=	149.4	0.0	0.0	92.3
=	150.0	0.0	0.0	91.9
=	150.7	0.0	0.0	91.6
=	151.3	0.0	0.0	91.2
=	151.9	0.0	0.0	90.9
=	152.5	0.0	0.0	90.5
=	153.2	0.0	0.0	90.0
=	153.7	0.0	0.0	89.8
=	154.4	0.0	0.0	89.5
=	155.0	0.0	0.0	89.0
=	155.6	0.0	0.0	88.7
=	156.2	0.0	0.0	88.3
=	156.9	0.0	0.0	87.9
=	158.1	0.0	0.0	87.2
=	159.3	0.0	0.0	86.3
=	160.3	0.0	0.0	85.7
=	160.9	0.0	0.0	85.3
=	161.4	0.0	0.0	84.9
=	162.0	0.0	0.0	84.5
=	162.7	0.0	0.0	84.0
=	163.6	0.0	0.0	83.4
=	164.2	0.0	0.0	82.9
=	164.8	0.0	0.0	82.5
=	165.9	0.0	0.0	81.7
=	167.1	0.0	0.0	80.8
=	168.3	0.0	0.0	79.9
=	169.4	0.0	0.0	79.1
=	170.3	0.0	0.0	78.3
=	171.4	0.0	0.0	77.4
=	172.1	0.0	0.0	76.9
=	172.8	0.0	0.0	76.3
=	173.8	0.0	0.0	75.4
=	174.5	0.0	0.0	74.9
=	175.6	0.0	0.0	73.9
=	176.3	0.0	0.0	73.2
=	176.8	0.0	0.0	72.7
=	178.0	0.0	0.0	71.7
=	178.8	0.0	0.0	70.9
=	179.6	0.0	0.0	70.2
=	180.8	0.0	0.0	69.0
=	181.7	0.0	0.0	68.1
=	182.8	0.0	0.0	67.0
=	183.5	0.0	0.0	66.2
=	184.3	0.0	0.0	65.4
=	184.9	0.0	0.0	64.7
=	185.5	0.0	0.0	64.1
=	186.1	0.0	0.0	63.4
=	187.1	0.0	0.0	62.3
=	187.8	0.0	0.0	61.5
=	188.5	0.0	0.0	60.4
=	189.3	0.0	0.0	59.5
=	190.4	0.0	0.0	57.8
=	191.7	0.0	0.0	56.0
=	192.9	0.0	0.0	54.2
=	193.7	0.0	0.0	52.8
=	194.3	0.0	0.0	51.8
=	194.9	0.0	0.0	50.8
=	195.5	0.0	0.0	49.6
=	196.1	0.0	0.0	48.6
=	196.7	0.0	0.0	47.3
=	197.3	0.0	0.0	46.1
=	197.9	0.0	0.0	44.8
=	198.5	0.0	0.0	43.6
=	199.1	0.0	0.0	42.3
=	199.7	0.0	0.0	41.0
=	200.3	0.0	0.0	39.6
=	200.9	0.0	0.0	38.3
=	201.5	0.0	0.0	37.0
=	202.1	0.0	0.0	35.6
=	202.8	0.0	0.0	34.2
=	203.4	0.0	0.0	32.7
=	204.0	0.0	0.0	31.4
=	204.6	0.0	0.0	30.0
=	205.2	0.0	0.0	28.7
=	205.9	0.0	0.0	27.3
=	207.0	0.0	0.0	25.0
=	208.2	0.0	0.0	22.5
=	209.4	0.0	0.0	20.2
=	210.6	0.0	0.0	18.0
=	211.8	0.0	0.0	16.2
=	212.5	0.0	0.0	15.1
=	213.4	0.0	0.0	13.8
=	214.6	0.0	0.0	12.2
=	215.8	0.0	0.0	10.9
=	216.6	0.0	0.0	10.0
=	217.5	0.0	0.0	9.2
=	218.1	0.0	0.0	8.7
=	218.7	0.0	0.0	8.2
=	219.4	0.0	0.0	7.6
=	220.1	0.0	0.0	7.1
=	220.8	0.0	0.0	6.7
=	221.4	0.0	0.0	6.4
=	222.0	0.0	0.0	6.1
=	222.5	0.0	0.0	5.8
=	223.2	0.0	0.0	5.5
=	223.7	0.0	0.0	5.3
=	224.7	0.0	0.0	4.9
=	225.9	0.0	0.0	4.5
=	227.0	0.0	0.0	4.2
=	227.6	0.0	0.0	4.1
=	228.1	0.0	0.0	3.9
=	229.1	0.0	0.0	3.7
=	230.2	0.0	0.0	3.5
=	230.8	0.0	0.0	3.4
=	231.7	0.0	0.0	3.3
=	232.8	0.0	0.0	3.1
=	234.0	0.0	0.0	3.0
=	235.2	0.0	0.0	2.9
=	236.2	0.0	0.0	2.8
=	237.0	0.0	0.0	2.7
=	237.6	0.0	0.0	2.7
=	238.7	0.0	0.0	2.6
=	239.4	0.0	0.0	2.5
:EOM # End of Measurement

:EOF # End of File