:MSR 	1	 # No. of measurement in file
:SYS BDS 0   # Beam Data Scanner System
#
# RFA300 ASCII Measurement Dump ( BDS format )
#
# Measurement number 	1
#
%VNR 1.0
%MOD 	RAT
%TYP 	SCN
%SCN 	DPT
%FLD 	ION
%DAT 	02-04-2012
%TIM 	12:00:00
%FSZ 	100	100
%BMT 	ELE	   18.0
%SSD 	
%BUP 	0
%BRD 	
%FSH 	1
%ASC 	0
%WEG 	0
%GPO 	0
%CPO 	0
%MEA 	1
%PRD 	0,0
%PTS 	521
%STS 	    0.0	  0.0	   0.0 # Start Scan values in mm ( X , Y , Z )
%EDS 	    0.0	   0.0	   208.2 # End Scan values in mm ( X , Y , Z )
#
#	  X      Y      Z     Dose
#
=	0.0	0.0	0.0	93.2
=	0.0	0.0	0.2	93.3
=	0.0	0.0	0.6	93.5
=	0.0	0.0	1.0	93.7
=	0.0	0.0	1.4	94.0
=	0.0	0.0	1.8	94.3
=	0.0	0.0	2.2	94.7
=	0.0	0.0	2.6	95.1
=	0.0	0.0	3.0	95.5
=	0.0	0.0	3.4	95.8
=	0.0	0.0	3.8	96.2
=	0.0	0.0	4.2	96.5
=	0.0	0.0	4.6	96.7
=	0.0	0.0	5.0	96.9
=	0.0	0.0	5.4	97.1
=	0.0	0.0	5.8	97.3
=	0.0	0.0	6.2	97.5
=	0.0	0.0	6.6	97.7
=	0.0	0.0	7.0	97.8
=	0.0	0.0	7.4	97.9
=	0.0	0.0	7.8	98.1
=	0.0	0.0	8.2	98.2
=	0.0	0.0	8.6	98.3
=	0.0	0.0	9.0	98.5
=	0.0	0.0	9.4	98.5
=	0.0	0.0	9.8	98.6
=	0.0	0.0	10.2	98.7
=	0.0	0.0	10.6	98.8
=	0.0	0.0	11.0	98.9
=	0.0	0.0	11.4	99.0
=	0.0	0.0	11.9	99.1
=	0.0	0.0	12.3	99.2
=	0.0	0.0	12.7	99.3
=	0.0	0.0	13.1	99.3
=	0.0	0.0	13.5	99.4
=	0.0	0.0	13.9	99.4
=	0.0	0.0	14.3	99.5
=	0.0	0.0	14.7	99.5
=	0.0	0.0	15.1	99.5
=	0.0	0.0	15.5	99.6
=	0.0	0.0	15.9	99.6
=	0.0	0.0	16.3	99.6
=	0.0	0.0	16.7	99.7
=	0.0	0.0	17.1	99.7
=	0.0	0.0	17.5	99.8
=	0.0	0.0	17.9	99.8
=	0.0	0.0	18.3	99.8
=	0.0	0.0	18.7	99.8
=	0.0	0.0	19.1	99.9
=	0.0	0.0	19.5	99.9
=	0.0	0.0	19.9	99.9
=	0.0	0.0	20.3	99.9
=	0.0	0.0	20.7	99.9
=	0.0	0.0	21.1	99.9
=	0.0	0.0	21.5	99.9
=	0.0	0.0	21.9	100.0
=	0.0	0.0	22.3	100.0
=	0.0	0.0	22.7	100.0
=	0.0	0.0	23.1	100.0
=	0.0	0.0	23.5	100.0
=	0.0	0.0	23.9	100.0
=	0.0	0.0	24.3	100.0
=	0.0	0.0	24.7	100.0
=	0.0	0.0	25.1	100.0
=	0.0	0.0	25.5	100.0
=	0.0	0.0	25.9	100.0
=	0.0	0.0	26.3	100.0
=	0.0	0.0	26.7	100.0
=	0.0	0.0	27.1	100.0
=	0.0	0.0	27.5	100.0
=	0.0	0.0	27.9	100.0
=	0.0	0.0	28.3	100.0
=	0.0	0.0	28.7	100.0
=	0.0	0.0	29.1	99.9
=	0.0	0.0	29.5	99.9
=	0.0	0.0	29.9	99.9
=	0.0	0.0	30.3	99.9
=	0.0	0.0	30.7	99.8
=	0.0	0.0	31.1	99.8
=	0.0	0.0	31.5	99.8
=	0.0	0.0	31.9	99.8
=	0.0	0.0	32.3	99.7
=	0.0	0.0	32.7	99.7
=	0.0	0.0	33.1	99.7
=	0.0	0.0	33.5	99.7
=	0.0	0.0	33.9	99.7
=	0.0	0.0	34.3	99.6
=	0.0	0.0	34.7	99.6
=	0.0	0.0	35.2	99.5
=	0.0	0.0	35.6	99.5
=	0.0	0.0	36.0	99.4
=	0.0	0.0	36.4	99.4
=	0.0	0.0	36.8	99.3
=	0.0	0.0	37.2	99.3
=	0.0	0.0	37.6	99.2
=	0.0	0.0	38.0	99.2
=	0.0	0.0	38.4	99.1
=	0.0	0.0	38.8	99.0
=	0.0	0.0	39.2	98.9
=	0.0	0.0	39.6	98.9
=	0.0	0.0	40.0	98.8
=	0.0	0.0	40.4	98.7
=	0.0	0.0	40.8	98.6
=	0.0	0.0	41.2	98.6
=	0.0	0.0	41.6	98.4
=	0.0	0.0	42.0	98.3
=	0.0	0.0	42.4	98.2
=	0.0	0.0	42.8	98.1
=	0.0	0.0	43.2	98.0
=	0.0	0.0	43.6	97.8
=	0.0	0.0	44.0	97.7
=	0.0	0.0	44.4	97.6
=	0.0	0.0	44.8	97.4
=	0.0	0.0	45.2	97.3
=	0.0	0.0	45.6	97.1
=	0.0	0.0	46.0	97.0
=	0.0	0.0	46.4	96.8
=	0.0	0.0	46.8	96.7
=	0.0	0.0	47.2	96.5
=	0.0	0.0	47.6	96.3
=	0.0	0.0	48.0	96.0
=	0.0	0.0	48.4	95.8
=	0.0	0.0	48.8	95.7
=	0.0	0.0	49.2	95.5
=	0.0	0.0	49.6	95.3
=	0.0	0.0	50.0	95.0
=	0.0	0.0	50.4	94.7
=	0.0	0.0	50.8	94.5
=	0.0	0.0	51.2	94.3
=	0.0	0.0	51.6	93.9
=	0.0	0.0	52.0	93.7
=	0.0	0.0	52.4	93.3
=	0.0	0.0	52.8	93.0
=	0.0	0.0	53.2	92.7
=	0.0	0.0	53.6	92.3
=	0.0	0.0	54.0	91.9
=	0.0	0.0	54.4	91.6
=	0.0	0.0	54.8	91.2
=	0.0	0.0	55.2	90.9
=	0.0	0.0	55.6	90.5
=	0.0	0.0	56.0	90.1
=	0.0	0.0	56.4	89.6
=	0.0	0.0	56.8	89.1
=	0.0	0.0	57.2	88.6
=	0.0	0.0	57.6	88.2
=	0.0	0.0	58.0	87.7
=	0.0	0.0	58.5	87.2
=	0.0	0.0	58.9	86.7
=	0.0	0.0	59.3	86.1
=	0.0	0.0	59.7	85.5
=	0.0	0.0	60.1	84.9
=	0.0	0.0	60.5	84.3
=	0.0	0.0	60.9	83.7
=	0.0	0.0	61.3	83.0
=	0.0	0.0	61.7	82.4
=	0.0	0.0	62.1	81.8
=	0.0	0.0	62.5	81.1
=	0.0	0.0	62.9	80.3
=	0.0	0.0	63.3	79.5
=	0.0	0.0	63.7	78.8
=	0.0	0.0	64.1	78.1
=	0.0	0.0	64.5	77.4
=	0.0	0.0	64.9	76.6
=	0.0	0.0	65.3	75.7
=	0.0	0.0	65.7	74.9
=	0.0	0.0	66.1	74.1
=	0.0	0.0	66.5	73.2
=	0.0	0.0	66.9	72.3
=	0.0	0.0	67.3	71.3
=	0.0	0.0	67.7	70.5
=	0.0	0.0	68.1	69.5
=	0.0	0.0	68.5	68.6
=	0.0	0.0	68.9	67.6
=	0.0	0.0	69.3	66.5
=	0.0	0.0	69.7	65.5
=	0.0	0.0	70.1	64.5
=	0.0	0.0	70.5	63.5
=	0.0	0.0	70.9	62.5
=	0.0	0.0	71.3	61.5
=	0.0	0.0	71.7	60.4
=	0.0	0.0	72.1	59.2
=	0.0	0.0	72.5	58.1
=	0.0	0.0	72.9	57.0
=	0.0	0.0	73.3	55.8
=	0.0	0.0	73.7	54.7
=	0.0	0.0	74.1	53.5
=	0.0	0.0	74.5	52.4
=	0.0	0.0	74.9	51.2
=	0.0	0.0	75.3	50.0
=	0.0	0.0	75.7	48.8
=	0.0	0.0	76.1	47.5
=	0.0	0.0	76.5	46.3
=	0.0	0.0	76.9	45.1
=	0.0	0.0	77.3	43.9
=	0.0	0.0	77.7	42.8
=	0.0	0.0	78.1	41.6
=	0.0	0.0	78.5	40.4
=	0.0	0.0	78.9	39.1
=	0.0	0.0	79.3	37.9
=	0.0	0.0	79.7	36.8
=	0.0	0.0	80.1	35.7
=	0.0	0.0	80.5	34.5
=	0.0	0.0	80.9	33.3
=	0.0	0.0	81.3	32.2
=	0.0	0.0	81.8	31.1
=	0.0	0.0	82.2	30.1
=	0.0	0.0	82.6	28.9
=	0.0	0.0	83.0	27.7
=	0.0	0.0	83.4	26.7
=	0.0	0.0	83.8	25.7
=	0.0	0.0	84.2	24.8
=	0.0	0.0	84.6	23.8
=	0.0	0.0	85.0	22.7
=	0.0	0.0	85.4	21.7
=	0.0	0.0	85.8	20.8
=	0.0	0.0	86.2	20.0
=	0.0	0.0	86.6	19.1
=	0.0	0.0	87.0	18.3
=	0.0	0.0	87.4	17.6
=	0.0	0.0	87.8	16.8
=	0.0	0.0	88.2	16.1
=	0.0	0.0	88.6	15.3
=	0.0	0.0	89.0	14.5
=	0.0	0.0	89.4	13.8
=	0.0	0.0	89.8	13.2
=	0.0	0.0	90.2	12.6
=	0.0	0.0	90.6	12.0
=	0.0	0.0	91.0	11.5
=	0.0	0.0	91.4	10.9
=	0.0	0.0	91.8	10.3
=	0.0	0.0	92.2	9.9
=	0.0	0.0	92.6	9.4
=	0.0	0.0	93.0	9.0
=	0.0	0.0	93.4	8.6
=	0.0	0.0	93.8	8.3
=	0.0	0.0	94.2	7.9
=	0.0	0.0	94.6	7.6
=	0.0	0.0	95.0	7.3
=	0.0	0.0	95.4	7.0
=	0.0	0.0	95.8	6.8
=	0.0	0.0	96.2	6.5
=	0.0	0.0	96.6	6.3
=	0.0	0.0	97.0	6.1
=	0.0	0.0	97.4	6.0
=	0.0	0.0	97.8	5.8
=	0.0	0.0	98.2	5.7
=	0.0	0.0	98.6	5.5
=	0.0	0.0	99.0	5.4
=	0.0	0.0	99.4	5.3
=	0.0	0.0	99.8	5.2
=	0.0	0.0	100.2	5.2
=	0.0	0.0	100.6	5.1
=	0.0	0.0	101.0	5.0
=	0.0	0.0	101.4	5.0
=	0.0	0.0	101.8	4.9
=	0.0	0.0	102.2	4.9
=	0.0	0.0	102.6	4.8
=	0.0	0.0	103.0	4.8
=	0.0	0.0	103.4	4.8
=	0.0	0.0	103.8	4.8
=	0.0	0.0	104.2	4.8
=	0.0	0.0	104.6	4.7
=	0.0	0.0	105.0	4.7
=	0.0	0.0	105.4	4.7
=	0.0	0.0	105.8	4.7
=	0.0	0.0	106.2	4.7
=	0.0	0.0	106.6	4.7
=	0.0	0.0	107.0	4.7
=	0.0	0.0	107.4	4.7
=	0.0	0.0	107.8	4.6
=	0.0	0.0	108.2	4.6
=	0.0	0.0	108.6	4.6
=	0.0	0.0	109.0	4.6
=	0.0	0.0	109.4	4.6
=	0.0	0.0	109.8	4.6
=	0.0	0.0	110.2	4.6
=	0.0	0.0	110.6	4.6
=	0.0	0.0	111.0	4.6
=	0.0	0.0	111.4	4.6
=	0.0	0.0	111.8	4.6
=	0.0	0.0	112.2	4.6
=	0.0	0.0	112.6	4.5
=	0.0	0.0	113.0	4.5
=	0.0	0.0	113.4	4.5
=	0.0	0.0	113.8	4.5
=	0.0	0.0	114.2	4.5
=	0.0	0.0	114.6	4.5
=	0.0	0.0	115.0	4.5
=	0.0	0.0	115.4	4.5
=	0.0	0.0	115.8	4.5
=	0.0	0.0	116.2	4.5
=	0.0	0.0	116.6	4.5
=	0.0	0.0	117.0	4.5
=	0.0	0.0	117.4	4.5
=	0.0	0.0	117.8	4.5
=	0.0	0.0	118.2	4.5
=	0.0	0.0	118.6	4.5
=	0.0	0.0	119.0	4.5
=	0.0	0.0	119.4	4.5
=	0.0	0.0	119.8	4.5
=	0.0	0.0	120.2	4.5
=	0.0	0.0	120.6	4.5
=	0.0	0.0	121.0	4.5
=	0.0	0.0	121.4	4.5
=	0.0	0.0	121.8	4.5
=	0.0	0.0	122.2	4.5
=	0.0	0.0	122.6	4.5
=	0.0	0.0	123.0	4.4
=	0.0	0.0	123.4	4.4
=	0.0	0.0	123.8	4.4
=	0.0	0.0	124.2	4.4
=	0.0	0.0	124.6	4.4
=	0.0	0.0	125.0	4.4
=	0.0	0.0	125.4	4.4
=	0.0	0.0	125.8	4.4
=	0.0	0.0	126.2	4.4
=	0.0	0.0	126.6	4.4
=	0.0	0.0	127.0	4.4
=	0.0	0.0	127.4	4.4
=	0.0	0.0	127.8	4.4
=	0.0	0.0	128.2	4.4
=	0.0	0.0	128.6	4.3
=	0.0	0.0	129.0	4.3
=	0.0	0.0	129.4	4.3
=	0.0	0.0	129.8	4.3
=	0.0	0.0	130.2	4.3
=	0.0	0.0	130.6	4.3
=	0.0	0.0	131.0	4.3
=	0.0	0.0	131.4	4.3
=	0.0	0.0	131.8	4.3
=	0.0	0.0	132.2	4.3
=	0.0	0.0	132.6	4.2
=	0.0	0.0	133.0	4.2
=	0.0	0.0	133.4	4.2
=	0.0	0.0	133.8	4.2
=	0.0	0.0	134.2	4.2
=	0.0	0.0	134.6	4.2
=	0.0	0.0	135.0	4.2
=	0.0	0.0	135.4	4.2
=	0.0	0.0	135.8	4.2
=	0.0	0.0	136.2	4.2
=	0.0	0.0	136.6	4.2
=	0.0	0.0	137.0	4.2
=	0.0	0.0	137.4	4.1
=	0.0	0.0	137.8	4.1
=	0.0	0.0	138.2	4.1
=	0.0	0.0	138.6	4.1
=	0.0	0.0	139.0	4.1
=	0.0	0.0	139.4	4.1
=	0.0	0.0	139.8	4.1
=	0.0	0.0	140.2	4.1
=	0.0	0.0	140.6	4.1
=	0.0	0.0	141.0	4.1
=	0.0	0.0	141.4	4.0
=	0.0	0.0	141.8	4.0
=	0.0	0.0	142.2	4.0
=	0.0	0.0	142.6	4.0
=	0.0	0.0	143.0	4.0
=	0.0	0.0	143.4	4.0
=	0.0	0.0	143.8	4.0
=	0.0	0.0	144.2	4.0
=	0.0	0.0	144.6	4.0
=	0.0	0.0	145.0	4.0
=	0.0	0.0	145.4	4.0
=	0.0	0.0	145.8	4.0
=	0.0	0.0	146.2	4.0
=	0.0	0.0	146.6	3.9
=	0.0	0.0	147.0	3.9
=	0.0	0.0	147.4	3.9
=	0.0	0.0	147.8	3.9
=	0.0	0.0	148.2	3.9
=	0.0	0.0	148.6	3.9
=	0.0	0.0	149.0	3.9
=	0.0	0.0	149.4	3.9
=	0.0	0.0	149.8	3.9
=	0.0	0.0	150.2	3.9
=	0.0	0.0	150.6	3.9
=	0.0	0.0	151.0	3.8
=	0.0	0.0	151.4	3.8
=	0.0	0.0	151.8	3.8
=	0.0	0.0	152.2	3.8
=	0.0	0.0	152.6	3.8
=	0.0	0.0	153.0	3.8
=	0.0	0.0	153.4	3.8
=	0.0	0.0	153.8	3.8
=	0.0	0.0	154.2	3.8
=	0.0	0.0	154.6	3.8
=	0.0	0.0	155.0	3.8
=	0.0	0.0	155.4	3.8
=	0.0	0.0	155.8	3.7
=	0.0	0.0	156.2	3.7
=	0.0	0.0	156.6	3.7
=	0.0	0.0	157.0	3.7
=	0.0	0.0	157.4	3.7
=	0.0	0.0	157.8	3.7
=	0.0	0.0	158.2	3.7
=	0.0	0.0	158.6	3.7
=	0.0	0.0	159.0	3.7
=	0.0	0.0	159.4	3.7
=	0.0	0.0	159.8	3.7
=	0.0	0.0	160.2	3.7
=	0.0	0.0	160.6	3.6
=	0.0	0.0	161.0	3.6
=	0.0	0.0	161.4	3.6
=	0.0	0.0	161.8	3.6
=	0.0	0.0	162.2	3.6
=	0.0	0.0	162.6	3.6
=	0.0	0.0	163.0	3.6
=	0.0	0.0	163.4	3.6
=	0.0	0.0	163.8	3.6
=	0.0	0.0	164.2	3.6
=	0.0	0.0	164.6	3.6
=	0.0	0.0	165.0	3.6
=	0.0	0.0	165.4	3.6
=	0.0	0.0	165.8	3.6
=	0.0	0.0	166.2	3.5
=	0.0	0.0	166.6	3.5
=	0.0	0.0	167.0	3.5
=	0.0	0.0	167.4	3.5
=	0.0	0.0	167.8	3.5
=	0.0	0.0	168.2	3.5
=	0.0	0.0	168.6	3.5
=	0.0	0.0	169.0	3.5
=	0.0	0.0	169.4	3.5
=	0.0	0.0	169.8	3.5
=	0.0	0.0	170.2	3.5
=	0.0	0.0	170.6	3.5
=	0.0	0.0	171.0	3.5
=	0.0	0.0	171.4	3.5
=	0.0	0.0	171.8	3.4
=	0.0	0.0	172.2	3.4
=	0.0	0.0	172.6	3.4
=	0.0	0.0	173.0	3.4
=	0.0	0.0	173.4	3.4
=	0.0	0.0	173.8	3.4
=	0.0	0.0	174.2	3.4
=	0.0	0.0	174.6	3.4
=	0.0	0.0	175.0	3.4
=	0.0	0.0	175.4	3.4
=	0.0	0.0	175.8	3.4
=	0.0	0.0	176.2	3.4
=	0.0	0.0	176.6	3.4
=	0.0	0.0	177.0	3.3
=	0.0	0.0	177.4	3.3
=	0.0	0.0	177.8	3.3
=	0.0	0.0	178.2	3.3
=	0.0	0.0	178.6	3.3
=	0.0	0.0	179.0	3.3
=	0.0	0.0	179.4	3.3
=	0.0	0.0	179.8	3.3
=	0.0	0.0	180.2	3.3
=	0.0	0.0	180.6	3.3
=	0.0	0.0	181.0	3.3
=	0.0	0.0	181.4	3.3
=	0.0	0.0	181.8	3.3
=	0.0	0.0	182.2	3.2
=	0.0	0.0	182.6	3.2
=	0.0	0.0	183.0	3.2
=	0.0	0.0	183.4	3.2
=	0.0	0.0	183.8	3.2
=	0.0	0.0	184.2	3.2
=	0.0	0.0	184.6	3.2
=	0.0	0.0	185.0	3.2
=	0.0	0.0	185.4	3.2
=	0.0	0.0	185.8	3.2
=	0.0	0.0	186.2	3.2
=	0.0	0.0	186.6	3.2
=	0.0	0.0	187.0	3.2
=	0.0	0.0	187.4	3.2
=	0.0	0.0	187.8	3.2
=	0.0	0.0	188.2	3.2
=	0.0	0.0	188.6	3.1
=	0.0	0.0	189.0	3.1
=	0.0	0.0	189.4	3.1
=	0.0	0.0	189.8	3.1
=	0.0	0.0	190.2	3.1
=	0.0	0.0	190.6	3.1
=	0.0	0.0	191.0	3.1
=	0.0	0.0	191.4	3.1
=	0.0	0.0	191.8	3.1
=	0.0	0.0	192.2	3.1
=	0.0	0.0	192.6	3.1
=	0.0	0.0	193.0	3.1
=	0.0	0.0	193.4	3.1
=	0.0	0.0	193.8	3.1
=	0.0	0.0	194.2	3.1
=	0.0	0.0	194.6	3.1
=	0.0	0.0	195.0	3.0
=	0.0	0.0	195.4	3.0
=	0.0	0.0	195.8	3.0
=	0.0	0.0	196.2	3.0
=	0.0	0.0	196.6	3.0
=	0.0	0.0	197.0	3.0
=	0.0	0.0	197.4	3.0
=	0.0	0.0	197.8	3.0
=	0.0	0.0	198.2	3.0
=	0.0	0.0	198.6	3.0
=	0.0	0.0	199.0	3.0
=	0.0	0.0	199.4	3.0
=	0.0	0.0	199.8	3.0
=	0.0	0.0	200.2	3.0
=	0.0	0.0	200.6	3.0
=	0.0	0.0	201.0	3.0
=	0.0	0.0	201.4	3.0
=	0.0	0.0	201.8	3.0
=	0.0	0.0	202.2	3.0
=	0.0	0.0	202.6	3.0
=	0.0	0.0	203.0	2.9
=	0.0	0.0	203.4	2.9
=	0.0	0.0	203.8	2.9
=	0.0	0.0	204.2	2.9
=	0.0	0.0	204.6	2.9
=	0.0	0.0	205.0	2.9
=	0.0	0.0	205.4	2.9
=	0.0	0.0	205.8	2.9
=	0.0	0.0	206.2	2.9
=	0.0	0.0	206.6	2.9
=	0.0	0.0	207.0	2.9
=	0.0	0.0	207.4	2.9
=	0.0	0.0	207.8	2.8
=	0.0	0.0	208.2	2.8
:EOM # End of Measurement

:EOF # End of File