:MSR 	5	 # No. of measurement in file
:SYS BDS 0   # Beam Data Scanner System
#
# RFA300 ASCII Measurement Dump ( BDS format )
#
# Measurement number 	1
#
%VNR 1.0
%MOD 	RAT
%TYP 	SCN
%SCN 	DPT
%FLD 	ION
%DAT 	09-22-2011
%TIM 	12:00:00
%FSZ 	040	040
%BMT 	PHO	   10.0
%SSD 	1000
%BUP 	0
%BRD 	1000
%FSH 	1
%ASC 	0
%WEG 	30
%GPO 	0
%CPO 	0
%MEA 	5
%PRD 	0,0
%PTS 	753
%STS 	    0.0	  0.0	   0.0 # Start Scan values in mm ( X , Y , Z )
%EDS 	    0.0	   0.0	   348.0 # End Scan values in mm ( X , Y , Z )
#
#	  X      Y      Z     Dose
#
=	0.0	0.0	0.0	27.1
=	0.0	0.0	0.1	27.6
=	0.0	0.0	0.6	29.1
=	0.0	0.0	1.0	31.3
=	0.0	0.0	1.4	33.6
=	0.0	0.0	1.8	37.4
=	0.0	0.0	2.3	40.8
=	0.0	0.0	2.8	45.1
=	0.0	0.0	3.1	48.4
=	0.0	0.0	3.5	51.5
=	0.0	0.0	3.8	53.9
=	0.0	0.0	4.2	57.2
=	0.0	0.0	4.6	60.1
=	0.0	0.0	5.0	62.6
=	0.0	0.0	5.5	65.9
=	0.0	0.0	5.9	68.2
=	0.0	0.0	6.3	70.3
=	0.0	0.0	6.6	71.9
=	0.0	0.0	7.0	73.7
=	0.0	0.0	7.4	75.5
=	0.0	0.0	7.9	77.7
=	0.0	0.0	8.4	79.5
=	0.0	0.0	8.8	81.1
=	0.0	0.0	9.2	82.4
=	0.0	0.0	9.7	83.9
=	0.0	0.0	10.1	85.3
=	0.0	0.0	10.6	86.5
=	0.0	0.0	11.0	87.6
=	0.0	0.0	11.4	88.7
=	0.0	0.0	11.9	89.9
=	0.0	0.0	12.4	91.1
=	0.0	0.0	12.8	91.7
=	0.0	0.0	13.3	92.6
=	0.0	0.0	13.8	93.4
=	0.0	0.0	14.2	94.0
=	0.0	0.0	14.7	94.7
=	0.0	0.0	15.0	95.2
=	0.0	0.0	15.4	95.8
=	0.0	0.0	15.8	96.1
=	0.0	0.0	16.3	96.6
=	0.0	0.0	16.7	97.1
=	0.0	0.0	17.2	97.5
=	0.0	0.0	17.7	97.9
=	0.0	0.0	18.2	98.2
=	0.0	0.0	18.7	98.5
=	0.0	0.0	19.0	98.8
=	0.0	0.0	19.5	99.0
=	0.0	0.0	19.9	99.2
=	0.0	0.0	20.2	99.4
=	0.0	0.0	20.7	99.5
=	0.0	0.0	21.2	99.6
=	0.0	0.0	21.6	99.7
=	0.0	0.0	22.0	99.8
=	0.0	0.0	22.4	99.9
=	0.0	0.0	22.8	99.9
=	0.0	0.0	23.2	100.0
=	0.0	0.0	23.6	100.0
=	0.0	0.0	24.0	100.0
=	0.0	0.0	24.4	100.0
=	0.0	0.0	24.8	100.0
=	0.0	0.0	25.2	99.9
=	0.0	0.0	25.7	99.9
=	0.0	0.0	26.1	99.9
=	0.0	0.0	26.5	99.8
=	0.0	0.0	26.9	99.8
=	0.0	0.0	27.3	99.7
=	0.0	0.0	27.7	99.7
=	0.0	0.0	28.3	99.6
=	0.0	0.0	28.8	99.5
=	0.0	0.0	29.2	99.5
=	0.0	0.0	29.6	99.4
=	0.0	0.0	30.1	99.1
=	0.0	0.0	30.5	99.0
=	0.0	0.0	30.8	98.9
=	0.0	0.0	31.2	98.9
=	0.0	0.0	31.6	98.8
=	0.0	0.0	32.0	98.6
=	0.0	0.0	32.4	98.4
=	0.0	0.0	32.8	98.3
=	0.0	0.0	33.2	98.1
=	0.0	0.0	33.5	98.0
=	0.0	0.0	34.0	97.9
=	0.0	0.0	34.4	97.8
=	0.0	0.0	34.8	97.6
=	0.0	0.0	35.3	97.3
=	0.0	0.0	35.8	97.1
=	0.0	0.0	36.2	97.0
=	0.0	0.0	36.6	96.9
=	0.0	0.0	37.1	96.7
=	0.0	0.0	37.5	96.5
=	0.0	0.0	38.0	96.2
=	0.0	0.0	38.4	96.1
=	0.0	0.0	38.8	95.9
=	0.0	0.0	39.3	95.7
=	0.0	0.0	39.7	95.6
=	0.0	0.0	40.2	95.4
=	0.0	0.0	40.5	95.3
=	0.0	0.0	40.9	95.2
=	0.0	0.0	41.2	95.0
=	0.0	0.0	41.7	94.8
=	0.0	0.0	42.1	94.5
=	0.0	0.0	42.5	94.4
=	0.0	0.0	42.9	94.2
=	0.0	0.0	43.3	94.1
=	0.0	0.0	43.7	94.0
=	0.0	0.0	44.1	93.7
=	0.0	0.0	44.5	93.5
=	0.0	0.0	45.0	93.3
=	0.0	0.0	45.5	93.1
=	0.0	0.0	46.0	92.9
=	0.0	0.0	46.5	92.7
=	0.0	0.0	46.9	92.5
=	0.0	0.0	47.4	92.3
=	0.0	0.0	47.9	92.1
=	0.0	0.0	48.4	91.9
=	0.0	0.0	48.9	91.7
=	0.0	0.0	49.3	91.6
=	0.0	0.0	49.7	91.3
=	0.0	0.0	50.2	91.1
=	0.0	0.0	50.5	91.0
=	0.0	0.0	50.9	90.9
=	0.0	0.0	51.3	90.6
=	0.0	0.0	51.8	90.3
=	0.0	0.0	52.2	90.1
=	0.0	0.0	52.6	90.0
=	0.0	0.0	53.0	89.8
=	0.0	0.0	53.3	89.7
=	0.0	0.0	53.8	89.5
=	0.0	0.0	54.1	89.4
=	0.0	0.0	54.5	89.3
=	0.0	0.0	55.1	89.1
=	0.0	0.0	55.5	88.9
=	0.0	0.0	55.9	88.7
=	0.0	0.0	56.5	88.4
=	0.0	0.0	57.0	88.1
=	0.0	0.0	57.4	87.8
=	0.0	0.0	57.7	87.7
=	0.0	0.0	58.1	87.6
=	0.0	0.0	58.7	87.3
=	0.0	0.0	59.1	87.1
=	0.0	0.0	59.5	86.9
=	0.0	0.0	60.0	86.8
=	0.0	0.0	60.4	86.7
=	0.0	0.0	60.8	86.5
=	0.0	0.0	61.2	86.3
=	0.0	0.0	61.6	86.2
=	0.0	0.0	62.0	86.0
=	0.0	0.0	62.4	85.9
=	0.0	0.0	62.9	85.7
=	0.0	0.0	63.3	85.5
=	0.0	0.0	63.7	85.4
=	0.0	0.0	64.1	85.2
=	0.0	0.0	64.6	84.9
=	0.0	0.0	65.0	84.7
=	0.0	0.0	65.5	84.5
=	0.0	0.0	66.1	84.4
=	0.0	0.0	66.7	84.2
=	0.0	0.0	67.3	83.9
=	0.0	0.0	67.8	83.6
=	0.0	0.0	68.3	83.5
=	0.0	0.0	68.8	83.3
=	0.0	0.0	69.3	83.1
=	0.0	0.0	69.8	83.0
=	0.0	0.0	70.4	82.8
=	0.0	0.0	70.8	82.6
=	0.0	0.0	71.2	82.4
=	0.0	0.0	71.5	82.2
=	0.0	0.0	71.9	82.1
=	0.0	0.0	72.3	81.9
=	0.0	0.0	72.9	81.7
=	0.0	0.0	73.4	81.5
=	0.0	0.0	73.9	81.3
=	0.0	0.0	74.4	81.1
=	0.0	0.0	74.8	80.9
=	0.0	0.0	75.2	80.8
=	0.0	0.0	75.7	80.6
=	0.0	0.0	76.1	80.5
=	0.0	0.0	76.5	80.3
=	0.0	0.0	77.0	80.1
=	0.0	0.0	77.4	79.8
=	0.0	0.0	77.8	79.6
=	0.0	0.0	78.4	79.5
=	0.0	0.0	78.9	79.4
=	0.0	0.0	79.3	79.2
=	0.0	0.0	79.8	79.0
=	0.0	0.0	80.4	78.8
=	0.0	0.0	80.8	78.6
=	0.0	0.0	81.2	78.5
=	0.0	0.0	81.6	78.3
=	0.0	0.0	82.0	78.1
=	0.0	0.0	82.5	77.9
=	0.0	0.0	83.0	77.7
=	0.0	0.0	83.6	77.5
=	0.0	0.0	84.0	77.4
=	0.0	0.0	84.6	77.3
=	0.0	0.0	85.1	77.0
=	0.0	0.0	85.6	76.8
=	0.0	0.0	86.1	76.6
=	0.0	0.0	86.7	76.4
=	0.0	0.0	87.3	76.2
=	0.0	0.0	87.7	76.1
=	0.0	0.0	88.3	76.0
=	0.0	0.0	88.6	75.8
=	0.0	0.0	89.1	75.5
=	0.0	0.0	89.5	75.3
=	0.0	0.0	89.9	75.1
=	0.0	0.0	90.4	74.9
=	0.0	0.0	90.8	74.9
=	0.0	0.0	91.1	74.7
=	0.0	0.0	91.6	74.5
=	0.0	0.0	92.1	74.4
=	0.0	0.0	92.5	74.3
=	0.0	0.0	92.9	74.1
=	0.0	0.0	93.4	73.9
=	0.0	0.0	93.8	73.7
=	0.0	0.0	94.3	73.5
=	0.0	0.0	94.7	73.4
=	0.0	0.0	95.2	73.2
=	0.0	0.0	95.7	72.9
=	0.0	0.0	96.3	72.8
=	0.0	0.0	96.8	72.6
=	0.0	0.0	97.2	72.4
=	0.0	0.0	97.7	72.2
=	0.0	0.0	98.1	72.1
=	0.0	0.0	98.6	72.0
=	0.0	0.0	99.2	71.8
=	0.0	0.0	99.6	71.6
=	0.0	0.0	100.3	71.3
=	0.0	0.0	100.9	71.2
=	0.0	0.0	101.5	71.0
=	0.0	0.0	102.1	70.7
=	0.0	0.0	102.7	70.5
=	0.0	0.0	103.2	70.3
=	0.0	0.0	103.6	70.1
=	0.0	0.0	104.0	70.0
=	0.0	0.0	104.4	69.8
=	0.0	0.0	104.8	69.7
=	0.0	0.0	105.2	69.5
=	0.0	0.0	105.7	69.3
=	0.0	0.0	106.2	69.2
=	0.0	0.0	106.8	68.9
=	0.0	0.0	107.3	68.7
=	0.0	0.0	107.8	68.6
=	0.0	0.0	108.2	68.5
=	0.0	0.0	108.7	68.2
=	0.0	0.0	109.2	68.1
=	0.0	0.0	109.7	67.9
=	0.0	0.0	110.2	67.8
=	0.0	0.0	110.6	67.6
=	0.0	0.0	111.0	67.5
=	0.0	0.0	111.4	67.3
=	0.0	0.0	111.8	67.3
=	0.0	0.0	112.2	67.2
=	0.0	0.0	112.6	67.1
=	0.0	0.0	113.0	66.9
=	0.0	0.0	113.4	66.8
=	0.0	0.0	114.0	66.6
=	0.0	0.0	114.4	66.5
=	0.0	0.0	114.8	66.4
=	0.0	0.0	115.2	66.3
=	0.0	0.0	115.6	66.2
=	0.0	0.0	116.0	66.1
=	0.0	0.0	116.6	65.9
=	0.0	0.0	117.1	65.8
=	0.0	0.0	117.6	65.5
=	0.0	0.0	118.0	65.4
=	0.0	0.0	118.5	65.2
=	0.0	0.0	119.0	65.0
=	0.0	0.0	119.5	64.8
=	0.0	0.0	120.0	64.7
=	0.0	0.0	120.4	64.5
=	0.0	0.0	120.9	64.4
=	0.0	0.0	121.3	64.2
=	0.0	0.0	121.7	64.2
=	0.0	0.0	122.2	64.1
=	0.0	0.0	122.6	63.8
=	0.0	0.0	123.1	63.7
=	0.0	0.0	123.6	63.5
=	0.0	0.0	124.1	63.4
=	0.0	0.0	124.5	63.2
=	0.0	0.0	124.9	63.0
=	0.0	0.0	125.3	62.9
=	0.0	0.0	125.8	62.8
=	0.0	0.0	126.2	62.7
=	0.0	0.0	126.6	62.6
=	0.0	0.0	127.1	62.4
=	0.0	0.0	127.5	62.3
=	0.0	0.0	128.0	62.2
=	0.0	0.0	128.4	62.1
=	0.0	0.0	128.8	61.9
=	0.0	0.0	129.3	61.8
=	0.0	0.0	129.7	61.7
=	0.0	0.0	130.2	61.6
=	0.0	0.0	130.7	61.4
=	0.0	0.0	131.0	61.3
=	0.0	0.0	131.5	61.1
=	0.0	0.0	131.9	61.0
=	0.0	0.0	132.3	60.9
=	0.0	0.0	132.7	60.9
=	0.0	0.0	133.1	60.8
=	0.0	0.0	133.5	60.6
=	0.0	0.0	134.0	60.4
=	0.0	0.0	134.6	60.2
=	0.0	0.0	135.0	60.1
=	0.0	0.0	135.5	59.9
=	0.0	0.0	136.1	59.8
=	0.0	0.0	136.7	59.7
=	0.0	0.0	137.1	59.6
=	0.0	0.0	137.5	59.4
=	0.0	0.0	138.1	59.3
=	0.0	0.0	138.5	59.1
=	0.0	0.0	138.9	59.0
=	0.0	0.0	139.4	58.8
=	0.0	0.0	139.8	58.6
=	0.0	0.0	140.4	58.5
=	0.0	0.0	140.9	58.4
=	0.0	0.0	141.4	58.2
=	0.0	0.0	141.9	58.1
=	0.0	0.0	142.3	57.9
=	0.0	0.0	142.7	57.9
=	0.0	0.0	143.2	57.8
=	0.0	0.0	143.7	57.6
=	0.0	0.0	144.1	57.5
=	0.0	0.0	144.6	57.3
=	0.0	0.0	145.1	57.2
=	0.0	0.0	145.5	57.1
=	0.0	0.0	145.9	57.0
=	0.0	0.0	146.5	56.8
=	0.0	0.0	146.9	56.7
=	0.0	0.0	147.3	56.5
=	0.0	0.0	147.7	56.4
=	0.0	0.0	148.0	56.3
=	0.0	0.0	148.5	56.2
=	0.0	0.0	148.9	56.1
=	0.0	0.0	149.4	56.0
=	0.0	0.0	149.8	55.9
=	0.0	0.0	150.3	55.7
=	0.0	0.0	150.8	55.6
=	0.0	0.0	151.5	55.4
=	0.0	0.0	152.1	55.2
=	0.0	0.0	152.6	55.1
=	0.0	0.0	153.1	55.0
=	0.0	0.0	153.5	54.9
=	0.0	0.0	153.9	54.7
=	0.0	0.0	154.4	54.6
=	0.0	0.0	154.9	54.5
=	0.0	0.0	155.2	54.4
=	0.0	0.0	155.6	54.2
=	0.0	0.0	156.2	54.1
=	0.0	0.0	156.8	53.9
=	0.0	0.0	157.2	53.8
=	0.0	0.0	157.7	53.6
=	0.0	0.0	158.1	53.4
=	0.0	0.0	158.6	53.3
=	0.0	0.0	159.2	53.2
=	0.0	0.0	159.6	53.1
=	0.0	0.0	160.1	53.0
=	0.0	0.0	160.4	52.9
=	0.0	0.0	160.8	52.9
=	0.0	0.0	161.3	52.7
=	0.0	0.0	161.9	52.6
=	0.0	0.0	162.4	52.5
=	0.0	0.0	162.9	52.3
=	0.0	0.0	163.5	52.2
=	0.0	0.0	164.0	52.1
=	0.0	0.0	164.6	51.9
=	0.0	0.0	165.0	51.8
=	0.0	0.0	165.6	51.7
=	0.0	0.0	166.2	51.5
=	0.0	0.0	166.6	51.4
=	0.0	0.0	167.0	51.2
=	0.0	0.0	167.5	51.1
=	0.0	0.0	168.1	51.0
=	0.0	0.0	168.5	50.9
=	0.0	0.0	168.9	50.8
=	0.0	0.0	169.4	50.6
=	0.0	0.0	169.9	50.6
=	0.0	0.0	170.3	50.5
=	0.0	0.0	170.7	50.4
=	0.0	0.0	171.2	50.3
=	0.0	0.0	171.7	50.2
=	0.0	0.0	172.1	50.0
=	0.0	0.0	172.5	50.0
=	0.0	0.0	173.0	49.8
=	0.0	0.0	173.5	49.7
=	0.0	0.0	174.0	49.5
=	0.0	0.0	174.6	49.4
=	0.0	0.0	175.2	49.3
=	0.0	0.0	175.6	49.2
=	0.0	0.0	176.0	49.1
=	0.0	0.0	176.4	49.0
=	0.0	0.0	176.7	48.9
=	0.0	0.0	177.2	48.8
=	0.0	0.0	177.6	48.7
=	0.0	0.0	178.1	48.6
=	0.0	0.0	178.7	48.5
=	0.0	0.0	179.3	48.3
=	0.0	0.0	179.9	48.2
=	0.0	0.0	180.3	48.1
=	0.0	0.0	180.6	48.0
=	0.0	0.0	181.0	47.9
=	0.0	0.0	181.6	47.8
=	0.0	0.0	182.0	47.6
=	0.0	0.0	182.4	47.5
=	0.0	0.0	182.9	47.3
=	0.0	0.0	183.3	47.3
=	0.0	0.0	183.7	47.3
=	0.0	0.0	184.2	47.2
=	0.0	0.0	184.7	47.1
=	0.0	0.0	185.3	47.0
=	0.0	0.0	185.9	46.8
=	0.0	0.0	186.2	46.8
=	0.0	0.0	186.7	46.7
=	0.0	0.0	187.4	46.5
=	0.0	0.0	187.8	46.4
=	0.0	0.0	188.2	46.3
=	0.0	0.0	188.7	46.1
=	0.0	0.0	189.1	46.0
=	0.0	0.0	189.6	46.0
=	0.0	0.0	190.2	45.8
=	0.0	0.0	190.7	45.7
=	0.0	0.0	191.1	45.6
=	0.0	0.0	191.5	45.6
=	0.0	0.0	192.1	45.4
=	0.0	0.0	192.5	45.3
=	0.0	0.0	192.9	45.2
=	0.0	0.0	193.3	45.1
=	0.0	0.0	193.8	44.9
=	0.0	0.0	194.2	44.9
=	0.0	0.0	194.6	44.8
=	0.0	0.0	195.1	44.8
=	0.0	0.0	195.4	44.7
=	0.0	0.0	195.9	44.6
=	0.0	0.0	196.4	44.5
=	0.0	0.0	196.8	44.3
=	0.0	0.0	197.3	44.2
=	0.0	0.0	197.9	44.1
=	0.0	0.0	198.5	43.9
=	0.0	0.0	198.9	43.9
=	0.0	0.0	199.3	43.8
=	0.0	0.0	199.7	43.7
=	0.0	0.0	200.3	43.6
=	0.0	0.0	200.9	43.4
=	0.0	0.0	201.4	43.3
=	0.0	0.0	201.9	43.2
=	0.0	0.0	202.4	43.2
=	0.0	0.0	202.9	43.1
=	0.0	0.0	203.4	42.9
=	0.0	0.0	204.0	42.8
=	0.0	0.0	204.5	42.7
=	0.0	0.0	205.0	42.6
=	0.0	0.0	205.5	42.4
=	0.0	0.0	206.0	42.3
=	0.0	0.0	206.4	42.3
=	0.0	0.0	206.9	42.1
=	0.0	0.0	207.3	42.1
=	0.0	0.0	207.9	41.9
=	0.0	0.0	208.5	41.8
=	0.0	0.0	209.1	41.7
=	0.0	0.0	209.5	41.6
=	0.0	0.0	210.0	41.6
=	0.0	0.0	210.5	41.5
=	0.0	0.0	211.0	41.4
=	0.0	0.0	211.5	41.3
=	0.0	0.0	211.9	41.2
=	0.0	0.0	212.4	41.1
=	0.0	0.0	213.0	41.0
=	0.0	0.0	213.3	40.9
=	0.0	0.0	213.7	40.8
=	0.0	0.0	214.2	40.7
=	0.0	0.0	214.7	40.6
=	0.0	0.0	215.1	40.5
=	0.0	0.0	215.5	40.4
=	0.0	0.0	216.0	40.3
=	0.0	0.0	216.6	40.2
=	0.0	0.0	217.1	40.2
=	0.0	0.0	217.5	40.1
=	0.0	0.0	218.1	39.9
=	0.0	0.0	218.5	39.9
=	0.0	0.0	218.9	39.9
=	0.0	0.0	219.4	39.8
=	0.0	0.0	219.9	39.6
=	0.0	0.0	220.5	39.5
=	0.0	0.0	221.1	39.4
=	0.0	0.0	221.6	39.3
=	0.0	0.0	222.1	39.2
=	0.0	0.0	222.6	39.1
=	0.0	0.0	223.1	39.0
=	0.0	0.0	223.7	38.9
=	0.0	0.0	224.3	38.9
=	0.0	0.0	224.8	38.7
=	0.0	0.0	225.2	38.6
=	0.0	0.0	225.7	38.6
=	0.0	0.0	226.2	38.5
=	0.0	0.0	226.7	38.4
=	0.0	0.0	227.2	38.3
=	0.0	0.0	227.7	38.2
=	0.0	0.0	228.2	38.2
=	0.0	0.0	228.8	38.1
=	0.0	0.0	229.4	37.9
=	0.0	0.0	229.9	37.8
=	0.0	0.0	230.3	37.8
=	0.0	0.0	230.7	37.7
=	0.0	0.0	231.2	37.6
=	0.0	0.0	231.6	37.5
=	0.0	0.0	232.0	37.4
=	0.0	0.0	232.4	37.4
=	0.0	0.0	232.8	37.3
=	0.0	0.0	233.1	37.2
=	0.0	0.0	233.6	37.1
=	0.0	0.0	234.0	37.0
=	0.0	0.0	234.5	37.0
=	0.0	0.0	235.0	36.9
=	0.0	0.0	235.4	36.8
=	0.0	0.0	235.8	36.7
=	0.0	0.0	236.2	36.6
=	0.0	0.0	236.6	36.6
=	0.0	0.0	237.0	36.6
=	0.0	0.0	237.5	36.5
=	0.0	0.0	237.9	36.4
=	0.0	0.0	238.5	36.3
=	0.0	0.0	239.0	36.2
=	0.0	0.0	239.5	36.1
=	0.0	0.0	240.0	36.0
=	0.0	0.0	240.6	35.9
=	0.0	0.0	241.1	35.9
=	0.0	0.0	241.5	35.7
=	0.0	0.0	242.0	35.6
=	0.0	0.0	242.4	35.6
=	0.0	0.0	242.9	35.5
=	0.0	0.0	243.3	35.4
=	0.0	0.0	243.7	35.4
=	0.0	0.0	244.2	35.3
=	0.0	0.0	244.5	35.3
=	0.0	0.0	244.9	35.2
=	0.0	0.0	245.3	35.1
=	0.0	0.0	245.8	35.0
=	0.0	0.0	246.3	34.9
=	0.0	0.0	246.7	34.8
=	0.0	0.0	247.1	34.8
=	0.0	0.0	247.5	34.7
=	0.0	0.0	248.0	34.6
=	0.0	0.0	248.6	34.4
=	0.0	0.0	249.2	34.3
=	0.0	0.0	249.7	34.3
=	0.0	0.0	250.1	34.2
=	0.0	0.0	250.6	34.2
=	0.0	0.0	251.1	34.1
=	0.0	0.0	251.6	34.0
=	0.0	0.0	252.1	33.9
=	0.0	0.0	252.5	33.8
=	0.0	0.0	253.1	33.8
=	0.0	0.0	253.6	33.7
=	0.0	0.0	254.0	33.6
=	0.0	0.0	254.5	33.5
=	0.0	0.0	254.9	33.5
=	0.0	0.0	255.3	33.4
=	0.0	0.0	255.8	33.3
=	0.0	0.0	256.3	33.3
=	0.0	0.0	256.8	33.2
=	0.0	0.0	257.2	33.1
=	0.0	0.0	257.6	33.1
=	0.0	0.0	258.1	33.0
=	0.0	0.0	258.6	32.9
=	0.0	0.0	259.1	32.8
=	0.0	0.0	259.5	32.7
=	0.0	0.0	259.9	32.7
=	0.0	0.0	260.4	32.6
=	0.0	0.0	260.8	32.6
=	0.0	0.0	261.3	32.5
=	0.0	0.0	261.6	32.4
=	0.0	0.0	262.1	32.3
=	0.0	0.0	262.6	32.3
=	0.0	0.0	263.2	32.2
=	0.0	0.0	263.7	32.1
=	0.0	0.0	264.2	32.0
=	0.0	0.0	264.7	32.0
=	0.0	0.0	265.1	31.9
=	0.0	0.0	265.5	31.9
=	0.0	0.0	265.9	31.8
=	0.0	0.0	266.3	31.8
=	0.0	0.0	266.7	31.7
=	0.0	0.0	267.1	31.6
=	0.0	0.0	267.6	31.6
=	0.0	0.0	268.1	31.5
=	0.0	0.0	268.5	31.4
=	0.0	0.0	269.0	31.3
=	0.0	0.0	269.4	31.3
=	0.0	0.0	269.8	31.2
=	0.0	0.0	270.3	31.1
=	0.0	0.0	270.7	31.1
=	0.0	0.0	271.2	31.0
=	0.0	0.0	271.7	31.0
=	0.0	0.0	272.2	30.8
=	0.0	0.0	272.8	30.7
=	0.0	0.0	273.3	30.7
=	0.0	0.0	273.7	30.6
=	0.0	0.0	274.2	30.6
=	0.0	0.0	274.7	30.5
=	0.0	0.0	275.1	30.4
=	0.0	0.0	275.6	30.4
=	0.0	0.0	276.1	30.3
=	0.0	0.0	276.4	30.2
=	0.0	0.0	276.8	30.2
=	0.0	0.0	277.2	30.1
=	0.0	0.0	277.6	30.0
=	0.0	0.0	278.0	30.0
=	0.0	0.0	278.5	29.9
=	0.0	0.0	279.0	29.9
=	0.0	0.0	279.5	29.8
=	0.0	0.0	280.1	29.7
=	0.0	0.0	280.6	29.6
=	0.0	0.0	281.1	29.5
=	0.0	0.0	281.7	29.4
=	0.0	0.0	282.1	29.4
=	0.0	0.0	282.8	29.3
=	0.0	0.0	283.4	29.2
=	0.0	0.0	283.9	29.2
=	0.0	0.0	284.4	29.1
=	0.0	0.0	284.9	29.1
=	0.0	0.0	285.5	29.0
=	0.0	0.0	286.0	28.9
=	0.0	0.0	286.6	28.8
=	0.0	0.0	287.1	28.7
=	0.0	0.0	287.6	28.7
=	0.0	0.0	288.1	28.6
=	0.0	0.0	288.7	28.5
=	0.0	0.0	289.2	28.5
=	0.0	0.0	289.6	28.4
=	0.0	0.0	290.0	28.4
=	0.0	0.0	290.4	28.3
=	0.0	0.0	290.8	28.2
=	0.0	0.0	291.2	28.2
=	0.0	0.0	291.6	28.1
=	0.0	0.0	292.0	28.1
=	0.0	0.0	292.4	28.0
=	0.0	0.0	292.8	27.9
=	0.0	0.0	293.2	27.9
=	0.0	0.0	293.6	27.8
=	0.0	0.0	294.0	27.8
=	0.0	0.0	294.6	27.7
=	0.0	0.0	295.1	27.7
=	0.0	0.0	295.5	27.6
=	0.0	0.0	296.0	27.5
=	0.0	0.0	296.5	27.4
=	0.0	0.0	297.1	27.4
=	0.0	0.0	297.7	27.3
=	0.0	0.0	298.3	27.3
=	0.0	0.0	298.8	27.2
=	0.0	0.0	299.2	27.1
=	0.0	0.0	299.7	27.0
=	0.0	0.0	300.3	26.9
=	0.0	0.0	300.7	26.9
=	0.0	0.0	301.2	26.8
=	0.0	0.0	301.7	26.8
=	0.0	0.0	302.1	26.8
=	0.0	0.0	302.6	26.7
=	0.0	0.0	303.2	26.7
=	0.0	0.0	303.5	26.6
=	0.0	0.0	304.0	26.5
=	0.0	0.0	304.5	26.5
=	0.0	0.0	304.9	26.5
=	0.0	0.0	305.4	26.4
=	0.0	0.0	305.9	26.3
=	0.0	0.0	306.3	26.2
=	0.0	0.0	306.9	26.1
=	0.0	0.0	307.4	26.1
=	0.0	0.0	307.8	26.1
=	0.0	0.0	308.1	26.0
=	0.0	0.0	308.5	26.0
=	0.0	0.0	309.0	25.9
=	0.0	0.0	309.5	25.8
=	0.0	0.0	310.0	25.8
=	0.0	0.0	310.6	25.7
=	0.0	0.0	311.2	25.6
=	0.0	0.0	311.7	25.6
=	0.0	0.0	312.2	25.5
=	0.0	0.0	312.6	25.4
=	0.0	0.0	313.1	25.4
=	0.0	0.0	313.7	25.3
=	0.0	0.0	314.2	25.3
=	0.0	0.0	314.7	25.3
=	0.0	0.0	315.2	25.2
=	0.0	0.0	315.5	25.2
=	0.0	0.0	315.8	25.1
=	0.0	0.0	316.3	25.1
=	0.0	0.0	316.7	25.0
=	0.0	0.0	317.1	25.0
=	0.0	0.0	317.6	24.9
=	0.0	0.0	318.2	24.8
=	0.0	0.0	318.7	24.7
=	0.0	0.0	319.2	24.7
=	0.0	0.0	319.8	24.6
=	0.0	0.0	320.4	24.6
=	0.0	0.0	320.8	24.5
=	0.0	0.0	321.3	24.5
=	0.0	0.0	321.7	24.4
=	0.0	0.0	322.2	24.3
=	0.0	0.0	322.6	24.3
=	0.0	0.0	323.0	24.2
=	0.0	0.0	323.6	24.2
=	0.0	0.0	324.2	24.1
=	0.0	0.0	324.7	24.1
=	0.0	0.0	325.2	24.0
=	0.0	0.0	325.6	24.0
=	0.0	0.0	326.1	23.9
=	0.0	0.0	326.6	23.8
=	0.0	0.0	327.1	23.8
=	0.0	0.0	327.7	23.8
=	0.0	0.0	328.2	23.7
=	0.0	0.0	328.7	23.6
=	0.0	0.0	329.2	23.6
=	0.0	0.0	329.6	23.5
=	0.0	0.0	330.1	23.5
=	0.0	0.0	330.5	23.5
=	0.0	0.0	331.0	23.4
=	0.0	0.0	331.5	23.3
=	0.0	0.0	331.9	23.2
=	0.0	0.0	332.4	23.2
=	0.0	0.0	333.0	23.1
=	0.0	0.0	333.4	23.1
=	0.0	0.0	333.8	23.0
=	0.0	0.0	334.2	23.0
=	0.0	0.0	334.6	23.0
=	0.0	0.0	335.1	22.9
=	0.0	0.0	335.5	22.9
=	0.0	0.0	336.0	22.9
=	0.0	0.0	336.5	22.8
=	0.0	0.0	337.0	22.7
=	0.0	0.0	337.5	22.7
=	0.0	0.0	338.0	22.6
=	0.0	0.0	338.4	22.6
=	0.0	0.0	338.8	22.5
=	0.0	0.0	339.2	22.5
=	0.0	0.0	339.7	22.5
=	0.0	0.0	340.2	22.4
=	0.0	0.0	340.7	22.4
=	0.0	0.0	341.1	22.3
=	0.0	0.0	341.5	22.3
=	0.0	0.0	341.8	22.3
=	0.0	0.0	342.2	22.2
=	0.0	0.0	342.6	22.2
=	0.0	0.0	343.0	22.2
=	0.0	0.0	343.5	22.1
=	0.0	0.0	344.1	22.0
=	0.0	0.0	344.7	21.9
=	0.0	0.0	345.3	21.9
=	0.0	0.0	345.7	21.9
=	0.0	0.0	346.2	21.8
=	0.0	0.0	346.7	21.7
=	0.0	0.0	347.2	21.7
=	0.0	0.0	347.6	21.7
=	0.0	0.0	348.0	21.7
:EOM # End of Measurement
#
# RFA300 ASCII Measurement Dump ( BDS format )
#
# Measurement number 	2
#
%VNR 1.0
%MOD 	RAT
%TYP 	SCN
%SCN 	DPT
%FLD 	ION
%DAT 	09-22-2011
%TIM 	12:00:00
%FSZ 	100	100
%BMT 	PHO	   10.0
%SSD 	1000
%BUP 	0
%BRD 	1000
%FSH 	1
%ASC 	0
%WEG 	30
%GPO 	0
%CPO 	0
%MEA 	5
%PRD 	0,0
%PTS 	752
%STS 	    0.0	  0.0	   0.0 # Start Scan values in mm ( X , Y , Z )
%EDS 	    0.0	   0.0	   347.7 # End Scan values in mm ( X , Y , Z )
#
#	  X      Y      Z     Dose
#
=	0.0	0.0	0.0	33.9
=	0.0	0.0	0.3	34.9
=	0.0	0.0	0.8	36.8
=	0.0	0.0	1.2	39.0
=	0.0	0.0	1.6	41.5
=	0.0	0.0	2.0	44.7
=	0.0	0.0	2.3	47.8
=	0.0	0.0	2.8	52.1
=	0.0	0.0	3.4	56.6
=	0.0	0.0	3.8	59.8
=	0.0	0.0	4.3	63.2
=	0.0	0.0	4.6	65.6
=	0.0	0.0	5.0	67.7
=	0.0	0.0	5.4	70.1
=	0.0	0.0	5.8	72.1
=	0.0	0.0	6.1	74.1
=	0.0	0.0	6.5	75.6
=	0.0	0.0	6.9	77.3
=	0.0	0.0	7.3	78.9
=	0.0	0.0	7.7	80.5
=	0.0	0.0	8.1	81.9
=	0.0	0.0	8.5	83.4
=	0.0	0.0	8.9	84.4
=	0.0	0.0	9.2	85.7
=	0.0	0.0	9.6	86.8
=	0.0	0.0	10.1	88.1
=	0.0	0.0	10.7	89.5
=	0.0	0.0	11.1	90.5
=	0.0	0.0	11.5	91.2
=	0.0	0.0	12.0	92.0
=	0.0	0.0	12.6	93.1
=	0.0	0.0	13.0	93.8
=	0.0	0.0	13.5	94.6
=	0.0	0.0	13.9	95.0
=	0.0	0.0	14.3	95.5
=	0.0	0.0	14.8	96.1
=	0.0	0.0	15.3	96.7
=	0.0	0.0	15.7	97.1
=	0.0	0.0	16.1	97.4
=	0.0	0.0	16.5	97.7
=	0.0	0.0	16.9	98.0
=	0.0	0.0	17.4	98.4
=	0.0	0.0	18.0	98.8
=	0.0	0.0	18.4	99.0
=	0.0	0.0	18.8	99.1
=	0.0	0.0	19.2	99.3
=	0.0	0.0	19.6	99.5
=	0.0	0.0	20.0	99.6
=	0.0	0.0	20.4	99.7
=	0.0	0.0	20.8	99.8
=	0.0	0.0	21.3	99.9
=	0.0	0.0	21.7	99.9
=	0.0	0.0	22.2	100.0
=	0.0	0.0	22.6	100.0
=	0.0	0.0	23.1	100.0
=	0.0	0.0	23.7	100.0
=	0.0	0.0	24.2	100.0
=	0.0	0.0	24.6	100.0
=	0.0	0.0	25.1	99.9
=	0.0	0.0	25.5	99.9
=	0.0	0.0	25.9	99.8
=	0.0	0.0	26.3	99.8
=	0.0	0.0	26.7	99.7
=	0.0	0.0	27.2	99.7
=	0.0	0.0	27.7	99.6
=	0.0	0.0	28.0	99.6
=	0.0	0.0	28.5	99.5
=	0.0	0.0	28.9	99.3
=	0.0	0.0	29.3	99.2
=	0.0	0.0	29.7	99.1
=	0.0	0.0	30.1	99.0
=	0.0	0.0	30.5	98.9
=	0.0	0.0	30.9	98.8
=	0.0	0.0	31.3	98.8
=	0.0	0.0	31.7	98.6
=	0.0	0.0	32.2	98.5
=	0.0	0.0	32.6	98.3
=	0.0	0.0	33.1	98.2
=	0.0	0.0	33.5	98.1
=	0.0	0.0	34.0	98.0
=	0.0	0.0	34.4	97.9
=	0.0	0.0	34.8	97.7
=	0.0	0.0	35.3	97.5
=	0.0	0.0	35.7	97.4
=	0.0	0.0	36.1	97.2
=	0.0	0.0	36.6	97.0
=	0.0	0.0	37.1	96.8
=	0.0	0.0	37.7	96.5
=	0.0	0.0	38.1	96.4
=	0.0	0.0	38.5	96.3
=	0.0	0.0	38.8	96.2
=	0.0	0.0	39.4	96.0
=	0.0	0.0	40.0	95.8
=	0.0	0.0	40.3	95.7
=	0.0	0.0	40.7	95.5
=	0.0	0.0	41.1	95.3
=	0.0	0.0	41.6	95.1
=	0.0	0.0	42.1	94.9
=	0.0	0.0	42.5	94.8
=	0.0	0.0	42.9	94.6
=	0.0	0.0	43.4	94.5
=	0.0	0.0	43.9	94.3
=	0.0	0.0	44.4	94.0
=	0.0	0.0	44.9	93.8
=	0.0	0.0	45.2	93.7
=	0.0	0.0	45.6	93.6
=	0.0	0.0	46.0	93.4
=	0.0	0.0	46.5	93.2
=	0.0	0.0	47.0	93.0
=	0.0	0.0	47.4	92.9
=	0.0	0.0	47.9	92.8
=	0.0	0.0	48.3	92.6
=	0.0	0.0	48.7	92.5
=	0.0	0.0	49.1	92.3
=	0.0	0.0	49.5	92.1
=	0.0	0.0	49.9	91.8
=	0.0	0.0	50.4	91.6
=	0.0	0.0	50.8	91.5
=	0.0	0.0	51.2	91.4
=	0.0	0.0	51.6	91.3
=	0.0	0.0	52.1	91.0
=	0.0	0.0	52.6	90.8
=	0.0	0.0	53.1	90.7
=	0.0	0.0	53.6	90.5
=	0.0	0.0	54.1	90.3
=	0.0	0.0	54.7	90.0
=	0.0	0.0	55.3	89.7
=	0.0	0.0	55.9	89.5
=	0.0	0.0	56.5	89.3
=	0.0	0.0	57.0	89.2
=	0.0	0.0	57.6	88.9
=	0.0	0.0	58.2	88.7
=	0.0	0.0	58.6	88.6
=	0.0	0.0	59.0	88.5
=	0.0	0.0	59.5	88.4
=	0.0	0.0	59.9	88.1
=	0.0	0.0	60.4	88.0
=	0.0	0.0	60.9	87.8
=	0.0	0.0	61.5	87.7
=	0.0	0.0	62.1	87.3
=	0.0	0.0	62.6	87.1
=	0.0	0.0	63.1	87.0
=	0.0	0.0	63.7	86.8
=	0.0	0.0	64.2	86.6
=	0.0	0.0	64.6	86.5
=	0.0	0.0	65.0	86.3
=	0.0	0.0	65.5	86.1
=	0.0	0.0	65.9	86.0
=	0.0	0.0	66.3	85.8
=	0.0	0.0	66.7	85.6
=	0.0	0.0	67.1	85.5
=	0.0	0.0	67.6	85.4
=	0.0	0.0	68.0	85.3
=	0.0	0.0	68.4	85.1
=	0.0	0.0	68.8	85.0
=	0.0	0.0	69.2	84.9
=	0.0	0.0	69.6	84.8
=	0.0	0.0	70.1	84.5
=	0.0	0.0	70.5	84.4
=	0.0	0.0	70.9	84.2
=	0.0	0.0	71.3	84.0
=	0.0	0.0	71.9	83.8
=	0.0	0.0	72.4	83.6
=	0.0	0.0	72.9	83.5
=	0.0	0.0	73.4	83.3
=	0.0	0.0	74.0	83.1
=	0.0	0.0	74.4	82.9
=	0.0	0.0	74.8	82.7
=	0.0	0.0	75.2	82.6
=	0.0	0.0	75.7	82.4
=	0.0	0.0	76.1	82.2
=	0.0	0.0	76.5	82.1
=	0.0	0.0	76.9	82.1
=	0.0	0.0	77.5	81.9
=	0.0	0.0	77.9	81.8
=	0.0	0.0	78.3	81.6
=	0.0	0.0	78.8	81.4
=	0.0	0.0	79.2	81.2
=	0.0	0.0	79.7	81.0
=	0.0	0.0	80.2	80.9
=	0.0	0.0	80.6	80.7
=	0.0	0.0	81.1	80.5
=	0.0	0.0	81.6	80.4
=	0.0	0.0	82.0	80.3
=	0.0	0.0	82.5	80.1
=	0.0	0.0	83.0	79.9
=	0.0	0.0	83.4	79.8
=	0.0	0.0	83.9	79.7
=	0.0	0.0	84.3	79.6
=	0.0	0.0	84.9	79.4
=	0.0	0.0	85.4	79.3
=	0.0	0.0	85.8	78.9
=	0.0	0.0	86.2	78.8
=	0.0	0.0	86.5	78.7
=	0.0	0.0	87.0	78.5
=	0.0	0.0	87.4	78.4
=	0.0	0.0	87.8	78.3
=	0.0	0.0	88.2	78.2
=	0.0	0.0	88.6	78.0
=	0.0	0.0	89.0	77.8
=	0.0	0.0	89.4	77.7
=	0.0	0.0	89.8	77.6
=	0.0	0.0	90.3	77.5
=	0.0	0.0	90.8	77.3
=	0.0	0.0	91.3	77.2
=	0.0	0.0	91.8	76.9
=	0.0	0.0	92.3	76.7
=	0.0	0.0	92.7	76.6
=	0.0	0.0	93.2	76.4
=	0.0	0.0	93.5	76.3
=	0.0	0.0	93.9	76.2
=	0.0	0.0	94.3	76.1
=	0.0	0.0	94.7	76.0
=	0.0	0.0	95.2	75.8
=	0.0	0.0	95.5	75.7
=	0.0	0.0	95.9	75.6
=	0.0	0.0	96.3	75.4
=	0.0	0.0	96.9	75.3
=	0.0	0.0	97.5	75.1
=	0.0	0.0	98.1	74.7
=	0.0	0.0	98.6	74.6
=	0.0	0.0	99.0	74.5
=	0.0	0.0	99.3	74.4
=	0.0	0.0	99.7	74.3
=	0.0	0.0	100.2	74.1
=	0.0	0.0	100.7	73.9
=	0.0	0.0	101.1	73.8
=	0.0	0.0	101.5	73.7
=	0.0	0.0	102.2	73.4
=	0.0	0.0	102.7	73.2
=	0.0	0.0	103.1	73.0
=	0.0	0.0	103.6	72.8
=	0.0	0.0	104.0	72.7
=	0.0	0.0	104.4	72.6
=	0.0	0.0	104.8	72.5
=	0.0	0.0	105.4	72.2
=	0.0	0.0	106.0	72.1
=	0.0	0.0	106.4	72.0
=	0.0	0.0	106.9	71.9
=	0.0	0.0	107.3	71.8
=	0.0	0.0	107.6	71.7
=	0.0	0.0	108.0	71.5
=	0.0	0.0	108.4	71.3
=	0.0	0.0	108.8	71.2
=	0.0	0.0	109.2	71.1
=	0.0	0.0	109.7	71.0
=	0.0	0.0	110.1	70.8
=	0.0	0.0	110.6	70.6
=	0.0	0.0	111.1	70.5
=	0.0	0.0	111.6	70.4
=	0.0	0.0	112.0	70.3
=	0.0	0.0	112.5	70.2
=	0.0	0.0	112.9	70.0
=	0.0	0.0	113.4	69.9
=	0.0	0.0	113.7	69.8
=	0.0	0.0	114.3	69.6
=	0.0	0.0	114.8	69.4
=	0.0	0.0	115.2	69.3
=	0.0	0.0	115.6	69.2
=	0.0	0.0	116.1	69.0
=	0.0	0.0	116.7	68.8
=	0.0	0.0	117.2	68.7
=	0.0	0.0	117.6	68.6
=	0.0	0.0	118.0	68.4
=	0.0	0.0	118.4	68.3
=	0.0	0.0	118.9	68.2
=	0.0	0.0	119.4	67.9
=	0.0	0.0	119.8	67.8
=	0.0	0.0	120.3	67.6
=	0.0	0.0	120.8	67.5
=	0.0	0.0	121.2	67.4
=	0.0	0.0	121.6	67.3
=	0.0	0.0	122.0	67.2
=	0.0	0.0	122.4	67.1
=	0.0	0.0	122.9	67.0
=	0.0	0.0	123.3	66.9
=	0.0	0.0	123.7	66.8
=	0.0	0.0	124.1	66.7
=	0.0	0.0	124.6	66.5
=	0.0	0.0	125.1	66.3
=	0.0	0.0	125.7	66.2
=	0.0	0.0	126.1	66.0
=	0.0	0.0	126.5	65.9
=	0.0	0.0	126.9	65.7
=	0.0	0.0	127.4	65.6
=	0.0	0.0	127.8	65.4
=	0.0	0.0	128.4	65.2
=	0.0	0.0	128.7	65.1
=	0.0	0.0	129.2	65.0
=	0.0	0.0	129.7	64.9
=	0.0	0.0	130.2	64.8
=	0.0	0.0	130.7	64.7
=	0.0	0.0	131.1	64.5
=	0.0	0.0	131.5	64.5
=	0.0	0.0	131.9	64.3
=	0.0	0.0	132.4	64.1
=	0.0	0.0	132.9	64.0
=	0.0	0.0	133.3	63.8
=	0.0	0.0	133.8	63.7
=	0.0	0.0	134.3	63.6
=	0.0	0.0	134.9	63.5
=	0.0	0.0	135.5	63.2
=	0.0	0.0	136.0	63.1
=	0.0	0.0	136.4	63.0
=	0.0	0.0	136.9	62.9
=	0.0	0.0	137.5	62.7
=	0.0	0.0	137.9	62.6
=	0.0	0.0	138.4	62.4
=	0.0	0.0	138.8	62.3
=	0.0	0.0	139.2	62.1
=	0.0	0.0	139.7	62.0
=	0.0	0.0	140.2	62.0
=	0.0	0.0	140.7	61.8
=	0.0	0.0	141.3	61.6
=	0.0	0.0	141.8	61.5
=	0.0	0.0	142.2	61.4
=	0.0	0.0	142.6	61.3
=	0.0	0.0	143.1	61.2
=	0.0	0.0	143.7	61.0
=	0.0	0.0	144.1	60.9
=	0.0	0.0	144.6	60.7
=	0.0	0.0	145.1	60.6
=	0.0	0.0	145.5	60.5
=	0.0	0.0	146.0	60.4
=	0.0	0.0	146.4	60.3
=	0.0	0.0	146.8	60.2
=	0.0	0.0	147.4	60.0
=	0.0	0.0	148.0	59.8
=	0.0	0.0	148.5	59.6
=	0.0	0.0	148.9	59.5
=	0.0	0.0	149.3	59.3
=	0.0	0.0	149.9	59.2
=	0.0	0.0	150.3	59.1
=	0.0	0.0	150.7	59.0
=	0.0	0.0	151.1	58.9
=	0.0	0.0	151.6	58.8
=	0.0	0.0	152.1	58.6
=	0.0	0.0	152.6	58.5
=	0.0	0.0	153.1	58.3
=	0.0	0.0	153.7	58.2
=	0.0	0.0	154.3	58.0
=	0.0	0.0	154.8	57.9
=	0.0	0.0	155.3	57.8
=	0.0	0.0	155.8	57.7
=	0.0	0.0	156.3	57.5
=	0.0	0.0	156.8	57.4
=	0.0	0.0	157.2	57.3
=	0.0	0.0	157.6	57.1
=	0.0	0.0	158.2	57.0
=	0.0	0.0	158.7	56.9
=	0.0	0.0	159.2	56.8
=	0.0	0.0	159.5	56.7
=	0.0	0.0	159.9	56.6
=	0.0	0.0	160.4	56.5
=	0.0	0.0	160.8	56.4
=	0.0	0.0	161.2	56.3
=	0.0	0.0	161.5	56.2
=	0.0	0.0	162.0	56.1
=	0.0	0.0	162.5	56.0
=	0.0	0.0	162.9	55.8
=	0.0	0.0	163.3	55.7
=	0.0	0.0	163.7	55.6
=	0.0	0.0	164.3	55.5
=	0.0	0.0	165.0	55.3
=	0.0	0.0	165.6	55.2
=	0.0	0.0	166.1	55.0
=	0.0	0.0	166.5	54.9
=	0.0	0.0	167.0	54.8
=	0.0	0.0	167.5	54.7
=	0.0	0.0	167.8	54.6
=	0.0	0.0	168.2	54.5
=	0.0	0.0	168.6	54.4
=	0.0	0.0	169.1	54.3
=	0.0	0.0	169.7	54.1
=	0.0	0.0	170.3	54.0
=	0.0	0.0	170.8	53.9
=	0.0	0.0	171.2	53.7
=	0.0	0.0	171.6	53.7
=	0.0	0.0	172.0	53.6
=	0.0	0.0	172.4	53.5
=	0.0	0.0	172.9	53.4
=	0.0	0.0	173.3	53.2
=	0.0	0.0	173.7	53.1
=	0.0	0.0	174.1	53.1
=	0.0	0.0	174.7	52.9
=	0.0	0.0	175.3	52.8
=	0.0	0.0	175.9	52.7
=	0.0	0.0	176.3	52.6
=	0.0	0.0	176.9	52.4
=	0.0	0.0	177.4	52.3
=	0.0	0.0	177.9	52.2
=	0.0	0.0	178.5	52.0
=	0.0	0.0	179.0	51.9
=	0.0	0.0	179.4	51.8
=	0.0	0.0	179.9	51.7
=	0.0	0.0	180.4	51.6
=	0.0	0.0	181.0	51.5
=	0.0	0.0	181.5	51.4
=	0.0	0.0	182.0	51.3
=	0.0	0.0	182.3	51.2
=	0.0	0.0	182.8	51.1
=	0.0	0.0	183.1	51.0
=	0.0	0.0	183.7	50.9
=	0.0	0.0	184.0	50.8
=	0.0	0.0	184.4	50.7
=	0.0	0.0	184.8	50.6
=	0.0	0.0	185.2	50.5
=	0.0	0.0	185.8	50.3
=	0.0	0.0	186.2	50.2
=	0.0	0.0	186.7	50.1
=	0.0	0.0	187.3	50.0
=	0.0	0.0	187.8	49.9
=	0.0	0.0	188.1	49.8
=	0.0	0.0	188.6	49.7
=	0.0	0.0	189.1	49.6
=	0.0	0.0	189.7	49.5
=	0.0	0.0	190.1	49.4
=	0.0	0.0	190.6	49.3
=	0.0	0.0	190.9	49.2
=	0.0	0.0	191.4	49.1
=	0.0	0.0	191.9	49.0
=	0.0	0.0	192.3	48.9
=	0.0	0.0	192.9	48.8
=	0.0	0.0	193.4	48.6
=	0.0	0.0	193.8	48.5
=	0.0	0.0	194.3	48.4
=	0.0	0.0	194.7	48.4
=	0.0	0.0	195.1	48.3
=	0.0	0.0	195.5	48.2
=	0.0	0.0	195.9	48.1
=	0.0	0.0	196.3	48.1
=	0.0	0.0	196.9	47.9
=	0.0	0.0	197.3	47.8
=	0.0	0.0	197.8	47.7
=	0.0	0.0	198.2	47.6
=	0.0	0.0	198.8	47.4
=	0.0	0.0	199.4	47.3
=	0.0	0.0	200.0	47.2
=	0.0	0.0	200.5	47.1
=	0.0	0.0	201.0	47.0
=	0.0	0.0	201.5	46.8
=	0.0	0.0	202.1	46.7
=	0.0	0.0	202.5	46.7
=	0.0	0.0	203.1	46.5
=	0.0	0.0	203.7	46.4
=	0.0	0.0	204.1	46.3
=	0.0	0.0	204.6	46.2
=	0.0	0.0	205.1	46.1
=	0.0	0.0	205.8	46.0
=	0.0	0.0	206.4	45.8
=	0.0	0.0	206.9	45.8
=	0.0	0.0	207.4	45.6
=	0.0	0.0	207.9	45.5
=	0.0	0.0	208.3	45.4
=	0.0	0.0	208.8	45.3
=	0.0	0.0	209.2	45.3
=	0.0	0.0	209.6	45.2
=	0.0	0.0	210.0	45.1
=	0.0	0.0	210.5	45.0
=	0.0	0.0	211.0	44.9
=	0.0	0.0	211.4	44.7
=	0.0	0.0	211.9	44.7
=	0.0	0.0	212.3	44.6
=	0.0	0.0	212.7	44.6
=	0.0	0.0	213.3	44.4
=	0.0	0.0	213.9	44.3
=	0.0	0.0	214.3	44.2
=	0.0	0.0	214.9	44.1
=	0.0	0.0	215.6	44.0
=	0.0	0.0	216.0	43.9
=	0.0	0.0	216.4	43.8
=	0.0	0.0	217.0	43.8
=	0.0	0.0	217.5	43.7
=	0.0	0.0	217.9	43.6
=	0.0	0.0	218.3	43.5
=	0.0	0.0	218.7	43.4
=	0.0	0.0	219.1	43.3
=	0.0	0.0	219.5	43.2
=	0.0	0.0	220.0	43.1
=	0.0	0.0	220.5	43.0
=	0.0	0.0	221.1	42.9
=	0.0	0.0	221.5	42.8
=	0.0	0.0	222.0	42.7
=	0.0	0.0	222.4	42.6
=	0.0	0.0	223.0	42.5
=	0.0	0.0	223.4	42.5
=	0.0	0.0	224.0	42.4
=	0.0	0.0	224.6	42.2
=	0.0	0.0	225.2	42.1
=	0.0	0.0	225.8	42.0
=	0.0	0.0	226.4	41.9
=	0.0	0.0	226.8	41.8
=	0.0	0.0	227.3	41.7
=	0.0	0.0	227.8	41.5
=	0.0	0.0	228.4	41.4
=	0.0	0.0	229.0	41.3
=	0.0	0.0	229.5	41.3
=	0.0	0.0	230.0	41.2
=	0.0	0.0	230.5	41.1
=	0.0	0.0	231.1	40.9
=	0.0	0.0	231.7	40.9
=	0.0	0.0	232.2	40.8
=	0.0	0.0	232.6	40.7
=	0.0	0.0	233.1	40.6
=	0.0	0.0	233.6	40.5
=	0.0	0.0	234.0	40.5
=	0.0	0.0	234.5	40.3
=	0.0	0.0	234.9	40.3
=	0.0	0.0	235.3	40.2
=	0.0	0.0	235.8	40.1
=	0.0	0.0	236.3	40.0
=	0.0	0.0	236.8	39.9
=	0.0	0.0	237.4	39.8
=	0.0	0.0	237.8	39.8
=	0.0	0.0	238.3	39.7
=	0.0	0.0	238.8	39.6
=	0.0	0.0	239.2	39.5
=	0.0	0.0	239.6	39.5
=	0.0	0.0	240.0	39.4
=	0.0	0.0	240.4	39.3
=	0.0	0.0	240.9	39.2
=	0.0	0.0	241.5	39.2
=	0.0	0.0	241.9	39.0
=	0.0	0.0	242.5	38.9
=	0.0	0.0	243.1	38.8
=	0.0	0.0	243.6	38.7
=	0.0	0.0	244.1	38.7
=	0.0	0.0	244.6	38.6
=	0.0	0.0	244.9	38.6
=	0.0	0.0	245.4	38.5
=	0.0	0.0	245.7	38.4
=	0.0	0.0	246.1	38.3
=	0.0	0.0	246.5	38.2
=	0.0	0.0	247.0	38.1
=	0.0	0.0	247.4	38.0
=	0.0	0.0	247.8	37.9
=	0.0	0.0	248.3	37.9
=	0.0	0.0	248.8	37.8
=	0.0	0.0	249.1	37.7
=	0.0	0.0	249.6	37.7
=	0.0	0.0	250.0	37.6
=	0.0	0.0	250.5	37.5
=	0.0	0.0	251.0	37.5
=	0.0	0.0	251.5	37.4
=	0.0	0.0	251.9	37.3
=	0.0	0.0	252.4	37.2
=	0.0	0.0	253.0	37.1
=	0.0	0.0	253.5	37.0
=	0.0	0.0	254.0	36.9
=	0.0	0.0	254.5	36.9
=	0.0	0.0	255.0	36.8
=	0.0	0.0	255.5	36.7
=	0.0	0.0	255.9	36.6
=	0.0	0.0	256.3	36.6
=	0.0	0.0	256.7	36.5
=	0.0	0.0	257.0	36.4
=	0.0	0.0	257.5	36.4
=	0.0	0.0	257.9	36.3
=	0.0	0.0	258.4	36.2
=	0.0	0.0	258.9	36.1
=	0.0	0.0	259.4	36.0
=	0.0	0.0	259.8	36.0
=	0.0	0.0	260.2	35.9
=	0.0	0.0	260.5	35.8
=	0.0	0.0	260.9	35.8
=	0.0	0.0	261.4	35.7
=	0.0	0.0	261.8	35.6
=	0.0	0.0	262.1	35.6
=	0.0	0.0	262.5	35.5
=	0.0	0.0	262.9	35.4
=	0.0	0.0	263.3	35.4
=	0.0	0.0	263.7	35.3
=	0.0	0.0	264.1	35.3
=	0.0	0.0	264.6	35.2
=	0.0	0.0	265.0	35.2
=	0.0	0.0	265.6	35.1
=	0.0	0.0	266.2	35.0
=	0.0	0.0	266.8	34.8
=	0.0	0.0	267.4	34.8
=	0.0	0.0	267.9	34.7
=	0.0	0.0	268.5	34.6
=	0.0	0.0	269.0	34.5
=	0.0	0.0	269.5	34.4
=	0.0	0.0	269.9	34.4
=	0.0	0.0	270.4	34.3
=	0.0	0.0	270.9	34.2
=	0.0	0.0	271.3	34.2
=	0.0	0.0	271.7	34.1
=	0.0	0.0	272.1	34.1
=	0.0	0.0	272.6	34.0
=	0.0	0.0	272.9	33.9
=	0.0	0.0	273.3	33.9
=	0.0	0.0	273.7	33.8
=	0.0	0.0	274.1	33.7
=	0.0	0.0	274.5	33.7
=	0.0	0.0	274.9	33.6
=	0.0	0.0	275.4	33.6
=	0.0	0.0	276.0	33.5
=	0.0	0.0	276.5	33.4
=	0.0	0.0	277.0	33.3
=	0.0	0.0	277.3	33.2
=	0.0	0.0	277.8	33.2
=	0.0	0.0	278.3	33.1
=	0.0	0.0	278.8	33.0
=	0.0	0.0	279.3	32.9
=	0.0	0.0	279.9	32.8
=	0.0	0.0	280.5	32.7
=	0.0	0.0	280.9	32.7
=	0.0	0.0	281.3	32.6
=	0.0	0.0	281.8	32.5
=	0.0	0.0	282.2	32.5
=	0.0	0.0	282.6	32.4
=	0.0	0.0	283.1	32.3
=	0.0	0.0	283.4	32.3
=	0.0	0.0	283.9	32.2
=	0.0	0.0	284.3	32.2
=	0.0	0.0	284.6	32.2
=	0.0	0.0	285.0	32.1
=	0.0	0.0	285.5	32.1
=	0.0	0.0	285.8	32.0
=	0.0	0.0	286.2	31.9
=	0.0	0.0	286.7	31.8
=	0.0	0.0	287.3	31.8
=	0.0	0.0	287.9	31.7
=	0.0	0.0	288.5	31.6
=	0.0	0.0	289.0	31.6
=	0.0	0.0	289.4	31.5
=	0.0	0.0	289.8	31.4
=	0.0	0.0	290.4	31.4
=	0.0	0.0	291.0	31.3
=	0.0	0.0	291.5	31.2
=	0.0	0.0	292.0	31.1
=	0.0	0.0	292.4	31.0
=	0.0	0.0	292.8	31.0
=	0.0	0.0	293.2	30.9
=	0.0	0.0	293.7	30.8
=	0.0	0.0	294.1	30.8
=	0.0	0.0	294.7	30.7
=	0.0	0.0	295.3	30.7
=	0.0	0.0	295.7	30.6
=	0.0	0.0	296.2	30.5
=	0.0	0.0	296.6	30.4
=	0.0	0.0	297.2	30.4
=	0.0	0.0	297.7	30.3
=	0.0	0.0	298.2	30.3
=	0.0	0.0	298.7	30.2
=	0.0	0.0	299.1	30.1
=	0.0	0.0	299.5	30.1
=	0.0	0.0	299.9	30.0
=	0.0	0.0	300.4	29.9
