:MSR 	5	 # No. of measurement in file
:SYS BDS 0   # Beam Data Scanner System
#
# RFA300 ASCII Measurement Dump ( BDS format )
#
# Measurement number 	1
#
%VNR 1.0
%MOD 	RAT
%TYP 	SCN
%SCN 	PRO
%FLD 	ION
%DAT 	10-14-2011
%TIM 	12:00:00
%FSZ 	400	300
%BMT 	PHO	   10.0
%SSD 	1000
%BUP 	0
%BRD 	1000
%FSH 	1
%ASC 	0
%WEG 	30
%GPO 	0
%CPO 	0
%MEA 	6
%PRD 	24,0
%PTS 	841
%STS 	    0.0	  -254.6	   24.0 # Start Scan values in mm ( X , Y , Z )
%EDS 	    0.0	   254.6	   24.0 # End Scan values in mm ( X , Y , Z )
#
#	  X      Y      Z     Dose
#
=	0.0	-254.6	24.0	9.8
=	0.0	-254.0	24.0	9.9
=	0.0	-253.3	24.0	9.9
=	0.0	-252.6	24.0	10.0
=	0.0	-251.9	24.0	10.0
=	0.0	-251.2	24.0	10.1
=	0.0	-250.5	24.0	10.2
=	0.0	-249.8	24.0	10.2
=	0.0	-249.0	24.0	10.3
=	0.0	-248.3	24.0	10.4
=	0.0	-247.8	24.0	10.4
=	0.0	-247.3	24.0	10.5
=	0.0	-246.7	24.0	10.5
=	0.0	-246.1	24.0	10.5
=	0.0	-245.6	24.0	10.6
=	0.0	-245.0	24.0	10.7
=	0.0	-244.4	24.0	10.7
=	0.0	-243.8	24.0	10.7
=	0.0	-243.1	24.0	10.8
=	0.0	-242.3	24.0	10.9
=	0.0	-241.7	24.0	10.9
=	0.0	-241.1	24.0	11.0
=	0.0	-240.5	24.0	11.1
=	0.0	-239.9	24.0	11.1
=	0.0	-239.2	24.0	11.1
=	0.0	-238.6	24.0	11.2
=	0.0	-237.8	24.0	11.3
=	0.0	-237.3	24.0	11.3
=	0.0	-236.6	24.0	11.4
=	0.0	-236.0	24.0	11.4
=	0.0	-235.4	24.0	11.5
=	0.0	-234.8	24.0	11.6
=	0.0	-234.1	24.0	11.7
=	0.0	-233.4	24.0	11.7
=	0.0	-232.8	24.0	11.8
=	0.0	-232.2	24.0	11.9
=	0.0	-231.7	24.0	11.9
=	0.0	-231.1	24.0	12.0
=	0.0	-230.6	24.0	12.1
=	0.0	-230.0	24.0	12.2
=	0.0	-229.3	24.0	12.3
=	0.0	-228.6	24.0	12.4
=	0.0	-227.9	24.0	12.5
=	0.0	-227.2	24.0	12.6
=	0.0	-226.6	24.0	12.7
=	0.0	-226.0	24.0	12.8
=	0.0	-225.4	24.0	12.8
=	0.0	-224.8	24.0	12.9
=	0.0	-224.2	24.0	13.1
=	0.0	-223.4	24.0	13.2
=	0.0	-222.8	24.0	13.3
=	0.0	-222.2	24.0	13.4
=	0.0	-221.7	24.0	13.5
=	0.0	-221.1	24.0	13.6
=	0.0	-220.4	24.0	13.8
=	0.0	-219.8	24.0	13.9
=	0.0	-219.3	24.0	14.0
=	0.0	-218.7	24.0	14.2
=	0.0	-218.1	24.0	14.3
=	0.0	-217.5	24.0	14.5
=	0.0	-216.9	24.0	14.7
=	0.0	-216.3	24.0	14.9
=	0.0	-215.8	24.0	15.2
=	0.0	-215.3	24.0	15.4
=	0.0	-214.7	24.0	15.7
=	0.0	-214.1	24.0	16.1
=	0.0	-213.6	24.0	16.5
=	0.0	-213.0	24.0	17.0
=	0.0	-212.4	24.0	17.5
=	0.0	-211.9	24.0	18.1
=	0.0	-211.2	24.0	19.1
=	0.0	-210.6	24.0	20.3
=	0.0	-209.8	24.0	22.1
=	0.0	-209.2	24.0	24.1
=	0.0	-208.6	24.0	26.4
=	0.0	-208.0	24.0	29.2
=	0.0	-207.4	24.0	32.6
=	0.0	-206.8	24.0	36.2
=	0.0	-206.1	24.0	40.6
=	0.0	-205.4	24.0	45.7
=	0.0	-204.8	24.0	50.6
=	0.0	-204.1	24.0	55.9
=	0.0	-203.6	24.0	60.8
=	0.0	-202.8	24.0	66.8
=	0.0	-202.1	24.0	71.5
=	0.0	-201.4	24.0	75.8
=	0.0	-200.7	24.0	79.6
=	0.0	-200.1	24.0	82.5
=	0.0	-199.3	24.0	85.0
=	0.0	-198.8	24.0	86.6
=	0.0	-198.1	24.0	88.1
=	0.0	-197.4	24.0	89.3
=	0.0	-196.8	24.0	90.1
=	0.0	-196.2	24.0	90.8
=	0.0	-195.7	24.0	91.2
=	0.0	-195.1	24.0	91.6
=	0.0	-194.5	24.0	92.0
=	0.0	-193.8	24.0	92.4
=	0.0	-193.2	24.0	92.6
=	0.0	-192.6	24.0	93.0
=	0.0	-192.0	24.0	93.2
=	0.0	-191.5	24.0	93.4
=	0.0	-190.9	24.0	93.6
=	0.0	-190.3	24.0	93.7
=	0.0	-189.8	24.0	93.9
=	0.0	-189.2	24.0	94.0
=	0.0	-188.5	24.0	94.2
=	0.0	-187.9	24.0	94.3
=	0.0	-187.3	24.0	94.4
=	0.0	-186.8	24.0	94.5
=	0.0	-186.1	24.0	94.7
=	0.0	-185.4	24.0	94.8
=	0.0	-184.9	24.0	94.9
=	0.0	-184.2	24.0	95.0
=	0.0	-183.6	24.0	95.0
=	0.0	-183.1	24.0	95.1
=	0.0	-182.6	24.0	95.2
=	0.0	-181.9	24.0	95.3
=	0.0	-181.4	24.0	95.4
=	0.0	-181.0	24.0	95.4
=	0.0	-180.4	24.0	95.5
=	0.0	-179.9	24.0	95.6
=	0.0	-179.3	24.0	95.6
=	0.0	-178.6	24.0	95.7
=	0.0	-178.0	24.0	95.7
=	0.0	-177.5	24.0	95.8
=	0.0	-176.8	24.0	95.8
=	0.0	-176.4	24.0	95.9
=	0.0	-175.9	24.0	95.9
=	0.0	-175.4	24.0	96.0
=	0.0	-174.7	24.0	96.1
=	0.0	-174.2	24.0	96.1
=	0.0	-173.6	24.0	96.1
=	0.0	-173.0	24.0	96.1
=	0.0	-172.4	24.0	96.2
=	0.0	-171.9	24.0	96.2
=	0.0	-171.2	24.0	96.2
=	0.0	-170.5	24.0	96.3
=	0.0	-170.0	24.0	96.3
=	0.0	-169.5	24.0	96.4
=	0.0	-168.9	24.0	96.4
=	0.0	-168.4	24.0	96.5
=	0.0	-168.0	24.0	96.5
=	0.0	-167.5	24.0	96.5
=	0.0	-166.8	24.0	96.5
=	0.0	-166.3	24.0	96.6
=	0.0	-165.8	24.0	96.6
=	0.0	-165.1	24.0	96.7
=	0.0	-164.4	24.0	96.7
=	0.0	-163.9	24.0	96.8
=	0.0	-163.4	24.0	96.8
=	0.0	-162.8	24.0	96.8
=	0.0	-162.1	24.0	96.9
=	0.0	-161.5	24.0	96.9
=	0.0	-160.8	24.0	96.9
=	0.0	-160.1	24.0	97.0
=	0.0	-159.3	24.0	97.0
=	0.0	-158.8	24.0	97.0
=	0.0	-158.1	24.0	97.0
=	0.0	-157.3	24.0	97.1
=	0.0	-156.6	24.0	97.1
=	0.0	-156.0	24.0	97.2
=	0.0	-155.5	24.0	97.2
=	0.0	-154.8	24.0	97.3
=	0.0	-154.2	24.0	97.3
=	0.0	-153.6	24.0	97.3
=	0.0	-153.0	24.0	97.3
=	0.0	-152.2	24.0	97.4
=	0.0	-151.7	24.0	97.4
=	0.0	-151.1	24.0	97.4
=	0.0	-150.4	24.0	97.5
=	0.0	-149.8	24.0	97.5
=	0.0	-149.2	24.0	97.6
=	0.0	-148.7	24.0	97.6
=	0.0	-148.0	24.0	97.7
=	0.0	-147.4	24.0	97.7
=	0.0	-146.8	24.0	97.8
=	0.0	-146.1	24.0	97.8
=	0.0	-145.6	24.0	97.8
=	0.0	-145.1	24.0	97.8
=	0.0	-144.5	24.0	97.8
=	0.0	-144.0	24.0	97.9
=	0.0	-143.3	24.0	97.9
=	0.0	-142.7	24.0	97.9
=	0.0	-142.1	24.0	97.9
=	0.0	-141.5	24.0	98.0
=	0.0	-141.0	24.0	98.0
=	0.0	-140.3	24.0	98.0
=	0.0	-139.8	24.0	98.0
=	0.0	-139.3	24.0	98.1
=	0.0	-138.7	24.0	98.1
=	0.0	-138.0	24.0	98.1
=	0.0	-137.3	24.0	98.2
=	0.0	-136.6	24.0	98.2
=	0.0	-136.1	24.0	98.3
=	0.0	-135.3	24.0	98.4
=	0.0	-134.8	24.0	98.4
=	0.0	-134.2	24.0	98.4
=	0.0	-133.5	24.0	98.5
=	0.0	-133.0	24.0	98.5
=	0.0	-132.3	24.0	98.5
=	0.0	-131.8	24.0	98.6
=	0.0	-131.2	24.0	98.6
=	0.0	-130.6	24.0	98.6
=	0.0	-130.1	24.0	98.7
=	0.0	-129.3	24.0	98.7
=	0.0	-128.6	24.0	98.7
=	0.0	-127.9	24.0	98.8
=	0.0	-127.4	24.0	98.8
=	0.0	-126.7	24.0	98.9
=	0.0	-126.0	24.0	99.0
=	0.0	-125.2	24.0	99.0
=	0.0	-124.7	24.0	99.0
=	0.0	-124.0	24.0	99.1
=	0.0	-123.2	24.0	99.1
=	0.0	-122.5	24.0	99.2
=	0.0	-121.9	24.0	99.2
=	0.0	-121.2	24.0	99.2
=	0.0	-120.6	24.0	99.3
=	0.0	-120.1	24.0	99.3
=	0.0	-119.3	24.0	99.3
=	0.0	-118.7	24.0	99.4
=	0.0	-118.1	24.0	99.4
=	0.0	-117.5	24.0	99.4
=	0.0	-116.8	24.0	99.4
=	0.0	-116.1	24.0	99.5
=	0.0	-115.5	24.0	99.5
=	0.0	-115.0	24.0	99.5
=	0.0	-114.3	24.0	99.6
=	0.0	-113.8	24.0	99.6
=	0.0	-113.1	24.0	99.6
=	0.0	-112.6	24.0	99.6
=	0.0	-111.8	24.0	99.7
=	0.0	-111.2	24.0	99.7
=	0.0	-110.5	24.0	99.7
=	0.0	-109.9	24.0	99.8
=	0.0	-109.2	24.0	99.8
=	0.0	-108.6	24.0	99.8
=	0.0	-108.0	24.0	99.9
=	0.0	-107.3	24.0	99.9
=	0.0	-106.7	24.0	99.9
=	0.0	-106.2	24.0	99.9
=	0.0	-105.6	24.0	100.0
=	0.0	-104.9	24.0	100.0
=	0.0	-104.3	24.0	100.0
=	0.0	-103.7	24.0	100.1
=	0.0	-103.0	24.0	100.1
=	0.0	-102.3	24.0	100.1
=	0.0	-101.5	24.0	100.2
=	0.0	-101.0	24.0	100.2
=	0.0	-100.4	24.0	100.2
=	0.0	-99.7	24.0	100.3
=	0.0	-99.2	24.0	100.3
=	0.0	-98.5	24.0	100.3
=	0.0	-98.0	24.0	100.4
=	0.0	-97.2	24.0	100.4
=	0.0	-96.7	24.0	100.4
=	0.0	-96.1	24.0	100.4
=	0.0	-95.6	24.0	100.4
=	0.0	-95.1	24.0	100.5
=	0.0	-94.5	24.0	100.5
=	0.0	-94.0	24.0	100.5
=	0.0	-93.4	24.0	100.5
=	0.0	-92.8	24.0	100.6
=	0.0	-92.2	24.0	100.5
=	0.0	-91.7	24.0	100.6
=	0.0	-91.0	24.0	100.6
=	0.0	-90.2	24.0	100.6
=	0.0	-89.5	24.0	100.6
=	0.0	-88.9	24.0	100.6
=	0.0	-88.3	24.0	100.6
=	0.0	-87.6	24.0	100.7
=	0.0	-86.9	24.0	100.7
=	0.0	-86.3	24.0	100.7
=	0.0	-85.5	24.0	100.8
=	0.0	-84.9	24.0	100.8
=	0.0	-84.3	24.0	100.8
=	0.0	-83.7	24.0	100.8
=	0.0	-83.1	24.0	100.8
=	0.0	-82.5	24.0	100.8
=	0.0	-81.8	24.0	100.9
=	0.0	-81.2	24.0	100.9
=	0.0	-80.6	24.0	101.0
=	0.0	-80.0	24.0	101.0
=	0.0	-79.3	24.0	101.0
=	0.0	-78.8	24.0	101.0
=	0.0	-78.3	24.0	101.0
=	0.0	-77.6	24.0	101.0
=	0.0	-77.1	24.0	101.0
=	0.0	-76.6	24.0	101.0
=	0.0	-75.9	24.0	101.0
=	0.0	-75.1	24.0	101.0
=	0.0	-74.5	24.0	101.0
=	0.0	-74.0	24.0	101.0
=	0.0	-73.5	24.0	101.0
=	0.0	-72.9	24.0	101.0
=	0.0	-72.4	24.0	101.1
=	0.0	-71.9	24.0	101.1
=	0.0	-71.1	24.0	101.1
=	0.0	-70.4	24.0	101.1
=	0.0	-69.7	24.0	101.2
=	0.0	-69.0	24.0	101.2
=	0.0	-68.5	24.0	101.2
=	0.0	-68.0	24.0	101.2
=	0.0	-67.4	24.0	101.2
=	0.0	-66.8	24.0	101.2
=	0.0	-66.2	24.0	101.2
=	0.0	-65.6	24.0	101.2
=	0.0	-64.8	24.0	101.2
=	0.0	-64.1	24.0	101.2
=	0.0	-63.6	24.0	101.2
=	0.0	-62.9	24.0	101.2
=	0.0	-62.3	24.0	101.2
=	0.0	-61.8	24.0	101.2
=	0.0	-61.2	24.0	101.2
=	0.0	-60.5	24.0	101.3
=	0.0	-59.8	24.0	101.2
=	0.0	-59.2	24.0	101.2
=	0.0	-58.6	24.0	101.3
=	0.0	-58.1	24.0	101.3
=	0.0	-57.5	24.0	101.3
=	0.0	-56.9	24.0	101.3
=	0.0	-56.4	24.0	101.3
=	0.0	-55.8	24.0	101.3
=	0.0	-55.3	24.0	101.3
=	0.0	-54.8	24.0	101.3
=	0.0	-54.3	24.0	101.3
=	0.0	-53.7	24.0	101.3
=	0.0	-53.1	24.0	101.3
=	0.0	-52.3	24.0	101.3
=	0.0	-51.8	24.0	101.3
=	0.0	-51.3	24.0	101.3
=	0.0	-50.7	24.0	101.3
=	0.0	-50.1	24.0	101.3
=	0.0	-49.6	24.0	101.3
=	0.0	-49.1	24.0	101.3
=	0.0	-48.5	24.0	101.2
=	0.0	-47.8	24.0	101.2
=	0.0	-47.1	24.0	101.2
=	0.0	-46.6	24.0	101.2
=	0.0	-46.0	24.0	101.2
=	0.0	-45.3	24.0	101.2
=	0.0	-44.7	24.0	101.2
=	0.0	-44.2	24.0	101.2
=	0.0	-43.7	24.0	101.1
=	0.0	-43.2	24.0	101.1
=	0.0	-42.5	24.0	101.1
=	0.0	-42.0	24.0	101.1
=	0.0	-41.4	24.0	101.1
=	0.0	-40.9	24.0	101.1
=	0.0	-40.1	24.0	101.1
=	0.0	-39.6	24.0	101.0
=	0.0	-39.0	24.0	101.0
=	0.0	-38.4	24.0	101.0
=	0.0	-37.8	24.0	101.0
=	0.0	-37.4	24.0	101.0
=	0.0	-36.9	24.0	100.9
=	0.0	-36.3	24.0	100.9
=	0.0	-35.6	24.0	100.9
=	0.0	-35.0	24.0	100.9
=	0.0	-34.3	24.0	100.9
=	0.0	-33.8	24.0	100.9
=	0.0	-33.3	24.0	100.9
=	0.0	-32.8	24.0	100.8
=	0.0	-32.1	24.0	100.8
=	0.0	-31.5	24.0	100.8
=	0.0	-31.0	24.0	100.7
=	0.0	-30.4	24.0	100.7
=	0.0	-29.7	24.0	100.7
=	0.0	-29.2	24.0	100.7
=	0.0	-28.7	24.0	100.7
=	0.0	-28.0	24.0	100.7
=	0.0	-27.4	24.0	100.6
=	0.0	-26.7	24.0	100.6
=	0.0	-26.2	24.0	100.6
=	0.0	-25.6	24.0	100.6
=	0.0	-25.0	24.0	100.6
=	0.0	-24.5	24.0	100.6
=	0.0	-24.0	24.0	100.5
=	0.0	-23.6	24.0	100.5
=	0.0	-23.0	24.0	100.5
=	0.0	-22.2	24.0	100.5
=	0.0	-21.7	24.0	100.5
=	0.0	-21.2	24.0	100.5
=	0.0	-20.6	24.0	100.4
=	0.0	-20.0	24.0	100.4
=	0.0	-19.4	24.0	100.4
=	0.0	-18.9	24.0	100.4
=	0.0	-18.3	24.0	100.4
=	0.0	-17.7	24.0	100.4
=	0.0	-17.0	24.0	100.4
=	0.0	-16.4	24.0	100.4
=	0.0	-15.8	24.0	100.3
=	0.0	-15.2	24.0	100.3
=	0.0	-14.6	24.0	100.3
=	0.0	-14.1	24.0	100.3
=	0.0	-13.5	24.0	100.2
=	0.0	-13.0	24.0	100.2
=	0.0	-12.5	24.0	100.2
=	0.0	-11.7	24.0	100.2
=	0.0	-11.0	24.0	100.2
=	0.0	-10.4	24.0	100.2
=	0.0	-9.8	24.0	100.2
=	0.0	-9.4	24.0	100.2
=	0.0	-8.8	24.0	100.2
=	0.0	-8.3	24.0	100.2
=	0.0	-7.6	24.0	100.2
=	0.0	-6.9	24.0	100.2
=	0.0	-6.5	24.0	100.1
=	0.0	-5.8	24.0	100.2
=	0.0	-5.3	24.0	100.1
=	0.0	-4.8	24.0	100.1
=	0.0	-4.2	24.0	100.0
=	0.0	-3.7	24.0	100.0
=	0.0	-2.9	24.0	100.0
=	0.0	-2.3	24.0	100.0
=	0.0	-1.7	24.0	100.0
=	0.0	-1.2	24.0	100.0
=	0.0	-0.7	24.0	100.0
=	0.0	-0.2	24.0	100.0
=	0.0	0.0	24.0	100.0
=	0.0	0.2	24.0	100.0
=	0.0	0.7	24.0	100.0
=	0.0	1.2	24.0	100.0
=	0.0	1.7	24.0	100.0
=	0.0	2.3	24.0	100.0
=	0.0	2.9	24.0	100.0
=	0.0	3.7	24.0	100.0
=	0.0	4.2	24.0	100.0
=	0.0	4.8	24.0	100.1
=	0.0	5.3	24.0	100.1
=	0.0	5.8	24.0	100.2
=	0.0	6.5	24.0	100.1
=	0.0	6.9	24.0	100.2
=	0.0	7.6	24.0	100.2
=	0.0	8.3	24.0	100.2
=	0.0	8.8	24.0	100.2
=	0.0	9.4	24.0	100.2
=	0.0	9.8	24.0	100.2
=	0.0	10.4	24.0	100.2
=	0.0	11.0	24.0	100.2
=	0.0	11.7	24.0	100.2
=	0.0	12.5	24.0	100.2
=	0.0	13.0	24.0	100.2
=	0.0	13.5	24.0	100.2
=	0.0	14.1	24.0	100.3
=	0.0	14.6	24.0	100.3
=	0.0	15.2	24.0	100.3
=	0.0	15.8	24.0	100.3
=	0.0	16.4	24.0	100.4
=	0.0	17.0	24.0	100.4
=	0.0	17.7	24.0	100.4
=	0.0	18.3	24.0	100.4
=	0.0	18.9	24.0	100.4
=	0.0	19.4	24.0	100.4
=	0.0	20.0	24.0	100.4
=	0.0	20.6	24.0	100.4
=	0.0	21.2	24.0	100.5
=	0.0	21.7	24.0	100.5
=	0.0	22.2	24.0	100.5
=	0.0	23.0	24.0	100.5
=	0.0	23.6	24.0	100.5
=	0.0	24.0	24.0	100.5
=	0.0	24.5	24.0	100.6
=	0.0	25.0	24.0	100.6
=	0.0	25.6	24.0	100.6
=	0.0	26.2	24.0	100.6
=	0.0	26.7	24.0	100.6
=	0.0	27.4	24.0	100.6
=	0.0	28.0	24.0	100.7
=	0.0	28.7	24.0	100.7
=	0.0	29.2	24.0	100.7
=	0.0	29.7	24.0	100.7
=	0.0	30.4	24.0	100.7
=	0.0	31.0	24.0	100.7
=	0.0	31.5	24.0	100.8
=	0.0	32.1	24.0	100.8
=	0.0	32.8	24.0	100.8
=	0.0	33.3	24.0	100.9
=	0.0	33.8	24.0	100.9
=	0.0	34.3	24.0	100.9
=	0.0	35.0	24.0	100.9
=	0.0	35.6	24.0	100.9
=	0.0	36.3	24.0	100.9
=	0.0	36.9	24.0	100.9
=	0.0	37.4	24.0	101.0
=	0.0	37.8	24.0	101.0
=	0.0	38.4	24.0	101.0
=	0.0	39.0	24.0	101.0
=	0.0	39.6	24.0	101.0
=	0.0	40.1	24.0	101.1
=	0.0	40.9	24.0	101.1
=	0.0	41.4	24.0	101.1
=	0.0	42.0	24.0	101.1
=	0.0	42.5	24.0	101.1
=	0.0	43.2	24.0	101.1
=	0.0	43.7	24.0	101.1
=	0.0	44.2	24.0	101.2
=	0.0	44.7	24.0	101.2
=	0.0	45.3	24.0	101.2
=	0.0	46.0	24.0	101.2
=	0.0	46.6	24.0	101.2
=	0.0	47.1	24.0	101.2
=	0.0	47.8	24.0	101.2
=	0.0	48.5	24.0	101.2
=	0.0	49.1	24.0	101.3
=	0.0	49.6	24.0	101.3
=	0.0	50.1	24.0	101.3
=	0.0	50.7	24.0	101.3
=	0.0	51.3	24.0	101.3
=	0.0	51.8	24.0	101.3
=	0.0	52.3	24.0	101.3
=	0.0	53.1	24.0	101.3
=	0.0	53.7	24.0	101.3
=	0.0	54.3	24.0	101.3
=	0.0	54.8	24.0	101.3
=	0.0	55.3	24.0	101.3
=	0.0	55.8	24.0	101.3
=	0.0	56.4	24.0	101.3
=	0.0	56.9	24.0	101.3
=	0.0	57.5	24.0	101.3
=	0.0	58.1	24.0	101.3
=	0.0	58.6	24.0	101.3
=	0.0	59.2	24.0	101.2
=	0.0	59.8	24.0	101.2
=	0.0	60.5	24.0	101.3
=	0.0	61.2	24.0	101.2
=	0.0	61.8	24.0	101.2
=	0.0	62.3	24.0	101.2
=	0.0	62.9	24.0	101.2
=	0.0	63.6	24.0	101.2
=	0.0	64.1	24.0	101.2
=	0.0	64.8	24.0	101.2
=	0.0	65.6	24.0	101.2
=	0.0	66.2	24.0	101.2
=	0.0	66.8	24.0	101.2
=	0.0	67.4	24.0	101.2
=	0.0	68.0	24.0	101.2
=	0.0	68.5	24.0	101.2
=	0.0	69.0	24.0	101.2
=	0.0	69.7	24.0	101.2
=	0.0	70.4	24.0	101.1
=	0.0	71.1	24.0	101.1
=	0.0	71.9	24.0	101.1
=	0.0	72.4	24.0	101.1
=	0.0	72.9	24.0	101.0
=	0.0	73.5	24.0	101.0
=	0.0	74.0	24.0	101.0
=	0.0	74.5	24.0	101.0
=	0.0	75.1	24.0	101.0
=	0.0	75.9	24.0	101.0
=	0.0	76.6	24.0	101.0
=	0.0	77.1	24.0	101.0
=	0.0	77.6	24.0	101.0
=	0.0	78.3	24.0	101.0
=	0.0	78.8	24.0	101.0
=	0.0	79.3	24.0	101.0
=	0.0	80.0	24.0	101.0
=	0.0	80.6	24.0	101.0
=	0.0	81.2	24.0	100.9
=	0.0	81.8	24.0	100.9
=	0.0	82.5	24.0	100.8
=	0.0	83.1	24.0	100.8
=	0.0	83.7	24.0	100.8
=	0.0	84.3	24.0	100.8
=	0.0	84.9	24.0	100.8
=	0.0	85.5	24.0	100.8
=	0.0	86.3	24.0	100.7
=	0.0	86.9	24.0	100.7
=	0.0	87.6	24.0	100.7
=	0.0	88.3	24.0	100.6
=	0.0	88.9	24.0	100.6
=	0.0	89.5	24.0	100.6
=	0.0	90.2	24.0	100.6
=	0.0	91.0	24.0	100.6
=	0.0	91.7	24.0	100.6
=	0.0	92.2	24.0	100.5
=	0.0	92.8	24.0	100.6
=	0.0	93.4	24.0	100.5
=	0.0	94.0	24.0	100.5
=	0.0	94.5	24.0	100.5
=	0.0	95.1	24.0	100.5
=	0.0	95.6	24.0	100.4
=	0.0	96.1	24.0	100.4
=	0.0	96.7	24.0	100.4
=	0.0	97.2	24.0	100.4
=	0.0	98.0	24.0	100.4
=	0.0	98.5	24.0	100.3
=	0.0	99.2	24.0	100.3
=	0.0	99.7	24.0	100.3
=	0.0	100.4	24.0	100.2
=	0.0	101.0	24.0	100.2
=	0.0	101.5	24.0	100.2
=	0.0	102.3	24.0	100.1
=	0.0	103.0	24.0	100.1
=	0.0	103.7	24.0	100.1
=	0.0	104.3	24.0	100.0
=	0.0	104.9	24.0	100.0
=	0.0	105.6	24.0	100.0
=	0.0	106.2	24.0	99.9
=	0.0	106.7	24.0	99.9
=	0.0	107.3	24.0	99.9
=	0.0	108.0	24.0	99.9
=	0.0	108.6	24.0	99.8
=	0.0	109.2	24.0	99.8
=	0.0	109.9	24.0	99.8
=	0.0	110.5	24.0	99.7
=	0.0	111.2	24.0	99.7
=	0.0	111.8	24.0	99.7
=	0.0	112.6	24.0	99.6
=	0.0	113.1	24.0	99.6
=	0.0	113.8	24.0	99.6
=	0.0	114.3	24.0	99.6
=	0.0	115.0	24.0	99.5
=	0.0	115.5	24.0	99.5
=	0.0	116.1	24.0	99.5
=	0.0	116.8	24.0	99.4
=	0.0	117.5	24.0	99.4
=	0.0	118.1	24.0	99.4
=	0.0	118.7	24.0	99.4
=	0.0	119.3	24.0	99.3
=	0.0	120.1	24.0	99.3
=	0.0	120.6	24.0	99.3
=	0.0	121.2	24.0	99.2
=	0.0	121.9	24.0	99.2
=	0.0	122.5	24.0	99.2
=	0.0	123.2	24.0	99.1
=	0.0	124.0	24.0	99.1
=	0.0	124.7	24.0	99.0
=	0.0	125.2	24.0	99.0
=	0.0	126.0	24.0	99.0
=	0.0	126.7	24.0	98.9
=	0.0	127.4	24.0	98.8
=	0.0	127.9	24.0	98.8
=	0.0	128.6	24.0	98.7
=	0.0	129.3	24.0	98.7
=	0.0	130.1	24.0	98.7
=	0.0	130.6	24.0	98.6
=	0.0	131.2	24.0	98.6
=	0.0	131.8	24.0	98.6
=	0.0	132.3	24.0	98.5
=	0.0	133.0	24.0	98.5
=	0.0	133.5	24.0	98.5
=	0.0	134.2	24.0	98.4
=	0.0	134.8	24.0	98.4
=	0.0	135.3	24.0	98.4
=	0.0	136.1	24.0	98.3
=	0.0	136.6	24.0	98.2
=	0.0	137.3	24.0	98.2
=	0.0	138.0	24.0	98.1
=	0.0	138.7	24.0	98.1
=	0.0	139.3	24.0	98.1
=	0.0	139.8	24.0	98.0
=	0.0	140.3	24.0	98.0
=	0.0	141.0	24.0	98.0
=	0.0	141.5	24.0	98.0
=	0.0	142.1	24.0	97.9
=	0.0	142.7	24.0	97.9
=	0.0	143.3	24.0	97.9
=	0.0	144.0	24.0	97.9
=	0.0	144.5	24.0	97.8
=	0.0	145.1	24.0	97.8
=	0.0	145.6	24.0	97.8
=	0.0	146.1	24.0	97.8
=	0.0	146.8	24.0	97.8
=	0.0	147.4	24.0	97.7
=	0.0	148.0	24.0	97.7
=	0.0	148.7	24.0	97.6
=	0.0	149.2	24.0	97.6
=	0.0	149.8	24.0	97.5
=	0.0	150.4	24.0	97.5
=	0.0	151.1	24.0	97.4
=	0.0	151.7	24.0	97.4
=	0.0	152.2	24.0	97.4
=	0.0	153.0	24.0	97.3
=	0.0	153.6	24.0	97.3
=	0.0	154.2	24.0	97.3
=	0.0	154.8	24.0	97.3
=	0.0	155.5	24.0	97.2
=	0.0	156.0	24.0	97.2
=	0.0	156.6	24.0	97.1
=	0.0	157.3	24.0	97.1
=	0.0	158.1	24.0	97.0
=	0.0	158.8	24.0	97.0
=	0.0	159.3	24.0	97.0
=	0.0	160.1	24.0	97.0
=	0.0	160.8	24.0	96.9
=	0.0	161.5	24.0	96.9
=	0.0	162.1	24.0	96.9
=	0.0	162.8	24.0	96.8
=	0.0	163.4	24.0	96.8
=	0.0	163.9	24.0	96.8
=	0.0	164.4	24.0	96.7
=	0.0	165.1	24.0	96.7
=	0.0	165.8	24.0	96.6
=	0.0	166.3	24.0	96.6
=	0.0	166.8	24.0	96.5
=	0.0	167.5	24.0	96.5
=	0.0	168.0	24.0	96.5
=	0.0	168.4	24.0	96.5
=	0.0	168.9	24.0	96.4
=	0.0	169.5	24.0	96.4
=	0.0	170.0	24.0	96.3
=	0.0	170.5	24.0	96.3
=	0.0	171.2	24.0	96.2
=	0.0	171.9	24.0	96.2
=	0.0	172.4	24.0	96.2
=	0.0	173.0	24.0	96.1
=	0.0	173.6	24.0	96.1
=	0.0	174.2	24.0	96.1
=	0.0	174.7	24.0	96.1
=	0.0	175.4	24.0	96.0
=	0.0	175.9	24.0	95.9
=	0.0	176.4	24.0	95.9
=	0.0	176.8	24.0	95.8
=	0.0	177.5	24.0	95.8
=	0.0	178.0	24.0	95.7
=	0.0	178.6	24.0	95.7
=	0.0	179.3	24.0	95.6
=	0.0	179.9	24.0	95.6
=	0.0	180.4	24.0	95.5
=	0.0	181.0	24.0	95.4
=	0.0	181.4	24.0	95.4
=	0.0	181.9	24.0	95.3
=	0.0	182.6	24.0	95.2
=	0.0	183.1	24.0	95.1
=	0.0	183.6	24.0	95.0
=	0.0	184.2	24.0	95.0
=	0.0	184.9	24.0	94.9
=	0.0	185.4	24.0	94.8
=	0.0	186.1	24.0	94.7
=	0.0	186.8	24.0	94.5
=	0.0	187.3	24.0	94.4
=	0.0	187.9	24.0	94.3
=	0.0	188.5	24.0	94.2
=	0.0	189.2	24.0	94.0
=	0.0	189.8	24.0	93.9
=	0.0	190.3	24.0	93.7
=	0.0	190.9	24.0	93.6
=	0.0	191.5	24.0	93.4
=	0.0	192.0	24.0	93.2
=	0.0	192.6	24.0	93.0
=	0.0	193.2	24.0	92.6
=	0.0	193.8	24.0	92.4
=	0.0	194.5	24.0	92.0
=	0.0	195.1	24.0	91.6
=	0.0	195.7	24.0	91.2
=	0.0	196.2	24.0	90.8
=	0.0	196.8	24.0	90.1
=	0.0	197.4	24.0	89.3
=	0.0	198.1	24.0	88.1
=	0.0	198.8	24.0	86.6
=	0.0	199.3	24.0	85.0
=	0.0	200.1	24.0	82.5
=	0.0	200.7	24.0	79.6
=	0.0	201.4	24.0	75.8
=	0.0	202.1	24.0	71.5
=	0.0	202.8	24.0	66.8
=	0.0	203.6	24.0	60.8
=	0.0	204.1	24.0	55.9
=	0.0	204.8	24.0	50.6
=	0.0	205.4	24.0	45.7
=	0.0	206.1	24.0	40.6
=	0.0	206.8	24.0	36.2
=	0.0	207.4	24.0	32.6
=	0.0	208.0	24.0	29.2
=	0.0	208.6	24.0	26.4
=	0.0	209.2	24.0	24.1
=	0.0	209.8	24.0	22.1
=	0.0	210.6	24.0	20.3
=	0.0	211.2	24.0	19.1
=	0.0	211.9	24.0	18.1
=	0.0	212.4	24.0	17.5
=	0.0	213.0	24.0	17.0
=	0.0	213.6	24.0	16.5
=	0.0	214.1	24.0	16.1
=	0.0	214.7	24.0	15.7
=	0.0	215.3	24.0	15.4
=	0.0	215.8	24.0	15.2
=	0.0	216.3	24.0	14.9
=	0.0	216.9	24.0	14.7
=	0.0	217.5	24.0	14.5
=	0.0	218.1	24.0	14.3
=	0.0	218.7	24.0	14.2
=	0.0	219.3	24.0	14.0
=	0.0	219.8	24.0	13.9
=	0.0	220.4	24.0	13.8
=	0.0	221.1	24.0	13.6
=	0.0	221.7	24.0	13.5
=	0.0	222.2	24.0	13.4
=	0.0	222.8	24.0	13.3
=	0.0	223.4	24.0	13.2
=	0.0	224.2	24.0	13.1
=	0.0	224.8	24.0	12.9
=	0.0	225.4	24.0	12.8
=	0.0	226.0	24.0	12.8
=	0.0	226.6	24.0	12.7
=	0.0	227.2	24.0	12.6
=	0.0	227.9	24.0	12.5
=	0.0	228.6	24.0	12.4
=	0.0	229.3	24.0	12.3
=	0.0	230.0	24.0	12.2
=	0.0	230.6	24.0	12.1
=	0.0	231.1	24.0	12.0
=	0.0	231.7	24.0	11.9
=	0.0	232.2	24.0	11.9
=	0.0	232.8	24.0	11.8
=	0.0	233.4	24.0	11.7
=	0.0	234.1	24.0	11.7
=	0.0	234.8	24.0	11.6
=	0.0	235.4	24.0	11.5
=	0.0	236.0	24.0	11.4
=	0.0	236.6	24.0	11.4
=	0.0	237.3	24.0	11.3
=	0.0	237.8	24.0	11.3
=	0.0	238.6	24.0	11.2
=	0.0	239.2	24.0	11.1
=	0.0	239.9	24.0	11.1
=	0.0	240.5	24.0	11.1
=	0.0	241.1	24.0	11.0
=	0.0	241.7	24.0	10.9
=	0.0	242.3	24.0	10.9
=	0.0	243.1	24.0	10.8
=	0.0	243.8	24.0	10.7
=	0.0	244.4	24.0	10.7
=	0.0	245.0	24.0	10.7
=	0.0	245.6	24.0	10.6
=	0.0	246.1	24.0	10.5
=	0.0	246.7	24.0	10.5
=	0.0	247.3	24.0	10.5
=	0.0	247.8	24.0	10.4
=	0.0	248.3	24.0	10.4
=	0.0	249.0	24.0	10.3
=	0.0	249.8	24.0	10.2
=	0.0	250.5	24.0	10.2
=	0.0	251.2	24.0	10.1
=	0.0	251.9	24.0	10.0
=	0.0	252.6	24.0	10.0
=	0.0	253.3	24.0	9.9
=	0.0	254.0	24.0	9.9
=	0.0	254.6	24.0	9.8
:EOM # End of Measurement
#
# RFA300 ASCII Measurement Dump ( BDS format )
#
# Measurement number 	2
#
%VNR 1.0
%MOD 	RAT
%TYP 	SCN
%SCN 	PRO
%FLD 	ION
%DAT 	10-14-2011
%TIM 	12:00:00
%FSZ 	400	300
%BMT 	PHO	   10.0
%SSD 	1000
%BUP 	0
%BRD 	1000
%FSH 	1
%ASC 	0
%WEG 	30
%GPO 	0
%CPO 	0
%MEA 	6
%PRD 	50,0
%PTS 	819
%STS 	    0.0	  -259.5	   50.0 # Start Scan values in mm ( X , Y , Z )
%EDS 	    0.0	   259.5	   50.0 # End Scan values in mm ( X , Y , Z )
#
#	  X      Y      Z     Dose
#
=	0.0	-259.5	50.0	9.8
=	0.0	-258.9	50.0	9.8
=	0.0	-258.3	50.0	9.9
=	0.0	-257.6	50.0	9.9
=	0.0	-256.9	50.0	10.0
=	0.0	-256.1	50.0	10.1
=	0.0	-255.4	50.0	10.1
=	0.0	-254.7	50.0	10.2
=	0.0	-253.9	50.0	10.3
=	0.0	-253.3	50.0	10.3
=	0.0	-252.7	50.0	10.4
=	0.0	-252.0	50.0	10.4
=	0.0	-251.3	50.0	10.5
=	0.0	-250.6	50.0	10.6
=	0.0	-250.0	50.0	10.6
=	0.0	-249.4	50.0	10.7
=	0.0	-248.6	50.0	10.7
=	0.0	-247.9	50.0	10.8
=	0.0	-247.2	50.0	10.9
=	0.0	-246.6	50.0	10.9
=	0.0	-246.1	50.0	11.0
=	0.0	-245.5	50.0	11.1
=	0.0	-244.9	50.0	11.1
=	0.0	-244.3	50.0	11.1
=	0.0	-243.7	50.0	11.2
=	0.0	-243.0	50.0	11.3
=	0.0	-242.2	50.0	11.4
=	0.0	-241.6	50.0	11.4
=	0.0	-241.0	50.0	11.5
=	0.0	-240.3	50.0	11.6
=	0.0	-239.7	50.0	11.7
=	0.0	-239.1	50.0	11.8
=	0.0	-238.6	50.0	11.8
=	0.0	-237.8	50.0	11.9
=	0.0	-237.1	50.0	12.0
=	0.0	-236.5	50.0	12.1
=	0.0	-235.9	50.0	12.2
=	0.0	-235.4	50.0	12.2
=	0.0	-234.7	50.0	12.3
=	0.0	-234.1	50.0	12.4
=	0.0	-233.5	50.0	12.5
=	0.0	-233.0	50.0	12.6
=	0.0	-232.3	50.0	12.7
=	0.0	-231.5	50.0	12.9
=	0.0	-230.8	50.0	13.0
=	0.0	-230.1	50.0	13.1
=	0.0	-229.4	50.0	13.3
=	0.0	-228.7	50.0	13.4
=	0.0	-228.0	50.0	13.5
=	0.0	-227.4	50.0	13.7
=	0.0	-226.7	50.0	13.8
=	0.0	-226.0	50.0	13.9
=	0.0	-225.2	50.0	14.2
=	0.0	-224.5	50.0	14.3
=	0.0	-223.8	50.0	14.5
=	0.0	-223.1	50.0	14.8
=	0.0	-222.5	50.0	14.9
=	0.0	-221.9	50.0	15.2
=	0.0	-221.3	50.0	15.5
=	0.0	-220.6	50.0	15.8
=	0.0	-220.0	50.0	16.1
=	0.0	-219.1	50.0	16.7
=	0.0	-218.3	50.0	17.3
=	0.0	-217.5	50.0	18.1
=	0.0	-216.8	50.0	19.0
=	0.0	-216.2	50.0	20.1
=	0.0	-215.4	50.0	21.7
=	0.0	-214.7	50.0	23.5
=	0.0	-214.0	50.0	25.7
=	0.0	-213.3	50.0	28.5
=	0.0	-212.5	50.0	32.1
=	0.0	-212.0	50.0	35.2
=	0.0	-211.3	50.0	39.2
=	0.0	-210.6	50.0	44.0
=	0.0	-209.9	50.0	49.0
=	0.0	-209.4	50.0	53.4
=	0.0	-208.8	50.0	57.6
=	0.0	-208.1	50.0	62.7
=	0.0	-207.6	50.0	66.4
=	0.0	-207.0	50.0	70.4
=	0.0	-206.4	50.0	74.2
=	0.0	-205.8	50.0	77.0
=	0.0	-205.2	50.0	79.6
=	0.0	-204.5	50.0	82.3
=	0.0	-203.9	50.0	83.8
=	0.0	-203.3	50.0	85.2
=	0.0	-202.7	50.0	86.2
=	0.0	-201.9	50.0	87.4
=	0.0	-201.3	50.0	88.2
=	0.0	-200.7	50.0	88.8
=	0.0	-200.0	50.0	89.4
=	0.0	-199.4	50.0	89.9
=	0.0	-198.9	50.0	90.2
=	0.0	-198.1	50.0	90.6
=	0.0	-197.6	50.0	90.9
=	0.0	-197.0	50.0	91.1
=	0.0	-196.4	50.0	91.3
=	0.0	-195.9	50.0	91.5
=	0.0	-195.2	50.0	91.8
=	0.0	-194.6	50.0	91.9
=	0.0	-193.9	50.0	92.2
=	0.0	-193.2	50.0	92.4
=	0.0	-192.6	50.0	92.5
=	0.0	-192.0	50.0	92.7
=	0.0	-191.2	50.0	92.8
=	0.0	-190.4	50.0	93.0
=	0.0	-189.7	50.0	93.2
=	0.0	-189.0	50.0	93.3
=	0.0	-188.3	50.0	93.5
=	0.0	-187.6	50.0	93.5
=	0.0	-186.8	50.0	93.7
=	0.0	-186.1	50.0	93.8
=	0.0	-185.5	50.0	93.9
=	0.0	-184.8	50.0	94.0
=	0.0	-184.2	50.0	94.1
=	0.0	-183.5	50.0	94.2
=	0.0	-182.8	50.0	94.3
=	0.0	-182.1	50.0	94.3
=	0.0	-181.6	50.0	94.4
=	0.0	-181.0	50.0	94.4
=	0.0	-180.2	50.0	94.6
=	0.0	-179.4	50.0	94.7
=	0.0	-178.6	50.0	94.8
=	0.0	-177.9	50.0	94.8
=	0.0	-177.3	50.0	94.9
=	0.0	-176.7	50.0	94.9
=	0.0	-176.2	50.0	95.0
=	0.0	-175.5	50.0	95.1
=	0.0	-174.9	50.0	95.1
=	0.0	-174.2	50.0	95.1
=	0.0	-173.4	50.0	95.2
=	0.0	-172.7	50.0	95.3
=	0.0	-172.1	50.0	95.3
=	0.0	-171.5	50.0	95.4
=	0.0	-170.9	50.0	95.4
=	0.0	-170.4	50.0	95.5
=	0.0	-169.8	50.0	95.5
=	0.0	-169.2	50.0	95.5
=	0.0	-168.7	50.0	95.6
=	0.0	-167.9	50.0	95.6
=	0.0	-167.3	50.0	95.7
=	0.0	-166.8	50.0	95.7
=	0.0	-166.3	50.0	95.7
=	0.0	-165.7	50.0	95.7
=	0.0	-165.0	50.0	95.8
=	0.0	-164.3	50.0	95.8
=	0.0	-163.6	50.0	95.9
=	0.0	-162.9	50.0	95.9
=	0.0	-162.2	50.0	96.0
=	0.0	-161.5	50.0	96.0
=	0.0	-161.0	50.0	96.0
=	0.0	-160.5	50.0	96.1
=	0.0	-160.0	50.0	96.1
=	0.0	-159.5	50.0	96.1
=	0.0	-158.9	50.0	96.2
=	0.0	-158.1	50.0	96.2
=	0.0	-157.5	50.0	96.2
=	0.0	-156.8	50.0	96.3
=	0.0	-156.2	50.0	96.3
=	0.0	-155.7	50.0	96.4
=	0.0	-155.2	50.0	96.4
=	0.0	-154.5	50.0	96.5
=	0.0	-153.9	50.0	96.5
=	0.0	-153.3	50.0	96.6
=	0.0	-152.6	50.0	96.6
=	0.0	-152.0	50.0	96.7
=	0.0	-151.5	50.0	96.7
=	0.0	-150.9	50.0	96.7
=	0.0	-150.3	50.0	96.8
=	0.0	-149.7	50.0	96.8
=	0.0	-149.0	50.0	96.8
=	0.0	-148.3	50.0	96.9
=	0.0	-147.6	50.0	96.9
=	0.0	-146.8	50.0	97.0
=	0.0	-146.1	50.0	97.0
=	0.0	-145.6	50.0	97.0
=	0.0	-144.9	50.0	97.1
=	0.0	-144.1	50.0	97.2
=	0.0	-143.4	50.0	97.2
=	0.0	-142.7	50.0	97.2
=	0.0	-141.9	50.0	97.3
=	0.0	-141.1	50.0	97.4
=	0.0	-140.5	50.0	97.4
=	0.0	-139.7	50.0	97.4
=	0.0	-138.9	50.0	97.5
=	0.0	-138.3	50.0	97.5
=	0.0	-137.7	50.0	97.5
=	0.0	-137.0	50.0	97.6
=	0.0	-136.4	50.0	97.6
=	0.0	-135.8	50.0	97.7
=	0.0	-135.2	50.0	97.7
=	0.0	-134.4	50.0	97.8
=	0.0	-133.6	50.0	97.8
=	0.0	-133.0	50.0	97.8
=	0.0	-132.4	50.0	97.9
=	0.0	-131.6	50.0	97.9
=	0.0	-131.0	50.0	97.9
=	0.0	-130.5	50.0	98.0
=	0.0	-129.9	50.0	98.0
=	0.0	-129.2	50.0	98.1
=	0.0	-128.6	50.0	98.2
=	0.0	-128.0	50.0	98.2
=	0.0	-127.4	50.0	98.3
=	0.0	-126.7	50.0	98.3
=	0.0	-125.9	50.0	98.3
=	0.0	-125.3	50.0	98.4
=	0.0	-124.7	50.0	98.4
=	0.0	-124.1	50.0	98.4
=	0.0	-123.3	50.0	98.4
=	0.0	-122.7	50.0	98.5
=	0.0	-122.1	50.0	98.5
=	0.0	-121.5	50.0	98.5
=	0.0	-120.8	50.0	98.6
=	0.0	-120.2	50.0	98.6
=	0.0	-119.4	50.0	98.7
=	0.0	-118.9	50.0	98.7
=	0.0	-118.3	50.0	98.8
=	0.0	-117.6	50.0	98.8
=	0.0	-117.0	50.0	98.8
=	0.0	-116.4	50.0	98.9
=	0.0	-115.7	50.0	98.9
=	0.0	-115.0	50.0	98.9
=	0.0	-114.4	50.0	99.0
=	0.0	-113.8	50.0	99.0
=	0.0	-113.1	50.0	99.0
=	0.0	-112.4	50.0	99.1
=	0.0	-111.7	50.0	99.1
=	0.0	-111.1	50.0	99.1
=	0.0	-110.4	50.0	99.2
=	0.0	-109.8	50.0	99.2
=	0.0	-109.2	50.0	99.2
=	0.0	-108.6	50.0	99.3
=	0.0	-108.1	50.0	99.3
=	0.0	-107.5	50.0	99.4
=	0.0	-106.8	50.0	99.4
=	0.0	-106.2	50.0	99.4
=	0.0	-105.6	50.0	99.5
=	0.0	-105.0	50.0	99.5
=	0.0	-104.2	50.0	99.5
=	0.0	-103.6	50.0	99.5
=	0.0	-103.0	50.0	99.5
=	0.0	-102.2	50.0	99.5
=	0.0	-101.6	50.0	99.6
=	0.0	-101.1	50.0	99.6
=	0.0	-100.6	50.0	99.6
=	0.0	-99.9	50.0	99.7
=	0.0	-99.4	50.0	99.7
=	0.0	-98.8	50.0	99.7
=	0.0	-98.1	50.0	99.7
=	0.0	-97.5	50.0	99.8
=	0.0	-97.0	50.0	99.8
=	0.0	-96.4	50.0	99.8
=	0.0	-95.8	50.0	99.9
=	0.0	-95.1	50.0	99.9
=	0.0	-94.5	50.0	99.9
=	0.0	-93.8	50.0	99.9
=	0.0	-93.3	50.0	100.0
=	0.0	-92.5	50.0	100.0
=	0.0	-91.9	50.0	100.0
=	0.0	-91.2	50.0	100.0
=	0.0	-90.5	50.0	100.1
=	0.0	-89.8	50.0	100.1
=	0.0	-89.1	50.0	100.1
=	0.0	-88.5	50.0	100.2
=	0.0	-87.9	50.0	100.2
=	0.0	-87.3	50.0	100.2
=	0.0	-86.6	50.0	100.2
=	0.0	-85.8	50.0	100.3
=	0.0	-85.2	50.0	100.3
=	0.0	-84.6	50.0	100.3
=	0.0	-84.0	50.0	100.3
=	0.0	-83.3	50.0	100.3
=	0.0	-82.5	50.0	100.3
=	0.0	-81.9	50.0	100.4
=	0.0	-81.3	50.0	100.4
=	0.0	-80.8	50.0	100.5
=	0.0	-80.3	50.0	100.5
=	0.0	-79.7	50.0	100.5
=	0.0	-79.2	50.0	100.5
=	0.0	-78.5	50.0	100.5
=	0.0	-77.8	50.0	100.5
=	0.0	-77.3	50.0	100.5
=	0.0	-76.8	50.0	100.6
=	0.0	-76.2	50.0	100.6
=	0.0	-75.7	50.0	100.6
=	0.0	-75.0	50.0	100.6
=	0.0	-74.4	50.0	100.6
=	0.0	-73.7	50.0	100.6
=	0.0	-73.1	50.0	100.6
=	0.0	-72.6	50.0	100.6
=	0.0	-71.8	50.0	100.7
=	0.0	-71.2	50.0	100.7
=	0.0	-70.7	50.0	100.7
=	0.0	-70.0	50.0	100.7
=	0.0	-69.2	50.0	100.7
=	0.0	-68.4	50.0	100.8
=	0.0	-67.5	50.0	100.8
=	0.0	-66.9	50.0	100.8
=	0.0	-66.3	50.0	100.8
=	0.0	-65.7	50.0	100.9
=	0.0	-65.2	50.0	100.9
=	0.0	-64.5	50.0	100.9
=	0.0	-63.9	50.0	100.9
=	0.0	-63.4	50.0	100.9
=	0.0	-62.7	50.0	100.9
=	0.0	-62.0	50.0	100.9
=	0.0	-61.4	50.0	100.9
=	0.0	-60.7	50.0	100.9
=	0.0	-60.2	50.0	100.9
=	0.0	-59.6	50.0	100.9
=	0.0	-59.0	50.0	101.0
=	0.0	-58.4	50.0	101.0
=	0.0	-57.6	50.0	101.0
=	0.0	-57.0	50.0	101.0
=	0.0	-56.4	50.0	101.0
=	0.0	-55.7	50.0	101.0
=	0.0	-55.0	50.0	101.0
=	0.0	-54.4	50.0	101.0
=	0.0	-53.8	50.0	101.0
=	0.0	-53.2	50.0	101.0
=	0.0	-52.6	50.0	101.0
=	0.0	-52.0	50.0	101.0
=	0.0	-51.4	50.0	101.0
=	0.0	-50.9	50.0	101.0
=	0.0	-50.2	50.0	101.0
=	0.0	-49.6	50.0	101.0
=	0.0	-49.0	50.0	101.0
=	0.0	-48.4	50.0	101.0
=	0.0	-47.9	50.0	101.0
=	0.0	-47.3	50.0	100.9
=	0.0	-46.7	50.0	100.9
=	0.0	-46.0	50.0	100.9
=	0.0	-45.4	50.0	100.9
=	0.0	-44.7	50.0	100.9
=	0.0	-44.1	50.0	100.9
=	0.0	-43.6	50.0	100.9
=	0.0	-42.9	50.0	100.9
=	0.0	-42.2	50.0	100.9
=	0.0	-41.5	50.0	100.9
=	0.0	-40.9	50.0	100.8
=	0.0	-40.3	50.0	100.8
=	0.0	-39.7	50.0	100.8
=	0.0	-39.1	50.0	100.8
=	0.0	-38.6	50.0	100.8
=	0.0	-38.2	50.0	100.8
=	0.0	-37.7	50.0	100.8
=	0.0	-37.1	50.0	100.8
=	0.0	-36.4	50.0	100.8
=	0.0	-35.9	50.0	100.8
=	0.0	-35.3	50.0	100.7
=	0.0	-34.7	50.0	100.7
=	0.0	-34.0	50.0	100.7
=	0.0	-33.4	50.0	100.7
=	0.0	-32.8	50.0	100.7
=	0.0	-32.2	50.0	100.7
=	0.0	-31.6	50.0	100.7
=	0.0	-30.9	50.0	100.7
=	0.0	-30.3	50.0	100.7
=	0.0	-29.8	50.0	100.7
=	0.0	-29.2	50.0	100.6
=	0.0	-28.7	50.0	100.6
=	0.0	-28.2	50.0	100.6
=	0.0	-27.6	50.0	100.6
=	0.0	-27.1	50.0	100.6
=	0.0	-26.6	50.0	100.6
=	0.0	-26.1	50.0	100.6
=	0.0	-25.6	50.0	100.6
=	0.0	-25.0	50.0	100.6
=	0.0	-24.3	50.0	100.6
=	0.0	-23.7	50.0	100.5
=	0.0	-23.0	50.0	100.5
=	0.0	-22.5	50.0	100.4
=	0.0	-21.8	50.0	100.4
=	0.0	-21.2	50.0	100.4
=	0.0	-20.7	50.0	100.4
=	0.0	-20.0	50.0	100.4
=	0.0	-19.5	50.0	100.3
=	0.0	-18.9	50.0	100.3
=	0.0	-18.3	50.0	100.3
=	0.0	-17.7	50.0	100.3
=	0.0	-17.1	50.0	100.3
=	0.0	-16.6	50.0	100.3
=	0.0	-16.0	50.0	100.2
=	0.0	-15.4	50.0	100.2
=	0.0	-14.6	50.0	100.2
=	0.0	-14.1	50.0	100.2
=	0.0	-13.5	50.0	100.2
=	0.0	-12.9	50.0	100.2
=	0.0	-12.4	50.0	100.1
=	0.0	-11.8	50.0	100.1
=	0.0	-11.3	50.0	100.1
=	0.0	-10.8	50.0	100.1
=	0.0	-10.1	50.0	100.1
=	0.0	-9.5	50.0	100.1
=	0.0	-9.0	50.0	100.1
=	0.0	-8.5	50.0	100.1
=	0.0	-7.8	50.0	100.0
=	0.0	-7.2	50.0	100.0
=	0.0	-6.6	50.0	100.0
=	0.0	-6.1	50.0	100.0
=	0.0	-5.6	50.0	100.0
=	0.0	-5.0	50.0	100.0
=	0.0	-4.3	50.0	100.0
=	0.0	-3.8	50.0	100.0
=	0.0	-3.1	50.0	100.0
=	0.0	-2.5	50.0	99.9
=	0.0	-2.0	50.0	100.0
=	0.0	-1.4	50.0	100.0
=	0.0	-0.7	50.0	100.0
=	0.0	0.0	50.0	100.0
=	0.0	0.7	50.0	100.0
=	0.0	1.4	50.0	100.0
=	0.0	2.0	50.0	100.0
=	0.0	2.5	50.0	99.9
=	0.0	3.1	50.0	100.0
=	0.0	3.8	50.0	100.0
=	0.0	4.3	50.0	100.0
=	0.0	5.0	50.0	100.0
=	0.0	5.6	50.0	100.0
=	0.0	6.1	50.0	100.0
=	0.0	6.6	50.0	100.0
=	0.0	7.2	50.0	100.0
=	0.0	7.8	50.0	100.0
=	0.0	8.5	50.0	100.1
=	0.0	9.0	50.0	100.1
=	0.0	9.5	50.0	100.1
=	0.0	10.1	50.0	100.1
=	0.0	10.8	50.0	100.1
=	0.0	11.3	50.0	100.1
=	0.0	11.8	50.0	100.1
=	0.0	12.4	50.0	100.1
=	0.0	12.9	50.0	100.2
=	0.0	13.5	50.0	100.2
=	0.0	14.1	50.0	100.2
=	0.0	14.6	50.0	100.2
=	0.0	15.4	50.0	100.2
=	0.0	16.0	50.0	100.2
=	0.0	16.6	50.0	100.3
=	0.0	17.1	50.0	100.3
=	0.0	17.7	50.0	100.3
=	0.0	18.3	50.0	100.3
