:MSR 	25	 # No. of measurement in file
:SYS BDS 0   # Beam Data Scanner System
#
# RFA300 ASCII Measurement Dump ( BDS format )
#
# Measurement number 	1
#
%VNR 1.0
%MOD 	RAT
%TYP 	SCN
%SCN 	PRO
%FLD 	ION
%DAT 	09-22-2011
%TIM 	12:00:00
%FSZ 	040	040
%BMT 	PHO	   10.0
%SSD 	1000
%BUP 	0
%BRD 	1000
%FSH 	1
%ASC 	0
%WEG 	30
%GPO 	0
%CPO 	0
%MEA 	6
%PRD 	24,0
%PTS 	998
%STS 	    -70.4	  0.0	   24.0 # Start Scan values in mm ( X , Y , Z )
%EDS 	    70.5	   0.0	   24.0 # End Scan values in mm ( X , Y , Z )
#
#	  X      Y      Z     Dose
#
=	-70.4	0.0	24.0	0.7
=	-70.3	0.0	24.0	0.7
=	-70.1	0.0	24.0	0.7
=	-70.0	0.0	24.0	0.7
=	-69.9	0.0	24.0	0.7
=	-69.7	0.0	24.0	0.6
=	-69.5	0.0	24.0	0.7
=	-69.4	0.0	24.0	0.7
=	-69.2	0.0	24.0	0.7
=	-69.1	0.0	24.0	0.7
=	-69.0	0.0	24.0	0.7
=	-68.8	0.0	24.0	0.7
=	-68.7	0.0	24.0	0.7
=	-68.6	0.0	24.0	0.7
=	-68.4	0.0	24.0	0.7
=	-68.2	0.0	24.0	0.7
=	-68.1	0.0	24.0	0.7
=	-67.9	0.0	24.0	0.7
=	-67.8	0.0	24.0	0.7
=	-67.7	0.0	24.0	0.7
=	-67.6	0.0	24.0	0.7
=	-67.3	0.0	24.0	0.7
=	-67.2	0.0	24.0	0.7
=	-67.1	0.0	24.0	0.7
=	-66.9	0.0	24.0	0.7
=	-66.8	0.0	24.0	0.7
=	-66.7	0.0	24.0	0.7
=	-66.6	0.0	24.0	0.7
=	-66.5	0.0	24.0	0.7
=	-66.3	0.0	24.0	0.7
=	-66.2	0.0	24.0	0.7
=	-66.0	0.0	24.0	0.7
=	-65.8	0.0	24.0	0.7
=	-65.7	0.0	24.0	0.7
=	-65.5	0.0	24.0	0.7
=	-65.4	0.0	24.0	0.7
=	-65.3	0.0	24.0	0.7
=	-65.1	0.0	24.0	0.7
=	-65.0	0.0	24.0	0.7
=	-64.9	0.0	24.0	0.7
=	-64.8	0.0	24.0	0.7
=	-64.7	0.0	24.0	0.7
=	-64.6	0.0	24.0	0.7
=	-64.4	0.0	24.0	0.7
=	-64.3	0.0	24.0	0.7
=	-64.1	0.0	24.0	0.7
=	-63.9	0.0	24.0	0.7
=	-63.8	0.0	24.0	0.7
=	-63.6	0.0	24.0	0.7
=	-63.5	0.0	24.0	0.7
=	-63.3	0.0	24.0	0.7
=	-63.2	0.0	24.0	0.7
=	-63.1	0.0	24.0	0.7
=	-62.9	0.0	24.0	0.7
=	-62.7	0.0	24.0	0.7
=	-62.6	0.0	24.0	0.7
=	-62.5	0.0	24.0	0.7
=	-62.3	0.0	24.0	0.7
=	-62.2	0.0	24.0	0.7
=	-62.0	0.0	24.0	0.8
=	-61.9	0.0	24.0	0.8
=	-61.7	0.0	24.0	0.8
=	-61.4	0.0	24.0	0.8
=	-61.3	0.0	24.0	0.8
=	-61.2	0.0	24.0	0.8
=	-61.0	0.0	24.0	0.8
=	-60.9	0.0	24.0	0.8
=	-60.8	0.0	24.0	0.8
=	-60.6	0.0	24.0	0.8
=	-60.5	0.0	24.0	0.8
=	-60.3	0.0	24.0	0.8
=	-60.2	0.0	24.0	0.8
=	-60.0	0.0	24.0	0.8
=	-59.9	0.0	24.0	0.8
=	-59.8	0.0	24.0	0.8
=	-59.6	0.0	24.0	0.8
=	-59.5	0.0	24.0	0.8
=	-59.3	0.0	24.0	0.8
=	-59.1	0.0	24.0	0.8
=	-59.0	0.0	24.0	0.8
=	-58.9	0.0	24.0	0.8
=	-58.7	0.0	24.0	0.8
=	-58.5	0.0	24.0	0.8
=	-58.4	0.0	24.0	0.8
=	-58.2	0.0	24.0	0.8
=	-58.1	0.0	24.0	0.8
=	-58.0	0.0	24.0	0.8
=	-57.8	0.0	24.0	0.8
=	-57.6	0.0	24.0	0.8
=	-57.4	0.0	24.0	0.8
=	-57.2	0.0	24.0	0.8
=	-57.0	0.0	24.0	0.9
=	-56.9	0.0	24.0	0.9
=	-56.8	0.0	24.0	0.9
=	-56.6	0.0	24.0	0.9
=	-56.5	0.0	24.0	0.9
=	-56.3	0.0	24.0	0.9
=	-56.2	0.0	24.0	0.9
=	-56.1	0.0	24.0	0.9
=	-56.0	0.0	24.0	0.9
=	-55.8	0.0	24.0	0.9
=	-55.7	0.0	24.0	0.9
=	-55.6	0.0	24.0	0.9
=	-55.5	0.0	24.0	0.9
=	-55.3	0.0	24.0	0.9
=	-55.2	0.0	24.0	0.9
=	-55.1	0.0	24.0	0.9
=	-55.0	0.0	24.0	0.9
=	-54.9	0.0	24.0	0.9
=	-54.7	0.0	24.0	0.9
=	-54.6	0.0	24.0	0.9
=	-54.3	0.0	24.0	0.9
=	-54.2	0.0	24.0	0.9
=	-54.0	0.0	24.0	0.9
=	-53.9	0.0	24.0	0.9
=	-53.8	0.0	24.0	0.9
=	-53.7	0.0	24.0	1.0
=	-53.6	0.0	24.0	1.0
=	-53.5	0.0	24.0	1.0
=	-53.3	0.0	24.0	1.0
=	-53.2	0.0	24.0	1.0
=	-53.0	0.0	24.0	1.0
=	-52.9	0.0	24.0	1.0
=	-52.8	0.0	24.0	1.0
=	-52.7	0.0	24.0	1.0
=	-52.6	0.0	24.0	1.0
=	-52.5	0.0	24.0	1.0
=	-52.3	0.0	24.0	1.0
=	-52.2	0.0	24.0	1.0
=	-52.1	0.0	24.0	1.0
=	-51.9	0.0	24.0	1.0
=	-51.8	0.0	24.0	1.0
=	-51.7	0.0	24.0	1.0
=	-51.5	0.0	24.0	1.0
=	-51.4	0.0	24.0	1.0
=	-51.3	0.0	24.0	1.0
=	-51.1	0.0	24.0	1.1
=	-50.9	0.0	24.0	1.1
=	-50.8	0.0	24.0	1.1
=	-50.7	0.0	24.0	1.1
=	-50.5	0.0	24.0	1.1
=	-50.4	0.0	24.0	1.1
=	-50.3	0.0	24.0	1.1
=	-50.2	0.0	24.0	1.1
=	-50.0	0.0	24.0	1.1
=	-49.9	0.0	24.0	1.1
=	-49.7	0.0	24.0	1.1
=	-49.6	0.0	24.0	1.1
=	-49.4	0.0	24.0	1.1
=	-49.3	0.0	24.0	1.1
=	-49.1	0.0	24.0	1.1
=	-48.9	0.0	24.0	1.1
=	-48.7	0.0	24.0	1.1
=	-48.5	0.0	24.0	1.2
=	-48.4	0.0	24.0	1.2
=	-48.2	0.0	24.0	1.2
=	-48.1	0.0	24.0	1.2
=	-47.9	0.0	24.0	1.2
=	-47.8	0.0	24.0	1.2
=	-47.7	0.0	24.0	1.2
=	-47.6	0.0	24.0	1.2
=	-47.5	0.0	24.0	1.2
=	-47.3	0.0	24.0	1.2
=	-47.2	0.0	24.0	1.2
=	-47.1	0.0	24.0	1.2
=	-47.0	0.0	24.0	1.2
=	-46.8	0.0	24.0	1.2
=	-46.7	0.0	24.0	1.2
=	-46.6	0.0	24.0	1.2
=	-46.5	0.0	24.0	1.2
=	-46.3	0.0	24.0	1.3
=	-46.2	0.0	24.0	1.3
=	-46.0	0.0	24.0	1.3
=	-45.9	0.0	24.0	1.3
=	-45.7	0.0	24.0	1.3
=	-45.6	0.0	24.0	1.3
=	-45.5	0.0	24.0	1.3
=	-45.3	0.0	24.0	1.3
=	-45.2	0.0	24.0	1.3
=	-45.0	0.0	24.0	1.3
=	-44.9	0.0	24.0	1.3
=	-44.8	0.0	24.0	1.3
=	-44.7	0.0	24.0	1.3
=	-44.6	0.0	24.0	1.3
=	-44.4	0.0	24.0	1.3
=	-44.3	0.0	24.0	1.4
=	-44.1	0.0	24.0	1.4
=	-43.9	0.0	24.0	1.4
=	-43.8	0.0	24.0	1.4
=	-43.6	0.0	24.0	1.4
=	-43.5	0.0	24.0	1.4
=	-43.4	0.0	24.0	1.4
=	-43.3	0.0	24.0	1.4
=	-43.0	0.0	24.0	1.4
=	-42.8	0.0	24.0	1.4
=	-42.7	0.0	24.0	1.4
=	-42.6	0.0	24.0	1.5
=	-42.4	0.0	24.0	1.5
=	-42.3	0.0	24.0	1.5
=	-42.1	0.0	24.0	1.5
=	-41.9	0.0	24.0	1.5
=	-41.8	0.0	24.0	1.5
=	-41.6	0.0	24.0	1.5
=	-41.4	0.0	24.0	1.5
=	-41.2	0.0	24.0	1.5
=	-41.1	0.0	24.0	1.6
=	-41.0	0.0	24.0	1.6
=	-40.8	0.0	24.0	1.6
=	-40.7	0.0	24.0	1.6
=	-40.5	0.0	24.0	1.6
=	-40.4	0.0	24.0	1.6
=	-40.2	0.0	24.0	1.6
=	-40.1	0.0	24.0	1.6
=	-39.9	0.0	24.0	1.7
=	-39.8	0.0	24.0	1.7
=	-39.7	0.0	24.0	1.7
=	-39.6	0.0	24.0	1.7
=	-39.4	0.0	24.0	1.7
=	-39.3	0.0	24.0	1.7
=	-39.1	0.0	24.0	1.7
=	-39.0	0.0	24.0	1.7
=	-38.9	0.0	24.0	1.8
=	-38.7	0.0	24.0	1.8
=	-38.6	0.0	24.0	1.8
=	-38.5	0.0	24.0	1.8
=	-38.4	0.0	24.0	1.8
=	-38.3	0.0	24.0	1.8
=	-38.1	0.0	24.0	1.8
=	-38.0	0.0	24.0	1.9
=	-37.9	0.0	24.0	1.9
=	-37.7	0.0	24.0	1.9
=	-37.6	0.0	24.0	1.9
=	-37.4	0.0	24.0	1.9
=	-37.3	0.0	24.0	2.0
=	-37.2	0.0	24.0	2.0
=	-37.0	0.0	24.0	2.0
=	-36.9	0.0	24.0	2.0
=	-36.8	0.0	24.0	2.0
=	-36.6	0.0	24.0	2.0
=	-36.5	0.0	24.0	2.0
=	-36.4	0.0	24.0	2.0
=	-36.3	0.0	24.0	2.1
=	-36.2	0.0	24.0	2.1
=	-36.0	0.0	24.0	2.1
=	-35.9	0.0	24.0	2.1
=	-35.8	0.0	24.0	2.1
=	-35.7	0.0	24.0	2.1
=	-35.5	0.0	24.0	2.1
=	-35.3	0.0	24.0	2.2
=	-35.1	0.0	24.0	2.2
=	-35.0	0.0	24.0	2.3
=	-34.9	0.0	24.0	2.3
=	-34.8	0.0	24.0	2.3
=	-34.6	0.0	24.0	2.3
=	-34.5	0.0	24.0	2.3
=	-34.4	0.0	24.0	2.4
=	-34.2	0.0	24.0	2.4
=	-34.1	0.0	24.0	2.4
=	-34.0	0.0	24.0	2.5
=	-33.8	0.0	24.0	2.5
=	-33.7	0.0	24.0	2.5
=	-33.5	0.0	24.0	2.6
=	-33.4	0.0	24.0	2.6
=	-33.3	0.0	24.0	2.6
=	-33.1	0.0	24.0	2.7
=	-32.9	0.0	24.0	2.7
=	-32.8	0.0	24.0	2.7
=	-32.7	0.0	24.0	2.8
=	-32.5	0.0	24.0	2.9
=	-32.3	0.0	24.0	2.9
=	-32.2	0.0	24.0	3.0
=	-32.0	0.0	24.0	3.1
=	-31.9	0.0	24.0	3.1
=	-31.8	0.0	24.0	3.1
=	-31.6	0.0	24.0	3.2
=	-31.4	0.0	24.0	3.2
=	-31.3	0.0	24.0	3.3
=	-31.1	0.0	24.0	3.3
=	-30.9	0.0	24.0	3.4
=	-30.8	0.0	24.0	3.4
=	-30.7	0.0	24.0	3.5
=	-30.6	0.0	24.0	3.5
=	-30.4	0.0	24.0	3.6
=	-30.3	0.0	24.0	3.6
=	-30.1	0.0	24.0	3.8
=	-29.9	0.0	24.0	3.9
=	-29.8	0.0	24.0	4.0
=	-29.7	0.0	24.0	4.1
=	-29.6	0.0	24.0	4.1
=	-29.5	0.0	24.0	4.2
=	-29.3	0.0	24.0	4.4
=	-29.2	0.0	24.0	4.5
=	-29.1	0.0	24.0	4.5
=	-28.9	0.0	24.0	4.7
=	-28.7	0.0	24.0	4.8
=	-28.6	0.0	24.0	5.0
=	-28.4	0.0	24.0	5.2
=	-28.2	0.0	24.0	5.4
=	-28.0	0.0	24.0	5.6
=	-27.8	0.0	24.0	5.8
=	-27.7	0.0	24.0	5.8
=	-27.6	0.0	24.0	6.0
=	-27.5	0.0	24.0	6.2
=	-27.3	0.0	24.0	6.4
=	-27.2	0.0	24.0	6.6
=	-27.1	0.0	24.0	6.8
=	-27.0	0.0	24.0	7.0
=	-26.8	0.0	24.0	7.2
=	-26.7	0.0	24.0	7.4
=	-26.5	0.0	24.0	7.6
=	-26.4	0.0	24.0	7.9
=	-26.3	0.0	24.0	8.2
=	-26.1	0.0	24.0	8.5
=	-26.0	0.0	24.0	8.8
=	-25.8	0.0	24.0	9.2
=	-25.7	0.0	24.0	9.5
=	-25.5	0.0	24.0	10.0
=	-25.3	0.0	24.0	10.5
=	-25.2	0.0	24.0	10.8
=	-25.1	0.0	24.0	11.1
=	-24.9	0.0	24.0	11.7
=	-24.8	0.0	24.0	12.2
=	-24.6	0.0	24.0	12.9
=	-24.4	0.0	24.0	13.6
=	-24.3	0.0	24.0	14.2
=	-24.2	0.0	24.0	14.7
=	-24.1	0.0	24.0	15.3
=	-23.9	0.0	24.0	16.0
=	-23.8	0.0	24.0	16.8
=	-23.6	0.0	24.0	17.6
=	-23.5	0.0	24.0	18.4
=	-23.4	0.0	24.0	19.5
=	-23.2	0.0	24.0	20.4
=	-23.1	0.0	24.0	21.5
=	-22.9	0.0	24.0	23.4
=	-22.7	0.0	24.0	25.0
=	-22.5	0.0	24.0	26.2
=	-22.4	0.0	24.0	27.3
=	-22.3	0.0	24.0	28.8
=	-22.1	0.0	24.0	29.9
=	-22.0	0.0	24.0	31.7
=	-21.8	0.0	24.0	33.2
=	-21.7	0.0	24.0	34.3
=	-21.6	0.0	24.0	35.8
=	-21.5	0.0	24.0	37.0
=	-21.3	0.0	24.0	38.6
=	-21.2	0.0	24.0	39.7
=	-21.1	0.0	24.0	41.6
=	-20.9	0.0	24.0	43.0
=	-20.8	0.0	24.0	44.5
=	-20.6	0.0	24.0	46.7
=	-20.4	0.0	24.0	48.9
=	-20.3	0.0	24.0	50.4
=	-20.2	0.0	24.0	52.2
=	-20.1	0.0	24.0	53.5
=	-20.0	0.0	24.0	54.6
=	-19.8	0.0	24.0	56.3
=	-19.7	0.0	24.0	57.9
=	-19.5	0.0	24.0	60.1
=	-19.3	0.0	24.0	62.2
=	-19.2	0.0	24.0	63.5
=	-19.1	0.0	24.0	64.8
=	-19.0	0.0	24.0	66.1
=	-18.8	0.0	24.0	68.0
=	-18.7	0.0	24.0	69.5
=	-18.6	0.0	24.0	70.9
=	-18.4	0.0	24.0	72.4
=	-18.3	0.0	24.0	73.7
=	-18.2	0.0	24.0	74.9
=	-18.1	0.0	24.0	76.0
=	-17.9	0.0	24.0	77.4
=	-17.8	0.0	24.0	78.6
=	-17.7	0.0	24.0	80.1
=	-17.6	0.0	24.0	80.9
=	-17.4	0.0	24.0	82.2
=	-17.2	0.0	24.0	83.8
=	-17.1	0.0	24.0	85.0
=	-16.9	0.0	24.0	86.2
=	-16.7	0.0	24.0	87.6
=	-16.5	0.0	24.0	88.7
=	-16.4	0.0	24.0	89.7
=	-16.2	0.0	24.0	90.5
=	-16.1	0.0	24.0	91.1
=	-16.0	0.0	24.0	91.5
=	-15.9	0.0	24.0	92.1
=	-15.7	0.0	24.0	92.9
=	-15.6	0.0	24.0	93.3
=	-15.5	0.0	24.0	93.7
=	-15.3	0.0	24.0	94.4
=	-15.2	0.0	24.0	94.9
=	-15.0	0.0	24.0	95.3
=	-14.9	0.0	24.0	95.7
=	-14.8	0.0	24.0	96.1
=	-14.6	0.0	24.0	96.5
=	-14.5	0.0	24.0	96.7
=	-14.4	0.0	24.0	97.0
=	-14.3	0.0	24.0	97.2
=	-14.2	0.0	24.0	97.3
=	-14.1	0.0	24.0	97.5
=	-13.9	0.0	24.0	97.7
=	-13.7	0.0	24.0	98.1
=	-13.5	0.0	24.0	98.6
=	-13.3	0.0	24.0	98.8
=	-13.2	0.0	24.0	99.0
=	-13.1	0.0	24.0	99.2
=	-12.9	0.0	24.0	99.4
=	-12.8	0.0	24.0	99.5
=	-12.7	0.0	24.0	99.6
=	-12.5	0.0	24.0	99.8
=	-12.4	0.0	24.0	99.9
=	-12.2	0.0	24.0	100.0
=	-12.0	0.0	24.0	100.1
=	-11.8	0.0	24.0	100.2
=	-11.7	0.0	24.0	100.4
=	-11.5	0.0	24.0	100.4
=	-11.4	0.0	24.0	100.5
=	-11.3	0.0	24.0	100.6
=	-11.1	0.0	24.0	100.6
=	-11.0	0.0	24.0	100.7
=	-10.9	0.0	24.0	100.7
=	-10.7	0.0	24.0	100.8
=	-10.5	0.0	24.0	100.8
=	-10.3	0.0	24.0	100.9
=	-10.2	0.0	24.0	100.9
=	-10.0	0.0	24.0	100.9
=	-9.9	0.0	24.0	101.0
=	-9.8	0.0	24.0	101.0
=	-9.7	0.0	24.0	101.0
=	-9.5	0.0	24.0	101.1
=	-9.4	0.0	24.0	101.1
=	-9.2	0.0	24.0	101.1
=	-9.1	0.0	24.0	101.1
=	-9.0	0.0	24.0	101.1
=	-8.8	0.0	24.0	101.1
=	-8.6	0.0	24.0	101.2
=	-8.5	0.0	24.0	101.2
=	-8.4	0.0	24.0	101.2
=	-8.3	0.0	24.0	101.2
=	-8.1	0.0	24.0	101.2
=	-8.0	0.0	24.0	101.2
=	-7.8	0.0	24.0	101.2
=	-7.6	0.0	24.0	101.3
=	-7.5	0.0	24.0	101.3
=	-7.4	0.0	24.0	101.2
=	-7.2	0.0	24.0	101.2
=	-7.1	0.0	24.0	101.2
=	-7.0	0.0	24.0	101.2
=	-6.8	0.0	24.0	101.2
=	-6.6	0.0	24.0	101.2
=	-6.5	0.0	24.0	101.2
=	-6.4	0.0	24.0	101.2
=	-6.2	0.0	24.0	101.1
=	-6.1	0.0	24.0	101.1
=	-6.0	0.0	24.0	101.1
=	-5.9	0.0	24.0	101.1
=	-5.7	0.0	24.0	101.1
=	-5.5	0.0	24.0	101.1
=	-5.4	0.0	24.0	101.1
=	-5.2	0.0	24.0	101.1
=	-5.1	0.0	24.0	101.0
=	-5.0	0.0	24.0	101.0
=	-4.8	0.0	24.0	101.0
=	-4.7	0.0	24.0	101.0
=	-4.6	0.0	24.0	101.0
=	-4.4	0.0	24.0	101.0
=	-4.3	0.0	24.0	101.0
=	-4.0	0.0	24.0	100.9
=	-3.9	0.0	24.0	100.9
=	-3.8	0.0	24.0	100.9
=	-3.6	0.0	24.0	100.9
=	-3.5	0.0	24.0	100.8
=	-3.4	0.0	24.0	100.8
=	-3.3	0.0	24.0	100.8
=	-3.1	0.0	24.0	100.7
=	-3.0	0.0	24.0	100.7
=	-2.9	0.0	24.0	100.7
=	-2.7	0.0	24.0	100.6
=	-2.5	0.0	24.0	100.5
=	-2.4	0.0	24.0	100.5
=	-2.3	0.0	24.0	100.4
=	-2.2	0.0	24.0	100.4
=	-2.1	0.0	24.0	100.4
=	-2.0	0.0	24.0	100.4
=	-1.8	0.0	24.0	100.4
=	-1.7	0.0	24.0	100.3
=	-1.6	0.0	24.0	100.3
=	-1.3	0.0	24.0	100.3
=	-1.1	0.0	24.0	100.3
=	-1.0	0.0	24.0	100.3
=	-0.9	0.0	24.0	100.2
=	-0.7	0.0	24.0	100.2
=	-0.5	0.0	24.0	100.1
=	-0.4	0.0	24.0	100.1
=	-0.3	0.0	24.0	100.1
=	-0.1	0.0	24.0	100.0
=	0.0	0.0	24.0	100.0
=	0.1	0.0	24.0	100.0
=	0.3	0.0	24.0	99.9
=	0.5	0.0	24.0	99.9
=	0.6	0.0	24.0	99.9
=	0.7	0.0	24.0	99.9
=	0.9	0.0	24.0	99.8
=	1.0	0.0	24.0	99.8
=	1.1	0.0	24.0	99.8
=	1.2	0.0	24.0	99.7
=	1.3	0.0	24.0	99.7
=	1.5	0.0	24.0	99.7
=	1.6	0.0	24.0	99.7
=	1.8	0.0	24.0	99.6
=	1.9	0.0	24.0	99.6
=	2.0	0.0	24.0	99.6
=	2.1	0.0	24.0	99.5
=	2.2	0.0	24.0	99.5
=	2.3	0.0	24.0	99.5
=	2.4	0.0	24.0	99.4
=	2.5	0.0	24.0	99.4
=	2.6	0.0	24.0	99.4
=	2.7	0.0	24.0	99.3
=	3.0	0.0	24.0	99.3
=	3.1	0.0	24.0	99.2
=	3.2	0.0	24.0	99.2
=	3.3	0.0	24.0	99.2
=	3.4	0.0	24.0	99.1
=	3.6	0.0	24.0	99.1
=	3.7	0.0	24.0	99.0
=	3.8	0.0	24.0	99.0
=	3.9	0.0	24.0	99.0
=	4.1	0.0	24.0	98.9
=	4.2	0.0	24.0	98.8
=	4.3	0.0	24.0	98.8
=	4.4	0.0	24.0	98.8
=	4.6	0.0	24.0	98.7
=	4.7	0.0	24.0	98.7
=	4.9	0.0	24.0	98.6
=	5.1	0.0	24.0	98.6
=	5.3	0.0	24.0	98.6
=	5.5	0.0	24.0	98.5
=	5.6	0.0	24.0	98.5
=	5.7	0.0	24.0	98.4
=	5.9	0.0	24.0	98.4
=	6.0	0.0	24.0	98.4
=	6.1	0.0	24.0	98.3
=	6.3	0.0	24.0	98.2
=	6.4	0.0	24.0	98.2
=	6.5	0.0	24.0	98.2
=	6.6	0.0	24.0	98.2
=	6.7	0.0	24.0	98.1
=	6.9	0.0	24.0	98.1
=	7.0	0.0	24.0	98.1
=	7.2	0.0	24.0	98.0
=	7.3	0.0	24.0	97.9
=	7.4	0.0	24.0	97.9
=	7.5	0.0	24.0	97.8
=	7.6	0.0	24.0	97.7
=	7.7	0.0	24.0	97.7
=	7.9	0.0	24.0	97.6
=	8.0	0.0	24.0	97.5
=	8.2	0.0	24.0	97.4
=	8.3	0.0	24.0	97.3
=	8.5	0.0	24.0	97.3
=	8.7	0.0	24.0	97.2
=	8.9	0.0	24.0	97.2
=	9.1	0.0	24.0	97.1
=	9.3	0.0	24.0	97.1
=	9.4	0.0	24.0	97.0
=	9.5	0.0	24.0	96.9
=	9.7	0.0	24.0	96.8
=	9.8	0.0	24.0	96.7
=	10.0	0.0	24.0	96.6
=	10.1	0.0	24.0	96.6
=	10.2	0.0	24.0	96.6
=	10.3	0.0	24.0	96.5
=	10.4	0.0	24.0	96.4
=	10.5	0.0	24.0	96.2
=	10.6	0.0	24.0	96.2
=	10.7	0.0	24.0	96.1
=	10.9	0.0	24.0	95.9
=	11.0	0.0	24.0	95.7
=	11.2	0.0	24.0	95.6
=	11.3	0.0	24.0	95.5
=	11.4	0.0	24.0	95.5
=	11.5	0.0	24.0	95.3
=	11.7	0.0	24.0	95.3
=	11.8	0.0	24.0	95.2
=	12.0	0.0	24.0	95.1
=	12.2	0.0	24.0	95.0
=	12.3	0.0	24.0	95.0
=	12.4	0.0	24.0	94.8
=	12.6	0.0	24.0	94.6
=	12.7	0.0	24.0	94.4
=	12.8	0.0	24.0	94.3
=	12.9	0.0	24.0	94.1
=	13.1	0.0	24.0	93.9
=	13.2	0.0	24.0	93.8
=	13.3	0.0	24.0	93.7
=	13.4	0.0	24.0	93.5
=	13.6	0.0	24.0	93.1
=	13.7	0.0	24.0	92.9
=	13.8	0.0	24.0	92.7
=	14.0	0.0	24.0	92.4
=	14.1	0.0	24.0	92.1
=	14.2	0.0	24.0	91.9
=	14.3	0.0	24.0	91.6
=	14.4	0.0	24.0	91.4
=	14.5	0.0	24.0	91.2
=	14.6	0.0	24.0	91.1
=	14.7	0.0	24.0	90.8
=	14.9	0.0	24.0	90.3
=	15.0	0.0	24.0	89.9
=	15.2	0.0	24.0	89.6
=	15.4	0.0	24.0	88.9
=	15.6	0.0	24.0	88.3
=	15.8	0.0	24.0	87.5
=	15.9	0.0	24.0	87.1
=	16.0	0.0	24.0	86.6
=	16.1	0.0	24.0	86.3
=	16.3	0.0	24.0	85.4
=	16.4	0.0	24.0	84.8
=	16.5	0.0	24.0	84.3
=	16.7	0.0	24.0	83.5
=	16.8	0.0	24.0	82.4
=	17.0	0.0	24.0	81.7
=	17.1	0.0	24.0	80.9
=	17.2	0.0	24.0	79.9
=	17.4	0.0	24.0	78.9
=	17.5	0.0	24.0	78.1
=	17.6	0.0	24.0	76.9
=	17.7	0.0	24.0	76.0
=	17.9	0.0	24.0	74.9
=	18.0	0.0	24.0	74.0
=	18.1	0.0	24.0	73.2
=	18.3	0.0	24.0	71.8
=	18.4	0.0	24.0	70.3
=	18.6	0.0	24.0	68.9
=	18.7	0.0	24.0	67.4
=	18.8	0.0	24.0	66.1
=	19.0	0.0	24.0	64.5
=	19.1	0.0	24.0	63.4
=	19.2	0.0	24.0	62.2
=	19.3	0.0	24.0	61.1
=	19.4	0.0	24.0	59.7
=	19.6	0.0	24.0	58.5
=	19.7	0.0	24.0	56.9
=	19.8	0.0	24.0	55.4
=	19.9	0.0	24.0	54.3
=	20.1	0.0	24.0	52.7
=	20.2	0.0	24.0	51.1
=	20.3	0.0	24.0	49.7
=	20.5	0.0	24.0	47.8
=	20.6	0.0	24.0	46.6
=	20.7	0.0	24.0	45.3
=	20.9	0.0	24.0	44.1
=	21.0	0.0	24.0	41.9
=	21.2	0.0	24.0	40.7
=	21.3	0.0	24.0	39.5
=	21.4	0.0	24.0	38.1
=	21.5	0.0	24.0	36.6
=	21.7	0.0	24.0	35.2
=	21.8	0.0	24.0	34.1
=	21.9	0.0	24.0	32.8
=	22.0	0.0	24.0	31.5
=	22.2	0.0	24.0	30.3
=	22.3	0.0	24.0	29.1
=	22.4	0.0	24.0	27.6
=	22.6	0.0	24.0	26.6
=	22.7	0.0	24.0	25.5
=	22.8	0.0	24.0	24.7
=	22.9	0.0	24.0	23.9
=	23.0	0.0	24.0	23.0
=	23.1	0.0	24.0	22.1
=	23.3	0.0	24.0	21.0
=	23.4	0.0	24.0	20.0
=	23.6	0.0	24.0	18.6
=	23.8	0.0	24.0	17.4
=	23.9	0.0	24.0	16.3
=	24.1	0.0	24.0	15.4
=	24.3	0.0	24.0	14.6
=	24.4	0.0	24.0	14.0
=	24.6	0.0	24.0	13.3
=	24.7	0.0	24.0	12.8
=	24.8	0.0	24.0	12.3
=	24.9	0.0	24.0	11.9
=	25.0	0.0	24.0	11.5
=	25.2	0.0	24.0	11.1
=	25.3	0.0	24.0	10.7
=	25.5	0.0	24.0	10.1
=	25.6	0.0	24.0	9.8
=	25.7	0.0	24.0	9.4
=	25.8	0.0	24.0	9.2
=	26.0	0.0	24.0	8.9
=	26.1	0.0	24.0	8.6
=	26.3	0.0	24.0	8.3
=	26.4	0.0	24.0	8.1
=	26.6	0.0	24.0	7.7
=	26.7	0.0	24.0	7.5
=	26.8	0.0	24.0	7.4
=	26.9	0.0	24.0	7.1
=	27.0	0.0	24.0	6.8
=	27.2	0.0	24.0	6.5
=	27.3	0.0	24.0	6.4
=	27.5	0.0	24.0	6.2
=	27.6	0.0	24.0	6.0
=	27.8	0.0	24.0	5.8
=	27.9	0.0	24.0	5.6
=	28.1	0.0	24.0	5.5
=	28.2	0.0	24.0	5.3
=	28.4	0.0	24.0	5.2
=	28.5	0.0	24.0	5.0
=	28.7	0.0	24.0	4.9
=	28.8	0.0	24.0	4.7
=	29.0	0.0	24.0	4.6
=	29.1	0.0	24.0	4.4
=	29.3	0.0	24.0	4.3
=	29.5	0.0	24.0	4.2
=	29.7	0.0	24.0	4.0
=	29.8	0.0	24.0	3.9
=	30.0	0.0	24.0	3.8
=	30.1	0.0	24.0	3.7
=	30.2	0.0	24.0	3.7
=	30.3	0.0	24.0	3.7
=	30.4	0.0	24.0	3.6
=	30.5	0.0	24.0	3.6
=	30.7	0.0	24.0	3.5
=	30.9	0.0	24.0	3.3
=	31.0	0.0	24.0	3.3
=	31.2	0.0	24.0	3.2
=	31.4	0.0	24.0	3.1
=	31.6	0.0	24.0	3.0
=	31.8	0.0	24.0	3.0
=	31.9	0.0	24.0	2.9
=	32.1	0.0	24.0	2.8
=	32.2	0.0	24.0	2.8
=	32.4	0.0	24.0	2.7
=	32.6	0.0	24.0	2.7
=	32.7	0.0	24.0	2.6
=	32.9	0.0	24.0	2.6
=	33.0	0.0	24.0	2.5
=	33.1	0.0	24.0	2.5
=	33.2	0.0	24.0	2.5
=	33.3	0.0	24.0	2.5
=	33.4	0.0	24.0	2.4
=	33.6	0.0	24.0	2.4
=	33.7	0.0	24.0	2.4
=	33.8	0.0	24.0	2.3
=	34.0	0.0	24.0	2.3
=	34.1	0.0	24.0	2.3
=	34.2	0.0	24.0	2.2
=	34.3	0.0	24.0	2.2
=	34.5	0.0	24.0	2.2
=	34.6	0.0	24.0	2.2
=	34.8	0.0	24.0	2.1
=	34.9	0.0	24.0	2.1
=	35.0	0.0	24.0	2.1
=	35.2	0.0	24.0	2.0
=	35.3	0.0	24.0	2.0
=	35.5	0.0	24.0	2.0
=	35.6	0.0	24.0	2.0
=	35.8	0.0	24.0	1.9
=	35.9	0.0	24.0	1.9
=	36.0	0.0	24.0	1.9
=	36.2	0.0	24.0	1.9
=	36.4	0.0	24.0	1.9
=	36.5	0.0	24.0	1.9
=	36.6	0.0	24.0	1.9
=	36.7	0.0	24.0	1.9
=	36.8	0.0	24.0	1.8
=	37.0	0.0	24.0	1.8
=	37.1	0.0	24.0	1.8
=	37.3	0.0	24.0	1.8
=	37.5	0.0	24.0	1.8
=	37.6	0.0	24.0	1.8
=	37.7	0.0	24.0	1.7
=	37.8	0.0	24.0	1.7
=	38.0	0.0	24.0	1.7
=	38.1	0.0	24.0	1.7
=	38.2	0.0	24.0	1.7
=	38.4	0.0	24.0	1.7
=	38.5	0.0	24.0	1.7
=	38.6	0.0	24.0	1.6
=	38.7	0.0	24.0	1.6
=	38.9	0.0	24.0	1.6
=	39.0	0.0	24.0	1.6
=	39.2	0.0	24.0	1.6
=	39.3	0.0	24.0	1.6
=	39.4	0.0	24.0	1.6
=	39.6	0.0	24.0	1.5
=	39.7	0.0	24.0	1.5
=	39.8	0.0	24.0	1.5
=	40.0	0.0	24.0	1.5
=	40.1	0.0	24.0	1.5
=	40.3	0.0	24.0	1.5
=	40.5	0.0	24.0	1.4
=	40.7	0.0	24.0	1.4
=	40.9	0.0	24.0	1.4
=	41.0	0.0	24.0	1.4
=	41.1	0.0	24.0	1.4
=	41.3	0.0	24.0	1.4
=	41.5	0.0	24.0	1.4
=	41.6	0.0	24.0	1.4
=	41.7	0.0	24.0	1.3
=	41.9	0.0	24.0	1.3
=	42.0	0.0	24.0	1.3
=	42.2	0.0	24.0	1.3
=	42.3	0.0	24.0	1.3
=	42.5	0.0	24.0	1.3
=	42.7	0.0	24.0	1.3
=	42.8	0.0	24.0	1.3
=	42.9	0.0	24.0	1.3
=	43.1	0.0	24.0	1.3
=	43.2	0.0	24.0	1.3
=	43.5	0.0	24.0	1.2
=	43.7	0.0	24.0	1.2
=	43.9	0.0	24.0	1.2
=	44.0	0.0	24.0	1.2
=	44.2	0.0	24.0	1.2
=	44.3	0.0	24.0	1.2
=	44.5	0.0	24.0	1.2
=	44.6	0.0	24.0	1.2
=	44.8	0.0	24.0	1.2
=	44.9	0.0	24.0	1.2
=	45.1	0.0	24.0	1.2
=	45.2	0.0	24.0	1.1
=	45.3	0.0	24.0	1.1
=	45.5	0.0	24.0	1.1
=	45.6	0.0	24.0	1.1
=	45.7	0.0	24.0	1.1
=	45.9	0.0	24.0	1.1
=	46.0	0.0	24.0	1.1
=	46.2	0.0	24.0	1.1
=	46.4	0.0	24.0	1.1
=	46.5	0.0	24.0	1.1
=	46.6	0.0	24.0	1.1
=	46.8	0.0	24.0	1.1
=	47.0	0.0	24.0	1.0
=	47.2	0.0	24.0	1.0
=	47.4	0.0	24.0	1.0
=	47.5	0.0	24.0	1.0
=	47.7	0.0	24.0	1.0
=	47.9	0.0	24.0	1.0
=	48.1	0.0	24.0	1.0
=	48.3	0.0	24.0	1.0
=	48.4	0.0	24.0	1.0
=	48.6	0.0	24.0	1.0
=	48.8	0.0	24.0	1.0
=	48.9	0.0	24.0	1.0
=	49.1	0.0	24.0	1.0
=	49.2	0.0	24.0	1.0
=	49.3	0.0	24.0	1.0
=	49.5	0.0	24.0	1.0
=	49.7	0.0	24.0	1.0
=	49.8	0.0	24.0	1.0
=	49.9	0.0	24.0	1.0
=	50.0	0.0	24.0	1.0
=	50.2	0.0	24.0	1.0
=	50.3	0.0	24.0	1.0
=	50.5	0.0	24.0	0.9
=	50.6	0.0	24.0	0.9
=	50.8	0.0	24.0	0.9
=	50.9	0.0	24.0	0.9
=	51.0	0.0	24.0	0.9
=	51.2	0.0	24.0	0.9
=	51.3	0.0	24.0	0.9
=	51.4	0.0	24.0	0.9
=	51.6	0.0	24.0	0.9
=	51.7	0.0	24.0	0.9
=	51.9	0.0	24.0	0.9
=	52.0	0.0	24.0	0.9
=	52.1	0.0	24.0	0.9
=	52.3	0.0	24.0	0.9
=	52.5	0.0	24.0	0.9
=	52.6	0.0	24.0	0.9
=	52.8	0.0	24.0	0.8
=	52.9	0.0	24.0	0.8
=	53.0	0.0	24.0	0.8
=	53.2	0.0	24.0	0.8
=	53.4	0.0	24.0	0.8
=	53.5	0.0	24.0	0.8
=	53.6	0.0	24.0	0.8
=	53.8	0.0	24.0	0.8
=	54.0	0.0	24.0	0.8
=	54.1	0.0	24.0	0.8
=	54.2	0.0	24.0	0.8
=	54.3	0.0	24.0	0.8
=	54.5	0.0	24.0	0.8
=	54.6	0.0	24.0	0.8
=	54.7	0.0	24.0	0.8
=	54.8	0.0	24.0	0.8
=	55.0	0.0	24.0	0.8
=	55.1	0.0	24.0	0.8
=	55.2	0.0	24.0	0.8
=	55.3	0.0	24.0	0.8
=	55.5	0.0	24.0	0.8
=	55.6	0.0	24.0	0.8
=	55.8	0.0	24.0	0.8
=	55.9	0.0	24.0	0.8
=	56.0	0.0	24.0	0.8
=	56.2	0.0	24.0	0.8
=	56.3	0.0	24.0	0.8
=	56.5	0.0	24.0	0.8
=	56.6	0.0	24.0	0.7
=	56.8	0.0	24.0	0.7
=	56.9	0.0	24.0	0.7
=	57.0	0.0	24.0	0.7
=	57.2	0.0	24.0	0.7
=	57.3	0.0	24.0	0.7
=	57.4	0.0	24.0	0.7
=	57.5	0.0	24.0	0.7
=	57.7	0.0	24.0	0.7
=	57.8	0.0	24.0	0.7
=	57.9	0.0	24.0	0.7
=	58.1	0.0	24.0	0.7
=	58.2	0.0	24.0	0.7
=	58.3	0.0	24.0	0.7
=	58.5	0.0	24.0	0.7
=	58.6	0.0	24.0	0.7
=	58.7	0.0	24.0	0.7
=	58.9	0.0	24.0	0.7
=	59.0	0.0	24.0	0.7
=	59.2	0.0	24.0	0.7
=	59.3	0.0	24.0	0.7
=	59.4	0.0	24.0	0.7
=	59.5	0.0	24.0	0.7
=	59.7	0.0	24.0	0.7
=	59.8	0.0	24.0	0.7
=	60.0	0.0	24.0	0.7
=	60.1	0.0	24.0	0.7
=	60.2	0.0	24.0	0.7
=	60.4	0.0	24.0	0.7
=	60.6	0.0	24.0	0.7
=	60.8	0.0	24.0	0.7
=	61.0	0.0	24.0	0.7
=	61.2	0.0	24.0	0.7
=	61.3	0.0	24.0	0.7
=	61.5	0.0	24.0	0.7
=	61.6	0.0	24.0	0.7
=	61.7	0.0	24.0	0.7
=	61.9	0.0	24.0	0.6
=	62.0	0.0	24.0	0.6
=	62.1	0.0	24.0	0.6
=	62.2	0.0	24.0	0.6
=	62.3	0.0	24.0	0.6
=	62.4	0.0	24.0	0.6
=	62.6	0.0	24.0	0.6
=	62.8	0.0	24.0	0.6
=	63.0	0.0	24.0	0.6
=	63.1	0.0	24.0	0.6
=	63.2	0.0	24.0	0.6
=	63.4	0.0	24.0	0.6
=	63.6	0.0	24.0	0.6
=	63.7	0.0	24.0	0.6
=	63.8	0.0	24.0	0.6
=	63.9	0.0	24.0	0.6
=	64.1	0.0	24.0	0.6
=	64.2	0.0	24.0	0.6
=	64.4	0.0	24.0	0.6
=	64.5	0.0	24.0	0.6
=	64.6	0.0	24.0	0.6
=	64.7	0.0	24.0	0.6
=	64.9	0.0	24.0	0.6
=	65.0	0.0	24.0	0.6
=	65.1	0.0	24.0	0.6
=	65.3	0.0	24.0	0.6
=	65.5	0.0	24.0	0.6
=	65.6	0.0	24.0	0.6
=	65.8	0.0	24.0	0.6
=	65.9	0.0	24.0	0.6
=	66.0	0.0	24.0	0.6
=	66.2	0.0	24.0	0.6
=	66.3	0.0	24.0	0.6
=	66.5	0.0	24.0	0.6
=	66.6	0.0	24.0	0.6
=	66.7	0.0	24.0	0.6
=	66.9	0.0	24.0	0.6
=	67.1	0.0	24.0	0.6
=	67.2	0.0	24.0	0.6
=	67.4	0.0	24.0	0.6
=	67.5	0.0	24.0	0.6
=	67.6	0.0	24.0	0.6
=	67.8	0.0	24.0	0.6
=	67.9	0.0	24.0	0.6
=	68.0	0.0	24.0	0.6
=	68.1	0.0	24.0	0.6
=	68.3	0.0	24.0	0.6
=	68.4	0.0	24.0	0.6
=	68.6	0.0	24.0	0.6
=	68.7	0.0	24.0	0.6
=	68.8	0.0	24.0	0.6
=	69.0	0.0	24.0	0.6
=	69.1	0.0	24.0	0.6
=	69.2	0.0	24.0	0.6
=	69.4	0.0	24.0	0.6
=	69.5	0.0	24.0	0.6
=	69.7	0.0	24.0	0.6
=	69.8	0.0	24.0	0.6
=	70.0	0.0	24.0	0.6
=	70.2	0.0	24.0	0.6
=	70.4	0.0	24.0	0.6
=	70.5	0.0	24.0	0.6
:EOM # End of Measurement
#
# RFA300 ASCII Measurement Dump ( BDS format )
#
# Measurement number 	2
#
%VNR 1.0
%MOD 	RAT
%TYP 	SCN
%SCN 	PRO
%FLD 	ION
%DAT 	09-22-2011
%TIM 	12:00:00
%FSZ 	040	040
%BMT 	PHO	   10.0
%SSD 	1000
%BUP 	0
%BRD 	1000
%FSH 	1
%ASC 	0
%WEG 	30
%GPO 	0
%CPO 	0
%MEA 	6
%PRD 	50,0
%PTS 	983
%STS 	    -71.0	  0.0	   50.0 # Start Scan values in mm ( X , Y , Z )
%EDS 	    70.9	   0.0	   50.0 # End Scan values in mm ( X , Y , Z )
#
#	  X      Y      Z     Dose
#
=	-71.0	0.0	50.0	0.7
=	-70.9	0.0	50.0	0.6
=	-70.8	0.0	50.0	0.6
=	-70.5	0.0	50.0	0.6
=	-70.4	0.0	50.0	0.6
=	-70.2	0.0	50.0	0.6
=	-70.0	0.0	50.0	0.6
=	-69.9	0.0	50.0	0.6
=	-69.7	0.0	50.0	0.6
=	-69.6	0.0	50.0	0.6
=	-69.5	0.0	50.0	0.6
=	-69.3	0.0	50.0	0.6
=	-69.2	0.0	50.0	0.6
=	-69.1	0.0	50.0	0.6
=	-68.9	0.0	50.0	0.6
=	-68.8	0.0	50.0	0.6
=	-68.7	0.0	50.0	0.6
=	-68.6	0.0	50.0	0.6
=	-68.5	0.0	50.0	0.6
=	-68.3	0.0	50.0	0.6
=	-68.2	0.0	50.0	0.6
=	-68.0	0.0	50.0	0.6
=	-67.9	0.0	50.0	0.6
=	-67.7	0.0	50.0	0.6
=	-67.6	0.0	50.0	0.6
=	-67.4	0.0	50.0	0.6
=	-67.2	0.0	50.0	0.6
=	-67.0	0.0	50.0	0.6
=	-66.8	0.0	50.0	0.6
=	-66.6	0.0	50.0	0.6
=	-66.5	0.0	50.0	0.6
=	-66.3	0.0	50.0	0.6
=	-66.1	0.0	50.0	0.6
=	-65.9	0.0	50.0	0.7
=	-65.8	0.0	50.0	0.7
=	-65.7	0.0	50.0	0.7
=	-65.6	0.0	50.0	0.7
=	-65.4	0.0	50.0	0.7
=	-65.3	0.0	50.0	0.7
=	-65.1	0.0	50.0	0.7
=	-64.9	0.0	50.0	0.7
=	-64.7	0.0	50.0	0.7
=	-64.5	0.0	50.0	0.7
=	-64.4	0.0	50.0	0.7
=	-64.2	0.0	50.0	0.7
=	-64.1	0.0	50.0	0.7
=	-64.0	0.0	50.0	0.7
=	-63.9	0.0	50.0	0.7
=	-63.8	0.0	50.0	0.7
=	-63.6	0.0	50.0	0.7
=	-63.5	0.0	50.0	0.7
=	-63.4	0.0	50.0	0.7
=	-63.2	0.0	50.0	0.7
=	-63.1	0.0	50.0	0.7
=	-62.9	0.0	50.0	0.7
=	-62.7	0.0	50.0	0.7
=	-62.6	0.0	50.0	0.7
=	-62.4	0.0	50.0	0.7
=	-62.3	0.0	50.0	0.7
=	-62.0	0.0	50.0	0.7
=	-61.9	0.0	50.0	0.7
=	-61.7	0.0	50.0	0.7
=	-61.6	0.0	50.0	0.7
=	-61.4	0.0	50.0	0.7
=	-61.2	0.0	50.0	0.8
=	-61.1	0.0	50.0	0.8
=	-60.9	0.0	50.0	0.8
=	-60.7	0.0	50.0	0.8
=	-60.5	0.0	50.0	0.8
=	-60.3	0.0	50.0	0.8
=	-60.2	0.0	50.0	0.8
=	-60.1	0.0	50.0	0.8
=	-59.9	0.0	50.0	0.8
=	-59.8	0.0	50.0	0.8
=	-59.7	0.0	50.0	0.8
=	-59.5	0.0	50.0	0.8
=	-59.4	0.0	50.0	0.8
=	-59.2	0.0	50.0	0.8
=	-59.0	0.0	50.0	0.8
=	-58.8	0.0	50.0	0.8
=	-58.6	0.0	50.0	0.8
=	-58.5	0.0	50.0	0.8
=	-58.3	0.0	50.0	0.8
=	-58.2	0.0	50.0	0.8
=	-58.1	0.0	50.0	0.9
=	-58.0	0.0	50.0	0.9
=	-57.9	0.0	50.0	0.9
=	-57.8	0.0	50.0	0.9
=	-57.6	0.0	50.0	0.9
=	-57.5	0.0	50.0	0.9
=	-57.4	0.0	50.0	0.9
=	-57.3	0.0	50.0	0.9
=	-57.2	0.0	50.0	0.9
=	-57.1	0.0	50.0	0.9
=	-57.0	0.0	50.0	0.9
=	-56.9	0.0	50.0	0.9
=	-56.8	0.0	50.0	0.9
=	-56.6	0.0	50.0	0.9
=	-56.5	0.0	50.0	0.9
=	-56.3	0.0	50.0	0.9
=	-56.1	0.0	50.0	0.9
=	-56.0	0.0	50.0	0.9
=	-55.8	0.0	50.0	0.9
=	-55.7	0.0	50.0	0.9
=	-55.5	0.0	50.0	0.9
=	-55.4	0.0	50.0	0.9
=	-55.3	0.0	50.0	0.9
=	-55.2	0.0	50.0	0.9
=	-55.1	0.0	50.0	0.9
=	-54.9	0.0	50.0	1.0
=	-54.8	0.0	50.0	1.0
=	-54.6	0.0	50.0	1.0
=	-54.5	0.0	50.0	1.0
=	-54.3	0.0	50.0	1.0
=	-54.2	0.0	50.0	1.0
=	-54.1	0.0	50.0	1.0
=	-54.0	0.0	50.0	1.0
=	-53.8	0.0	50.0	1.0
=	-53.7	0.0	50.0	1.0
=	-53.6	0.0	50.0	1.0
=	-53.5	0.0	50.0	1.0
=	-53.3	0.0	50.0	1.0
=	-53.1	0.0	50.0	1.0
=	-53.0	0.0	50.0	1.0
=	-52.9	0.0	50.0	1.0
=	-52.8	0.0	50.0	1.0
=	-52.6	0.0	50.0	1.0
=	-52.5	0.0	50.0	1.0
=	-52.4	0.0	50.0	1.0
=	-52.2	0.0	50.0	1.0
=	-52.1	0.0	50.0	1.0
=	-51.9	0.0	50.0	1.1
=	-51.8	0.0	50.0	1.1
=	-51.6	0.0	50.0	1.1
=	-51.5	0.0	50.0	1.1
=	-51.3	0.0	50.0	1.1
=	-51.1	0.0	50.0	1.1
=	-50.9	0.0	50.0	1.1
=	-50.7	0.0	50.0	1.1
=	-50.6	0.0	50.0	1.1
=	-50.5	0.0	50.0	1.1
=	-50.3	0.0	50.0	1.1
=	-50.1	0.0	50.0	1.1
=	-49.9	0.0	50.0	1.2
=	-49.8	0.0	50.0	1.2
=	-49.7	0.0	50.0	1.2
=	-49.6	0.0	50.0	1.2
=	-49.4	0.0	50.0	1.2
=	-49.3	0.0	50.0	1.2
=	-49.1	0.0	50.0	1.2
=	-48.9	0.0	50.0	1.2
=	-48.8	0.0	50.0	1.2
=	-48.7	0.0	50.0	1.2
=	-48.5	0.0	50.0	1.2
=	-48.4	0.0	50.0	1.2
=	-48.3	0.0	50.0	1.2
=	-48.1	0.0	50.0	1.2
=	-48.0	0.0	50.0	1.2
=	-47.8	0.0	50.0	1.3
=	-47.7	0.0	50.0	1.3
=	-47.5	0.0	50.0	1.3
=	-47.4	0.0	50.0	1.3
=	-47.2	0.0	50.0	1.3
=	-47.1	0.0	50.0	1.3
=	-46.9	0.0	50.0	1.3
=	-46.7	0.0	50.0	1.3
=	-46.6	0.0	50.0	1.3
=	-46.4	0.0	50.0	1.3
=	-46.3	0.0	50.0	1.3
=	-46.1	0.0	50.0	1.4
=	-46.0	0.0	50.0	1.4
=	-45.9	0.0	50.0	1.4
=	-45.7	0.0	50.0	1.4
=	-45.6	0.0	50.0	1.4
=	-45.5	0.0	50.0	1.4
=	-45.4	0.0	50.0	1.4
=	-45.1	0.0	50.0	1.4
=	-45.0	0.0	50.0	1.4
=	-44.9	0.0	50.0	1.4
=	-44.7	0.0	50.0	1.4
=	-44.6	0.0	50.0	1.5
=	-44.5	0.0	50.0	1.5
=	-44.3	0.0	50.0	1.5
=	-44.2	0.0	50.0	1.5
=	-44.0	0.0	50.0	1.5
=	-43.9	0.0	50.0	1.5
=	-43.7	0.0	50.0	1.5
=	-43.6	0.0	50.0	1.6
=	-43.5	0.0	50.0	1.6
=	-43.4	0.0	50.0	1.6
=	-43.1	0.0	50.0	1.6
=	-43.0	0.0	50.0	1.6
=	-42.8	0.0	50.0	1.6
=	-42.7	0.0	50.0	1.6
=	-42.5	0.0	50.0	1.7
=	-42.4	0.0	50.0	1.7
=	-42.3	0.0	50.0	1.7
=	-42.1	0.0	50.0	1.7
=	-42.0	0.0	50.0	1.7
=	-41.9	0.0	50.0	1.7
=	-41.8	0.0	50.0	1.7
=	-41.7	0.0	50.0	1.7
=	-41.5	0.0	50.0	1.7
=	-41.3	0.0	50.0	1.8
=	-41.2	0.0	50.0	1.8
=	-41.0	0.0	50.0	1.8
=	-40.8	0.0	50.0	1.8
=	-40.7	0.0	50.0	1.8
=	-40.5	0.0	50.0	1.8
=	-40.4	0.0	50.0	1.8
=	-40.3	0.0	50.0	1.9
=	-40.1	0.0	50.0	1.9
=	-40.0	0.0	50.0	1.9
=	-39.9	0.0	50.0	1.9
=	-39.7	0.0	50.0	1.9
=	-39.6	0.0	50.0	1.9
=	-39.5	0.0	50.0	2.0
=	-39.3	0.0	50.0	2.0
=	-39.2	0.0	50.0	2.0
=	-39.1	0.0	50.0	2.0
=	-39.0	0.0	50.0	2.0
=	-38.8	0.0	50.0	2.0
=	-38.7	0.0	50.0	2.0
=	-38.6	0.0	50.0	2.1
=	-38.4	0.0	50.0	2.1
=	-38.2	0.0	50.0	2.1
=	-38.1	0.0	50.0	2.1
=	-37.9	0.0	50.0	2.2
=	-37.8	0.0	50.0	2.2
=	-37.7	0.0	50.0	2.2
=	-37.6	0.0	50.0	2.2
=	-37.3	0.0	50.0	2.2
=	-37.2	0.0	50.0	2.3
=	-37.0	0.0	50.0	2.3
=	-36.9	0.0	50.0	2.3
=	-36.8	0.0	50.0	2.4
=	-36.7	0.0	50.0	2.4
=	-36.5	0.0	50.0	2.4
=	-36.3	0.0	50.0	2.5
=	-36.2	0.0	50.0	2.5
=	-36.1	0.0	50.0	2.6
=	-36.0	0.0	50.0	2.6
=	-35.8	0.0	50.0	2.6
=	-35.6	0.0	50.0	2.6
=	-35.4	0.0	50.0	2.7
=	-35.2	0.0	50.0	2.7
=	-35.0	0.0	50.0	2.8
=	-34.8	0.0	50.0	2.8
=	-34.6	0.0	50.0	2.9
=	-34.4	0.0	50.0	2.9
=	-34.2	0.0	50.0	3.0
=	-34.1	0.0	50.0	3.0
=	-34.0	0.0	50.0	3.0
=	-33.9	0.0	50.0	3.1
=	-33.7	0.0	50.0	3.2
=	-33.5	0.0	50.0	3.2
=	-33.4	0.0	50.0	3.2
=	-33.2	0.0	50.0	3.2
=	-33.1	0.0	50.0	3.3
=	-33.0	0.0	50.0	3.3
=	-32.8	0.0	50.0	3.4
=	-32.6	0.0	50.0	3.5
=	-32.4	0.0	50.0	3.6
=	-32.3	0.0	50.0	3.6
=	-32.2	0.0	50.0	3.7
=	-32.0	0.0	50.0	3.8
=	-31.8	0.0	50.0	4.0
=	-31.6	0.0	50.0	4.1
=	-31.5	0.0	50.0	4.1
=	-31.4	0.0	50.0	4.2
=	-31.2	0.0	50.0	4.3
=	-31.0	0.0	50.0	4.5
=	-30.8	0.0	50.0	4.6
=	-30.7	0.0	50.0	4.7
=	-30.6	0.0	50.0	4.7
=	-30.4	0.0	50.0	4.8
=	-30.3	0.0	50.0	4.9
=	-30.2	0.0	50.0	5.0
=	-30.1	0.0	50.0	5.1
=	-29.9	0.0	50.0	5.2
=	-29.8	0.0	50.0	5.3
=	-29.7	0.0	50.0	5.3
=	-29.6	0.0	50.0	5.5
=	-29.4	0.0	50.0	5.7
=	-29.3	0.0	50.0	5.7
=	-29.2	0.0	50.0	5.9
=	-29.0	0.0	50.0	6.0
=	-28.9	0.0	50.0	6.1
=	-28.8	0.0	50.0	6.3
=	-28.7	0.0	50.0	6.5
=	-28.6	0.0	50.0	6.7
=	-28.4	0.0	50.0	6.9
=	-28.2	0.0	50.0	7.1
=	-28.0	0.0	50.0	7.3
=	-27.9	0.0	50.0	7.5
=	-27.8	0.0	50.0	7.6
=	-27.7	0.0	50.0	7.8
=	-27.5	0.0	50.0	8.1
=	-27.4	0.0	50.0	8.3
=	-27.3	0.0	50.0	8.5
=	-27.2	0.0	50.0	8.6
=	-27.1	0.0	50.0	8.8
=	-26.9	0.0	50.0	9.2
=	-26.8	0.0	50.0	9.5
=	-26.5	0.0	50.0	10.1
=	-26.4	0.0	50.0	10.4
=	-26.3	0.0	50.0	10.6
=	-26.1	0.0	50.0	11.0
=	-26.0	0.0	50.0	11.3
=	-25.9	0.0	50.0	11.7
=	-25.7	0.0	50.0	12.2
=	-25.5	0.0	50.0	12.9
=	-25.4	0.0	50.0	13.2
=	-25.2	0.0	50.0	13.7
=	-25.1	0.0	50.0	14.2
=	-25.0	0.0	50.0	14.8
=	-24.9	0.0	50.0	15.5
=	-24.7	0.0	50.0	16.0
=	-24.6	0.0	50.0	16.8
=	-24.4	0.0	50.0	17.5
=	-24.3	0.0	50.0	18.2
=	-24.2	0.0	50.0	18.8
=	-24.0	0.0	50.0	19.6
=	-23.9	0.0	50.0	20.4
=	-23.8	0.0	50.0	21.2
=	-23.7	0.0	50.0	22.0
=	-23.6	0.0	50.0	22.9
=	-23.4	0.0	50.0	24.2
=	-23.2	0.0	50.0	25.8
=	-23.1	0.0	50.0	26.8
=	-22.9	0.0	50.0	28.3
=	-22.8	0.0	50.0	29.4
=	-22.6	0.0	50.0	31.0
=	-22.5	0.0	50.0	32.4
=	-22.4	0.0	50.0	33.7
=	-22.2	0.0	50.0	34.8
=	-22.1	0.0	50.0	36.3
=	-22.0	0.0	50.0	37.9
=	-21.8	0.0	50.0	39.4
=	-21.7	0.0	50.0	41.0
=	-21.5	0.0	50.0	42.9
=	-21.3	0.0	50.0	44.9
=	-21.2	0.0	50.0	46.1
=	-21.1	0.0	50.0	47.1
=	-21.0	0.0	50.0	48.1
=	-20.9	0.0	50.0	50.0
=	-20.8	0.0	50.0	51.5
=	-20.6	0.0	50.0	52.7
=	-20.5	0.0	50.0	54.4
=	-20.4	0.0	50.0	56.2
=	-20.2	0.0	50.0	57.7
=	-20.1	0.0	50.0	59.0
=	-19.9	0.0	50.0	61.0
=	-19.8	0.0	50.0	62.2
=	-19.7	0.0	50.0	63.8
=	-19.5	0.0	50.0	65.5
=	-19.3	0.0	50.0	67.4
=	-19.2	0.0	50.0	68.7
=	-19.0	0.0	50.0	70.3
=	-18.9	0.0	50.0	71.7
=	-18.8	0.0	50.0	73.2
=	-18.6	0.0	50.0	74.6
=	-18.4	0.0	50.0	76.4
=	-18.3	0.0	50.0	77.6
=	-18.2	0.0	50.0	78.6
=	-18.0	0.0	50.0	80.1
=	-17.9	0.0	50.0	81.2
=	-17.8	0.0	50.0	82.1
=	-17.6	0.0	50.0	83.3
=	-17.5	0.0	50.0	84.1
=	-17.4	0.0	50.0	85.3
=	-17.3	0.0	50.0	86.3
=	-17.2	0.0	50.0	87.0
=	-17.0	0.0	50.0	87.9
=	-16.8	0.0	50.0	89.0
=	-16.6	0.0	50.0	89.8
=	-16.5	0.0	50.0	90.6
=	-16.4	0.0	50.0	91.1
=	-16.2	0.0	50.0	91.8
=	-16.0	0.0	50.0	92.4
=	-15.9	0.0	50.0	93.0
=	-15.7	0.0	50.0	93.6
=	-15.5	0.0	50.0	94.1
=	-15.4	0.0	50.0	94.2
=	-15.3	0.0	50.0	94.7
=	-15.2	0.0	50.0	95.0
