:MSR 	8	 # No. of measurement in file
:SYS BDS 0   # Beam Data Scanner System
#
# RFA300 ASCII Measurement Dump ( BDS format )
#
# Measurement number 	1
#
%VNR 1.0
%MOD 	RAT
%TYP 	SCN
%SCN 	DPT
%FLD 	ION
%DAT 	09-21-2011
%TIM 	12:00:00
%FSZ 	030	030
%BMT 	PHO	   15.0
%SSD 	1000
%BUP 	0
%BRD 	1000
%FSH 	1
%ASC 	0
%WEG 	0
%GPO 	0
%CPO 	0
%MEA 	1
%PRD 	0,0
%PTS 	917
%STS 	    0.0	  0.0	   0.0 # Start Scan values in mm ( X , Y , Z )
%EDS 	    0.0	   0.0	   347.9 # End Scan values in mm ( X , Y , Z )
#
#	  X      Y      Z     Dose
#
=	0.0	0.0	0.0	25.3
=	0.0	0.0	0.5	26.8
=	0.0	0.0	0.9	28.6
=	0.0	0.0	1.3	30.6
=	0.0	0.0	1.7	33.1
=	0.0	0.0	2.1	36.6
=	0.0	0.0	2.5	40.0
=	0.0	0.0	2.9	43.8
=	0.0	0.0	3.3	47.4
=	0.0	0.0	3.7	50.5
=	0.0	0.0	4.1	53.4
=	0.0	0.0	4.5	56.2
=	0.0	0.0	4.9	58.9
=	0.0	0.0	5.3	61.2
=	0.0	0.0	5.6	62.8
=	0.0	0.0	5.8	64.2
=	0.0	0.0	6.2	66.0
=	0.0	0.0	6.5	68.0
=	0.0	0.0	6.9	70.0
=	0.0	0.0	7.4	71.9
=	0.0	0.0	7.8	73.6
=	0.0	0.0	8.2	75.0
=	0.0	0.0	8.6	76.4
=	0.0	0.0	9.0	78.1
=	0.0	0.0	9.4	79.5
=	0.0	0.0	9.8	80.8
=	0.0	0.0	10.2	82.1
=	0.0	0.0	10.6	83.4
=	0.0	0.0	11.0	84.4
=	0.0	0.0	11.4	85.4
=	0.0	0.0	11.8	86.5
=	0.0	0.0	12.3	87.3
=	0.0	0.0	12.7	88.3
=	0.0	0.0	13.1	88.9
=	0.0	0.0	13.4	89.7
=	0.0	0.0	13.8	90.5
=	0.0	0.0	14.2	91.2
=	0.0	0.0	14.7	91.9
=	0.0	0.0	15.1	92.5
=	0.0	0.0	15.5	93.0
=	0.0	0.0	15.9	93.5
=	0.0	0.0	16.3	94.2
=	0.0	0.0	16.7	94.7
=	0.0	0.0	17.1	95.0
=	0.0	0.0	17.5	95.6
=	0.0	0.0	17.9	96.0
=	0.0	0.0	18.3	96.5
=	0.0	0.0	18.7	96.7
=	0.0	0.0	19.2	97.0
=	0.0	0.0	19.5	97.3
=	0.0	0.0	19.9	97.5
=	0.0	0.0	20.4	97.8
=	0.0	0.0	20.8	98.1
=	0.0	0.0	21.2	98.4
=	0.0	0.0	21.4	98.5
=	0.0	0.0	21.8	98.8
=	0.0	0.0	22.2	99.0
=	0.0	0.0	22.5	99.1
=	0.0	0.0	22.8	99.2
=	0.0	0.0	23.1	99.4
=	0.0	0.0	23.3	99.5
=	0.0	0.0	23.6	99.6
=	0.0	0.0	23.9	99.7
=	0.0	0.0	24.2	99.8
=	0.0	0.0	24.6	99.8
=	0.0	0.0	24.9	99.9
=	0.0	0.0	25.3	99.9
=	0.0	0.0	25.6	100.0
=	0.0	0.0	26.0	100.0
=	0.0	0.0	26.4	100.0
=	0.0	0.0	26.8	100.0
=	0.0	0.0	27.1	100.0
=	0.0	0.0	27.5	100.0
=	0.0	0.0	27.9	100.0
=	0.0	0.0	28.2	100.0
=	0.0	0.0	28.5	100.0
=	0.0	0.0	28.8	99.9
=	0.0	0.0	29.1	99.9
=	0.0	0.0	29.5	99.9
=	0.0	0.0	29.8	99.9
=	0.0	0.0	30.1	99.8
=	0.0	0.0	30.4	99.8
=	0.0	0.0	30.7	99.8
=	0.0	0.0	31.0	99.8
=	0.0	0.0	31.4	99.7
=	0.0	0.0	31.7	99.7
=	0.0	0.0	32.0	99.7
=	0.0	0.0	32.3	99.6
=	0.0	0.0	32.6	99.6
=	0.0	0.0	32.9	99.5
=	0.0	0.0	33.2	99.5
=	0.0	0.0	33.6	99.4
=	0.0	0.0	33.9	99.4
=	0.0	0.0	34.2	99.3
=	0.0	0.0	34.5	99.3
=	0.0	0.0	34.8	99.2
=	0.0	0.0	35.2	99.0
=	0.0	0.0	35.6	98.9
=	0.0	0.0	36.1	98.7
=	0.0	0.0	36.5	98.6
=	0.0	0.0	36.9	98.6
=	0.0	0.0	37.3	98.4
=	0.0	0.0	37.7	98.3
=	0.0	0.0	38.1	98.1
=	0.0	0.0	38.5	98.0
=	0.0	0.0	38.9	97.9
=	0.0	0.0	39.3	97.8
=	0.0	0.0	39.7	97.7
=	0.0	0.0	40.1	97.6
=	0.0	0.0	40.5	97.4
=	0.0	0.0	40.9	97.3
=	0.0	0.0	41.3	97.2
=	0.0	0.0	41.7	97.0
=	0.0	0.0	42.2	96.8
=	0.0	0.0	42.6	96.6
=	0.0	0.0	43.0	96.5
=	0.0	0.0	43.4	96.3
=	0.0	0.0	43.8	96.1
=	0.0	0.0	44.2	95.9
=	0.0	0.0	44.6	95.8
=	0.0	0.0	45.0	95.6
=	0.0	0.0	45.4	95.4
=	0.0	0.0	45.8	95.3
=	0.0	0.0	46.2	95.1
=	0.0	0.0	46.7	94.9
=	0.0	0.0	47.0	94.8
=	0.0	0.0	47.3	94.6
=	0.0	0.0	47.6	94.5
=	0.0	0.0	48.1	94.4
=	0.0	0.0	48.5	94.3
=	0.0	0.0	48.9	94.1
=	0.0	0.0	49.3	94.0
=	0.0	0.0	49.7	93.8
=	0.0	0.0	49.9	93.7
=	0.0	0.0	50.2	93.5
=	0.0	0.0	50.5	93.5
=	0.0	0.0	50.9	93.3
=	0.0	0.0	51.2	93.2
=	0.0	0.0	51.6	93.0
=	0.0	0.0	52.0	92.8
=	0.0	0.0	52.4	92.7
=	0.0	0.0	52.8	92.5
=	0.0	0.0	53.1	92.4
=	0.0	0.0	53.4	92.2
=	0.0	0.0	53.9	92.0
=	0.0	0.0	54.2	91.9
=	0.0	0.0	54.5	91.7
=	0.0	0.0	54.9	91.6
=	0.0	0.0	55.3	91.5
=	0.0	0.0	55.7	91.3
=	0.0	0.0	56.2	91.1
=	0.0	0.0	56.6	90.9
=	0.0	0.0	56.9	90.7
=	0.0	0.0	57.4	90.4
=	0.0	0.0	57.7	90.3
=	0.0	0.0	58.2	90.2
=	0.0	0.0	58.6	90.0
=	0.0	0.0	59.0	89.9
=	0.0	0.0	59.4	89.7
=	0.0	0.0	59.8	89.6
=	0.0	0.0	60.3	89.4
=	0.0	0.0	60.7	89.2
=	0.0	0.0	61.1	89.0
=	0.0	0.0	61.5	88.9
=	0.0	0.0	61.9	88.7
=	0.0	0.0	62.3	88.5
=	0.0	0.0	62.7	88.4
=	0.0	0.0	63.1	88.2
=	0.0	0.0	63.4	88.1
=	0.0	0.0	63.6	88.0
=	0.0	0.0	63.9	87.9
=	0.0	0.0	64.3	87.8
=	0.0	0.0	64.8	87.6
=	0.0	0.0	65.2	87.3
=	0.0	0.0	65.6	87.2
=	0.0	0.0	65.8	87.1
=	0.0	0.0	66.1	87.0
=	0.0	0.0	66.4	86.9
=	0.0	0.0	66.6	86.7
=	0.0	0.0	67.0	86.5
=	0.0	0.0	67.4	86.3
=	0.0	0.0	67.9	86.2
=	0.0	0.0	68.2	86.1
=	0.0	0.0	68.7	85.9
=	0.0	0.0	69.1	85.7
=	0.0	0.0	69.5	85.6
=	0.0	0.0	69.9	85.5
=	0.0	0.0	70.3	85.4
=	0.0	0.0	70.7	85.3
=	0.0	0.0	71.1	85.1
=	0.0	0.0	71.5	84.9
=	0.0	0.0	71.9	84.8
=	0.0	0.0	72.4	84.7
=	0.0	0.0	72.8	84.5
=	0.0	0.0	73.2	84.3
=	0.0	0.0	73.6	84.1
=	0.0	0.0	74.0	84.0
=	0.0	0.0	74.4	83.8
=	0.0	0.0	74.8	83.6
=	0.0	0.0	75.2	83.4
=	0.0	0.0	75.6	83.2
=	0.0	0.0	76.1	83.1
=	0.0	0.0	76.5	82.8
=	0.0	0.0	76.9	82.7
=	0.0	0.0	77.2	82.5
=	0.0	0.0	77.5	82.4
=	0.0	0.0	77.9	82.3
=	0.0	0.0	78.3	82.2
=	0.0	0.0	78.6	82.1
=	0.0	0.0	78.9	82.0
=	0.0	0.0	79.4	81.8
=	0.0	0.0	79.8	81.6
=	0.0	0.0	80.2	81.5
=	0.0	0.0	80.6	81.4
=	0.0	0.0	81.0	81.2
=	0.0	0.0	81.4	81.0
=	0.0	0.0	81.8	80.9
=	0.0	0.0	82.2	80.7
=	0.0	0.0	82.7	80.6
=	0.0	0.0	83.1	80.4
=	0.0	0.0	83.5	80.2
=	0.0	0.0	83.9	80.0
=	0.0	0.0	84.3	79.9
=	0.0	0.0	84.7	79.7
=	0.0	0.0	85.1	79.5
=	0.0	0.0	85.5	79.3
=	0.0	0.0	85.9	79.2
=	0.0	0.0	86.4	79.1
=	0.0	0.0	86.8	78.9
=	0.0	0.0	87.2	78.8
=	0.0	0.0	87.6	78.6
=	0.0	0.0	88.0	78.5
=	0.0	0.0	88.4	78.3
=	0.0	0.0	88.8	78.1
=	0.0	0.0	89.2	77.9
=	0.0	0.0	89.6	77.8
=	0.0	0.0	90.0	77.7
=	0.0	0.0	90.5	77.5
=	0.0	0.0	90.9	77.3
=	0.0	0.0	91.3	77.2
=	0.0	0.0	91.7	77.1
=	0.0	0.0	92.1	76.9
=	0.0	0.0	92.5	76.7
=	0.0	0.0	92.9	76.6
=	0.0	0.0	93.3	76.5
=	0.0	0.0	93.7	76.2
=	0.0	0.0	94.2	76.1
=	0.0	0.0	94.6	76.0
=	0.0	0.0	95.0	75.8
=	0.0	0.0	95.4	75.6
=	0.0	0.0	95.8	75.4
=	0.0	0.0	96.2	75.4
=	0.0	0.0	96.6	75.2
=	0.0	0.0	97.0	75.0
=	0.0	0.0	97.3	74.9
=	0.0	0.0	97.7	74.8
=	0.0	0.0	98.1	74.6
=	0.0	0.0	98.5	74.5
=	0.0	0.0	98.9	74.4
=	0.0	0.0	99.3	74.2
=	0.0	0.0	99.7	74.0
=	0.0	0.0	100.1	73.8
=	0.0	0.0	100.6	73.7
=	0.0	0.0	101.0	73.7
=	0.0	0.0	101.4	73.6
=	0.0	0.0	101.7	73.5
=	0.0	0.0	102.0	73.4
=	0.0	0.0	102.3	73.3
=	0.0	0.0	102.6	73.2
=	0.0	0.0	103.0	73.0
=	0.0	0.0	103.4	72.9
=	0.0	0.0	103.6	72.8
=	0.0	0.0	103.9	72.7
=	0.0	0.0	104.2	72.6
=	0.0	0.0	104.5	72.6
=	0.0	0.0	104.8	72.5
=	0.0	0.0	105.1	72.4
=	0.0	0.0	105.5	72.3
=	0.0	0.0	105.9	72.2
=	0.0	0.0	106.3	72.0
=	0.0	0.0	106.7	71.9
=	0.0	0.0	107.1	71.7
=	0.0	0.0	107.3	71.5
=	0.0	0.0	107.7	71.4
=	0.0	0.0	108.1	71.3
=	0.0	0.0	108.6	71.1
=	0.0	0.0	109.0	71.0
=	0.0	0.0	109.4	70.8
=	0.0	0.0	109.8	70.8
=	0.0	0.0	110.2	70.6
=	0.0	0.0	110.6	70.5
=	0.0	0.0	111.0	70.4
=	0.0	0.0	111.4	70.2
=	0.0	0.0	111.8	70.0
=	0.0	0.0	112.1	70.0
=	0.0	0.0	112.4	69.8
=	0.0	0.0	112.9	69.7
=	0.0	0.0	113.3	69.6
=	0.0	0.0	113.7	69.4
=	0.0	0.0	114.1	69.3
=	0.0	0.0	114.5	69.2
=	0.0	0.0	114.9	69.2
=	0.0	0.0	115.3	69.0
=	0.0	0.0	115.7	68.8
=	0.0	0.0	116.1	68.6
=	0.0	0.0	116.5	68.5
=	0.0	0.0	116.9	68.4
=	0.0	0.0	117.4	68.3
=	0.0	0.0	117.8	68.2
=	0.0	0.0	118.2	68.0
=	0.0	0.0	118.6	67.9
=	0.0	0.0	119.0	67.7
=	0.0	0.0	119.4	67.6
=	0.0	0.0	119.8	67.5
=	0.0	0.0	120.2	67.3
=	0.0	0.0	120.6	67.1
=	0.0	0.0	121.0	67.0
=	0.0	0.0	121.4	66.9
=	0.0	0.0	121.8	66.8
=	0.0	0.0	122.2	66.7
=	0.0	0.0	122.6	66.7
=	0.0	0.0	123.1	66.5
=	0.0	0.0	123.5	66.3
=	0.0	0.0	123.9	66.2
=	0.0	0.0	124.3	66.1
=	0.0	0.0	124.7	65.9
=	0.0	0.0	125.1	65.8
=	0.0	0.0	125.5	65.7
=	0.0	0.0	125.9	65.6
=	0.0	0.0	126.3	65.4
=	0.0	0.0	126.7	65.3
=	0.0	0.0	127.1	65.1
=	0.0	0.0	127.6	65.0
=	0.0	0.0	128.0	64.9
=	0.0	0.0	128.4	64.8
=	0.0	0.0	128.8	64.6
=	0.0	0.0	129.2	64.5
=	0.0	0.0	129.6	64.4
=	0.0	0.0	129.8	64.4
=	0.0	0.0	130.2	64.3
=	0.0	0.0	130.6	64.1
=	0.0	0.0	131.0	63.9
=	0.0	0.0	131.4	63.8
=	0.0	0.0	131.9	63.7
=	0.0	0.0	132.1	63.7
=	0.0	0.0	132.4	63.6
=	0.0	0.0	132.8	63.5
=	0.0	0.0	133.2	63.4
=	0.0	0.0	133.6	63.3
=	0.0	0.0	133.8	63.2
=	0.0	0.0	134.2	63.1
=	0.0	0.0	134.5	63.0
=	0.0	0.0	134.8	63.0
=	0.0	0.0	135.1	62.8
=	0.0	0.0	135.5	62.7
=	0.0	0.0	135.9	62.6
=	0.0	0.0	136.3	62.5
=	0.0	0.0	136.7	62.3
=	0.0	0.0	137.2	62.2
=	0.0	0.0	137.6	62.1
=	0.0	0.0	137.9	62.0
=	0.0	0.0	138.4	61.9
=	0.0	0.0	138.8	61.8
=	0.0	0.0	139.2	61.5
=	0.0	0.0	139.6	61.4
=	0.0	0.0	140.0	61.2
=	0.0	0.0	140.2	61.2
=	0.0	0.0	140.6	61.1
=	0.0	0.0	140.9	61.0
=	0.0	0.0	141.2	60.9
=	0.0	0.0	141.7	60.9
=	0.0	0.0	142.1	60.8
=	0.0	0.0	142.5	60.7
=	0.0	0.0	142.9	60.6
=	0.0	0.0	143.3	60.4
=	0.0	0.0	143.7	60.2
=	0.0	0.0	144.1	60.1
=	0.0	0.0	144.4	60.0
=	0.0	0.0	144.7	59.9
=	0.0	0.0	145.2	59.8
=	0.0	0.0	145.5	59.7
=	0.0	0.0	145.9	59.6
=	0.0	0.0	146.3	59.5
=	0.0	0.0	146.8	59.4
=	0.0	0.0	147.1	59.3
=	0.0	0.0	147.4	59.2
=	0.0	0.0	147.8	59.1
=	0.0	0.0	148.0	59.1
=	0.0	0.0	148.4	58.9
=	0.0	0.0	148.8	58.8
=	0.0	0.0	149.2	58.7
=	0.0	0.0	149.6	58.6
=	0.0	0.0	150.0	58.5
=	0.0	0.0	150.5	58.4
=	0.0	0.0	150.9	58.3
=	0.0	0.0	151.3	58.2
=	0.0	0.0	151.7	58.1
=	0.0	0.0	152.2	57.9
=	0.0	0.0	152.6	57.8
=	0.0	0.0	153.0	57.6
=	0.0	0.0	153.4	57.5
=	0.0	0.0	153.8	57.4
=	0.0	0.0	154.2	57.3
=	0.0	0.0	154.6	57.2
=	0.0	0.0	155.0	57.1
=	0.0	0.0	155.3	57.0
=	0.0	0.0	155.6	57.0
=	0.0	0.0	156.1	56.9
=	0.0	0.0	156.5	56.8
=	0.0	0.0	156.9	56.7
=	0.0	0.0	157.3	56.6
=	0.0	0.0	157.7	56.4
=	0.0	0.0	158.1	56.3
=	0.0	0.0	158.5	56.2
=	0.0	0.0	159.0	56.1
=	0.0	0.0	159.4	56.0
=	0.0	0.0	159.8	55.9
=	0.0	0.0	160.2	55.7
=	0.0	0.0	160.6	55.6
=	0.0	0.0	161.0	55.5
=	0.0	0.0	161.4	55.4
=	0.0	0.0	161.8	55.3
=	0.0	0.0	162.2	55.1
=	0.0	0.0	162.6	55.0
=	0.0	0.0	163.1	54.9
=	0.0	0.0	163.5	54.9
=	0.0	0.0	163.7	54.8
=	0.0	0.0	164.1	54.7
=	0.0	0.0	164.5	54.7
=	0.0	0.0	164.9	54.6
=	0.0	0.0	165.3	54.5
=	0.0	0.0	165.7	54.4
=	0.0	0.0	166.1	54.3
=	0.0	0.0	166.3	54.2
=	0.0	0.0	166.6	54.2
=	0.0	0.0	166.9	54.0
=	0.0	0.0	167.3	53.9
=	0.0	0.0	167.7	53.8
=	0.0	0.0	168.1	53.7
=	0.0	0.0	168.6	53.6
=	0.0	0.0	169.0	53.5
=	0.0	0.0	169.4	53.5
=	0.0	0.0	169.7	53.4
=	0.0	0.0	170.0	53.3
=	0.0	0.0	170.4	53.2
=	0.0	0.0	170.8	53.1
=	0.0	0.0	171.2	52.9
=	0.0	0.0	171.6	52.9
=	0.0	0.0	172.0	52.7
=	0.0	0.0	172.4	52.6
=	0.0	0.0	172.9	52.5
=	0.0	0.0	173.2	52.4
=	0.0	0.0	173.5	52.4
=	0.0	0.0	173.8	52.3
=	0.0	0.0	174.2	52.2
=	0.0	0.0	174.6	52.1
=	0.0	0.0	174.9	52.1
=	0.0	0.0	175.1	52.0
=	0.0	0.0	175.5	51.9
=	0.0	0.0	175.9	51.8
=	0.0	0.0	176.3	51.8
=	0.0	0.0	176.7	51.6
=	0.0	0.0	177.2	51.5
=	0.0	0.0	177.6	51.4
=	0.0	0.0	178.0	51.4
=	0.0	0.0	178.4	51.2
=	0.0	0.0	178.8	51.1
=	0.0	0.0	179.2	51.0
=	0.0	0.0	179.6	50.9
=	0.0	0.0	180.0	50.8
=	0.0	0.0	180.4	50.8
=	0.0	0.0	180.8	50.7
=	0.0	0.0	181.2	50.6
=	0.0	0.0	181.6	50.5
=	0.0	0.0	182.0	50.4
=	0.0	0.0	182.4	50.3
=	0.0	0.0	182.9	50.2
=	0.0	0.0	183.2	50.1
=	0.0	0.0	183.5	50.1
=	0.0	0.0	183.7	50.0
=	0.0	0.0	184.0	49.9
=	0.0	0.0	184.3	49.8
=	0.0	0.0	184.6	49.8
=	0.0	0.0	184.9	49.8
=	0.0	0.0	185.2	49.7
=	0.0	0.0	185.5	49.6
=	0.0	0.0	185.8	49.5
=	0.0	0.0	186.2	49.4
=	0.0	0.0	186.7	49.3
=	0.0	0.0	187.0	49.2
=	0.0	0.0	187.4	49.2
=	0.0	0.0	187.7	49.1
=	0.0	0.0	188.0	49.0
=	0.0	0.0	188.3	49.0
=	0.0	0.0	188.5	48.9
=	0.0	0.0	188.9	48.7
=	0.0	0.0	189.3	48.7
=	0.0	0.0	189.7	48.6
=	0.0	0.0	190.1	48.5
=	0.0	0.0	190.5	48.4
=	0.0	0.0	190.9	48.3
=	0.0	0.0	191.3	48.2
=	0.0	0.0	191.8	48.1
=	0.0	0.0	192.2	48.0
=	0.0	0.0	192.6	48.0
=	0.0	0.0	193.0	47.9
=	0.0	0.0	193.4	47.8
=	0.0	0.0	193.7	47.8
=	0.0	0.0	194.0	47.7
=	0.0	0.0	194.4	47.6
=	0.0	0.0	194.7	47.5
=	0.0	0.0	195.1	47.4
=	0.0	0.0	195.4	47.4
=	0.0	0.0	195.7	47.3
=	0.0	0.0	196.1	47.2
=	0.0	0.0	196.3	47.2
=	0.0	0.0	196.7	47.1
=	0.0	0.0	197.1	47.0
=	0.0	0.0	197.5	46.9
=	0.0	0.0	197.9	46.8
=	0.0	0.0	198.3	46.8
=	0.0	0.0	198.8	46.7
=	0.0	0.0	199.2	46.6
=	0.0	0.0	199.5	46.5
=	0.0	0.0	199.7	46.4
=	0.0	0.0	200.2	46.3
=	0.0	0.0	200.6	46.3
=	0.0	0.0	201.0	46.2
=	0.0	0.0	201.4	46.1
=	0.0	0.0	201.8	45.9
=	0.0	0.0	202.2	45.8
=	0.0	0.0	202.6	45.7
=	0.0	0.0	203.0	45.7
=	0.0	0.0	203.4	45.6
=	0.0	0.0	203.9	45.5
=	0.0	0.0	204.3	45.4
=	0.0	0.0	204.7	45.3
=	0.0	0.0	205.1	45.2
=	0.0	0.0	205.5	45.1
=	0.0	0.0	205.9	45.0
=	0.0	0.0	206.3	44.9
=	0.0	0.0	206.7	44.9
=	0.0	0.0	207.1	44.8
=	0.0	0.0	207.5	44.7
=	0.0	0.0	207.9	44.6
=	0.0	0.0	208.4	44.5
=	0.0	0.0	208.8	44.5
=	0.0	0.0	209.2	44.4
=	0.0	0.0	209.6	44.3
=	0.0	0.0	210.0	44.2
=	0.0	0.0	210.4	44.1
=	0.0	0.0	210.8	44.1
=	0.0	0.0	211.1	44.0
=	0.0	0.0	211.4	44.0
=	0.0	0.0	211.7	43.9
=	0.0	0.0	212.0	43.8
=	0.0	0.0	212.3	43.7
=	0.0	0.0	212.7	43.7
=	0.0	0.0	213.1	43.6
=	0.0	0.0	213.5	43.5
=	0.0	0.0	213.9	43.5
=	0.0	0.0	214.2	43.4
=	0.0	0.0	214.5	43.4
=	0.0	0.0	214.9	43.3
=	0.0	0.0	215.2	43.3
=	0.0	0.0	215.5	43.2
=	0.0	0.0	215.8	43.1
=	0.0	0.0	216.2	43.0
=	0.0	0.0	216.6	43.0
=	0.0	0.0	217.0	42.9
=	0.0	0.0	217.4	42.8
=	0.0	0.0	217.8	42.7
=	0.0	0.0	218.2	42.7
=	0.0	0.0	218.6	42.6
=	0.0	0.0	219.0	42.6
=	0.0	0.0	219.3	42.5
=	0.0	0.0	219.6	42.4
=	0.0	0.0	219.9	42.3
=	0.0	0.0	220.3	42.3
=	0.0	0.0	220.7	42.2
=	0.0	0.0	221.1	42.1
=	0.0	0.0	221.5	42.0
=	0.0	0.0	221.9	41.9
=	0.0	0.0	222.3	41.9
=	0.0	0.0	222.7	41.8
=	0.0	0.0	223.2	41.7
=	0.0	0.0	223.6	41.6
=	0.0	0.0	224.0	41.5
=	0.0	0.0	224.4	41.4
=	0.0	0.0	224.8	41.3
=	0.0	0.0	225.2	41.3
=	0.0	0.0	225.6	41.2
=	0.0	0.0	226.0	41.1
=	0.0	0.0	226.5	41.0
=	0.0	0.0	226.8	40.9
=	0.0	0.0	227.2	40.8
=	0.0	0.0	227.6	40.8
=	0.0	0.0	228.1	40.7
=	0.0	0.0	228.5	40.7
=	0.0	0.0	228.9	40.6
=	0.0	0.0	229.3	40.5
=	0.0	0.0	229.7	40.4
=	0.0	0.0	230.2	40.3
=	0.0	0.0	230.6	40.2
=	0.0	0.0	231.0	40.2
=	0.0	0.0	231.4	40.1
=	0.0	0.0	231.8	40.1
=	0.0	0.0	232.0	40.0
=	0.0	0.0	232.4	40.0
=	0.0	0.0	232.8	39.9
=	0.0	0.0	233.2	39.9
=	0.0	0.0	233.6	39.8
=	0.0	0.0	234.1	39.7
=	0.0	0.0	234.5	39.6
=	0.0	0.0	234.9	39.6
=	0.0	0.0	235.3	39.5
=	0.0	0.0	235.7	39.4
=	0.0	0.0	236.1	39.3
=	0.0	0.0	236.4	39.2
=	0.0	0.0	236.7	39.2
=	0.0	0.0	237.0	39.1
=	0.0	0.0	237.2	39.1
=	0.0	0.0	237.5	39.1
=	0.0	0.0	237.8	39.0
=	0.0	0.0	238.1	39.0
=	0.0	0.0	238.3	38.9
=	0.0	0.0	238.6	38.9
=	0.0	0.0	238.9	38.8
=	0.0	0.0	239.2	38.8
=	0.0	0.0	239.5	38.8
=	0.0	0.0	239.9	38.7
=	0.0	0.0	240.3	38.6
=	0.0	0.0	240.7	38.5
=	0.0	0.0	241.1	38.4
=	0.0	0.0	241.5	38.3
=	0.0	0.0	242.0	38.2
=	0.0	0.0	242.4	38.2
=	0.0	0.0	242.7	38.1
=	0.0	0.0	243.0	38.1
=	0.0	0.0	243.3	38.0
=	0.0	0.0	243.6	38.0
=	0.0	0.0	243.9	38.0
=	0.0	0.0	244.1	37.9
=	0.0	0.0	244.5	37.9
=	0.0	0.0	244.8	37.8
=	0.0	0.0	245.1	37.7
=	0.0	0.0	245.5	37.7
=	0.0	0.0	245.7	37.6
=	0.0	0.0	246.1	37.6
=	0.0	0.0	246.5	37.5
=	0.0	0.0	246.9	37.5
=	0.0	0.0	247.4	37.4
=	0.0	0.0	247.6	37.4
=	0.0	0.0	248.0	37.3
=	0.0	0.0	248.4	37.2
=	0.0	0.0	248.7	37.2
=	0.0	0.0	249.0	37.1
=	0.0	0.0	249.4	37.0
=	0.0	0.0	249.7	37.0
=	0.0	0.0	249.9	36.9
=	0.0	0.0	250.2	36.9
=	0.0	0.0	250.6	36.8
=	0.0	0.0	251.0	36.8
=	0.0	0.0	251.3	36.7
=	0.0	0.0	251.7	36.6
=	0.0	0.0	252.0	36.6
=	0.0	0.0	252.3	36.5
=	0.0	0.0	252.7	36.4
=	0.0	0.0	253.1	36.4
=	0.0	0.0	253.5	36.3
=	0.0	0.0	254.0	36.3
=	0.0	0.0	254.3	36.2
=	0.0	0.0	254.7	36.1
=	0.0	0.0	255.0	36.1
=	0.0	0.0	255.4	36.0
=	0.0	0.0	255.8	35.9
=	0.0	0.0	256.1	35.9
=	0.0	0.0	256.4	35.9
=	0.0	0.0	256.8	35.8
=	0.0	0.0	257.2	35.7
=	0.0	0.0	257.6	35.6
=	0.0	0.0	258.1	35.6
=	0.0	0.0	258.5	35.5
=	0.0	0.0	258.8	35.5
=	0.0	0.0	259.3	35.4
=	0.0	0.0	259.7	35.3
=	0.0	0.0	260.1	35.3
=	0.0	0.0	260.5	35.2
=	0.0	0.0	260.9	35.1
=	0.0	0.0	261.3	35.1
=	0.0	0.0	261.7	35.0
=	0.0	0.0	262.1	34.9
=	0.0	0.0	262.6	34.9
=	0.0	0.0	263.0	34.8
=	0.0	0.0	263.4	34.7
=	0.0	0.0	263.8	34.6
=	0.0	0.0	264.1	34.6
=	0.0	0.0	264.4	34.5
=	0.0	0.0	264.8	34.5
=	0.0	0.0	265.2	34.4
=	0.0	0.0	265.7	34.4
=	0.0	0.0	266.1	34.3
=	0.0	0.0	266.5	34.2
=	0.0	0.0	266.9	34.1
=	0.0	0.0	267.3	34.1
=	0.0	0.0	267.7	34.0
=	0.0	0.0	268.1	34.0
=	0.0	0.0	268.5	33.9
=	0.0	0.0	268.9	33.9
=	0.0	0.0	269.3	33.8
=	0.0	0.0	269.7	33.7
=	0.0	0.0	270.2	33.7
=	0.0	0.0	270.6	33.6
=	0.0	0.0	271.0	33.6
=	0.0	0.0	271.4	33.5
=	0.0	0.0	271.8	33.5
=	0.0	0.0	272.2	33.4
=	0.0	0.0	272.6	33.3
=	0.0	0.0	273.0	33.3
=	0.0	0.0	273.4	33.2
=	0.0	0.0	273.8	33.1
=	0.0	0.0	274.2	33.1
=	0.0	0.0	274.5	33.0
=	0.0	0.0	274.7	33.0
=	0.0	0.0	275.0	33.0
=	0.0	0.0	275.3	33.0
=	0.0	0.0	275.5	32.9
=	0.0	0.0	275.8	32.9
=	0.0	0.0	276.1	32.8
=	0.0	0.0	276.4	32.8
=	0.0	0.0	276.8	32.7
=	0.0	0.0	277.2	32.6
=	0.0	0.0	277.5	32.6
=	0.0	0.0	277.7	32.6
=	0.0	0.0	278.0	32.6
=	0.0	0.0	278.3	32.5
=	0.0	0.0	278.6	32.5
=	0.0	0.0	279.0	32.4
=	0.0	0.0	279.4	32.4
=	0.0	0.0	279.9	32.3
=	0.0	0.0	280.2	32.2
=	0.0	0.0	280.6	32.1
=	0.0	0.0	281.1	32.1
=	0.0	0.0	281.5	32.1
=	0.0	0.0	281.9	32.0
=	0.0	0.0	282.3	32.0
=	0.0	0.0	282.7	31.9
=	0.0	0.0	283.1	31.8
=	0.0	0.0	283.5	31.8
=	0.0	0.0	284.0	31.7
=	0.0	0.0	284.3	31.7
=	0.0	0.0	284.8	31.6
=	0.0	0.0	285.2	31.6
=	0.0	0.0	285.5	31.6
=	0.0	0.0	285.8	31.5
=	0.0	0.0	286.2	31.4
=	0.0	0.0	286.6	31.3
=	0.0	0.0	287.0	31.3
=	0.0	0.0	287.4	31.2
=	0.0	0.0	287.8	31.2
=	0.0	0.0	288.2	31.1
=	0.0	0.0	288.7	31.1
=	0.0	0.0	289.1	31.0
=	0.0	0.0	289.5	31.0
=	0.0	0.0	289.9	30.9
=	0.0	0.0	290.3	30.9
=	0.0	0.0	290.7	30.8
=	0.0	0.0	291.1	30.7
=	0.0	0.0	291.5	30.7
=	0.0	0.0	291.8	30.6
=	0.0	0.0	292.1	30.6
=	0.0	0.0	292.4	30.5
=	0.0	0.0	292.6	30.5
=	0.0	0.0	293.0	30.5
=	0.0	0.0	293.4	30.4
=	0.0	0.0	293.8	30.4
=	0.0	0.0	294.2	30.3
=	0.0	0.0	294.6	30.2
=	0.0	0.0	295.0	30.2
=	0.0	0.0	295.4	30.1
=	0.0	0.0	295.8	30.0
=	0.0	0.0	296.3	29.9
=	0.0	0.0	296.7	29.9
=	0.0	0.0	297.1	29.8
=	0.0	0.0	297.5	29.8
=	0.0	0.0	297.9	29.8
=	0.0	0.0	298.3	29.7
=	0.0	0.0	298.7	29.7
=	0.0	0.0	299.1	29.6
=	0.0	0.0	299.5	29.6
=	0.0	0.0	299.9	29.5
=	0.0	0.0	300.3	29.5
=	0.0	0.0	300.8	29.4
=	0.0	0.0	301.2	29.4
=	0.0	0.0	301.6	29.3
=	0.0	0.0	302.0	29.2
=	0.0	0.0	302.3	29.1
=	0.0	0.0	302.7	29.1
=	0.0	0.0	303.0	29.1
=	0.0	0.0	303.4	29.0
=	0.0	0.0	303.8	29.0
=	0.0	0.0	304.2	29.0
=	0.0	0.0	304.6	28.9
=	0.0	0.0	305.0	28.8
=	0.0	0.0	305.4	28.8
=	0.0	0.0	305.8	28.8
=	0.0	0.0	306.2	28.7
=	0.0	0.0	306.6	28.7
=	0.0	0.0	307.0	28.6
=	0.0	0.0	307.4	28.6
=	0.0	0.0	307.8	28.5
=	0.0	0.0	308.3	28.5
=	0.0	0.0	308.7	28.4
=	0.0	0.0	309.1	28.4
=	0.0	0.0	309.5	28.3
=	0.0	0.0	309.9	28.3
=	0.0	0.0	310.3	28.2
=	0.0	0.0	310.7	28.2
=	0.0	0.0	311.1	28.1
=	0.0	0.0	311.5	28.1
=	0.0	0.0	311.9	28.0
=	0.0	0.0	312.4	27.9
=	0.0	0.0	312.8	27.9
=	0.0	0.0	313.2	27.8
=	0.0	0.0	313.6	27.8
=	0.0	0.0	314.0	27.7
=	0.0	0.0	314.4	27.7
=	0.0	0.0	314.8	27.7
=	0.0	0.0	315.2	27.6
=	0.0	0.0	315.6	27.6
=	0.0	0.0	316.0	27.5
=	0.0	0.0	316.4	27.5
=	0.0	0.0	316.7	27.4
=	0.0	0.0	317.0	27.3
=	0.0	0.0	317.3	27.3
=	0.0	0.0	317.7	27.3
=	0.0	0.0	318.1	27.2
=	0.0	0.0	318.4	27.2
=	0.0	0.0	318.7	27.1
=	0.0	0.0	318.9	27.1
=	0.0	0.0	319.3	27.1
=	0.0	0.0	319.6	27.1
=	0.0	0.0	320.0	27.0
=	0.0	0.0	320.4	27.0
=	0.0	0.0	320.8	26.9
=	0.0	0.0	321.2	26.8
=	0.0	0.0	321.6	26.8
=	0.0	0.0	322.0	26.7
=	0.0	0.0	322.4	26.7
=	0.0	0.0	322.8	26.7
=	0.0	0.0	323.1	26.6
=	0.0	0.0	323.4	26.6
=	0.0	0.0	323.8	26.6
=	0.0	0.0	324.3	26.5
=	0.0	0.0	324.7	26.4
=	0.0	0.0	325.1	26.4
=	0.0	0.0	325.5	26.3
=	0.0	0.0	325.9	26.3
=	0.0	0.0	326.3	26.3
=	0.0	0.0	326.7	26.2
=	0.0	0.0	327.0	26.2
=	0.0	0.0	327.4	26.1
=	0.0	0.0	327.8	26.1
=	0.0	0.0	328.1	26.0
=	0.0	0.0	328.4	26.0
=	0.0	0.0	328.6	26.0
=	0.0	0.0	328.9	25.9
=	0.0	0.0	329.2	25.9
=	0.0	0.0	329.6	25.9
=	0.0	0.0	329.8	25.9
=	0.0	0.0	330.2	25.8
=	0.0	0.0	330.6	25.8
=	0.0	0.0	331.0	25.7
=	0.0	0.0	331.4	25.7
=	0.0	0.0	331.9	25.6
=	0.0	0.0	332.3	25.5
=	0.0	0.0	332.7	25.5
=	0.0	0.0	333.1	25.5
=	0.0	0.0	333.5	25.4
=	0.0	0.0	334.0	25.4
=	0.0	0.0	334.4	25.3
=	0.0	0.0	334.8	25.3
=	0.0	0.0	335.2	25.2
=	0.0	0.0	335.5	25.2
=	0.0	0.0	336.0	25.2
=	0.0	0.0	336.4	25.1
=	0.0	0.0	336.8	25.1
=	0.0	0.0	337.2	25.1
=	0.0	0.0	337.6	25.0
=	0.0	0.0	338.0	24.9
=	0.0	0.0	338.5	24.9
=	0.0	0.0	338.9	24.8
=	0.0	0.0	339.3	24.8
=	0.0	0.0	339.6	24.7
=	0.0	0.0	339.9	24.7
=	0.0	0.0	340.2	24.7
=	0.0	0.0	340.5	24.6
=	0.0	0.0	340.7	24.6
=	0.0	0.0	341.0	24.6
=	0.0	0.0	341.3	24.6
=	0.0	0.0	341.7	24.5
=	0.0	0.0	342.1	24.5
=	0.0	0.0	342.5	24.4
=	0.0	0.0	342.9	24.4
=	0.0	0.0	343.4	24.4
=	0.0	0.0	343.8	24.3
=	0.0	0.0	344.1	24.3
=	0.0	0.0	344.4	24.3
=	0.0	0.0	344.7	24.3
=	0.0	0.0	345.0	24.2
=	0.0	0.0	345.3	24.2
=	0.0	0.0	345.6	24.2
=	0.0	0.0	346.0	24.1
=	0.0	0.0	346.5	24.1
=	0.0	0.0	347.0	24.0
=	0.0	0.0	347.4	24.0
=	0.0	0.0	347.9	23.9
:EOM # End of Measurement
#
# RFA300 ASCII Measurement Dump ( BDS format )
#
# Measurement number 	2
#
%VNR 1.0
%MOD 	RAT
%TYP 	SCN
%SCN 	DPT
%FLD 	ION
%DAT 	09-21-2011
%TIM 	12:00:00
%FSZ 	040	040
%BMT 	PHO	   15.0
%SSD 	1000
%BUP 	0
%BRD 	1000
%FSH 	1
%ASC 	0
%WEG 	0
%GPO 	0
%CPO 	0
%MEA 	1
%PRD 	0,0
%PTS 	919
%STS 	    0.0	  0.0	   0.0 # Start Scan values in mm ( X , Y , Z )
%EDS 	    0.0	   0.0	   348.1 # End Scan values in mm ( X , Y , Z )
#
#	  X      Y      Z     Dose
#
=	0.0	0.0	0.0	26.2
=	0.0	0.0	0.3	27.0
=	0.0	0.0	0.7	28.4
=	0.0	0.0	1.0	29.8
=	0.0	0.0	1.4	31.7
=	0.0	0.0	1.7	34.5
=	0.0	0.0	2.1	37.6
=	0.0	0.0	2.5	41.2
=	0.0	0.0	2.9	44.6
=	0.0	0.0	3.4	48.1
=	0.0	0.0	3.8	51.1
=	0.0	0.0	4.2	53.9
=	0.0	0.0	4.5	56.0
=	0.0	0.0	4.8	58.1
=	0.0	0.0	5.2	60.6
=	0.0	0.0	5.6	62.8
=	0.0	0.0	6.0	64.9
=	0.0	0.0	6.4	67.1
=	0.0	0.0	6.7	68.4
=	0.0	0.0	7.0	70.1
=	0.0	0.0	7.4	72.0
=	0.0	0.0	7.7	73.2
=	0.0	0.0	8.0	74.4
=	0.0	0.0	8.5	75.9
=	0.0	0.0	8.8	77.2
=	0.0	0.0	9.1	78.1
=	0.0	0.0	9.5	79.5
=	0.0	0.0	9.8	80.4
=	0.0	0.0	10.1	81.2
=	0.0	0.0	10.4	82.0
=	0.0	0.0	10.7	83.1
=	0.0	0.0	11.1	84.1
=	0.0	0.0	11.5	85.0
=	0.0	0.0	11.8	85.7
=	0.0	0.0	12.2	86.5
=	0.0	0.0	12.6	87.5
=	0.0	0.0	13.0	88.3
=	0.0	0.0	13.4	89.3
=	0.0	0.0	13.8	89.8
=	0.0	0.0	14.2	90.6
=	0.0	0.0	14.4	91.0
=	0.0	0.0	14.8	91.6
=	0.0	0.0	15.2	92.2
=	0.0	0.0	15.6	92.7
=	0.0	0.0	15.9	93.2
=	0.0	0.0	16.2	93.6
=	0.0	0.0	16.6	94.2
=	0.0	0.0	17.0	94.7
=	0.0	0.0	17.3	94.9
=	0.0	0.0	17.6	95.3
=	0.0	0.0	18.0	95.7
=	0.0	0.0	18.4	96.1
=	0.0	0.0	18.7	96.3
=	0.0	0.0	19.0	96.6
=	0.0	0.0	19.2	96.9
=	0.0	0.0	19.5	97.0
=	0.0	0.0	19.9	97.3
=	0.0	0.0	20.3	97.6
=	0.0	0.0	20.7	97.8
=	0.0	0.0	21.1	98.0
=	0.0	0.0	21.5	98.2
=	0.0	0.0	21.9	98.5
=	0.0	0.0	22.3	98.7
=	0.0	0.0	22.7	98.9
=	0.0	0.0	23.1	99.0
=	0.0	0.0	23.5	99.1
=	0.0	0.0	24.0	99.2
=	0.0	0.0	24.4	99.4
=	0.0	0.0	24.7	99.5
=	0.0	0.0	25.2	99.7
=	0.0	0.0	25.6	99.8
=	0.0	0.0	26.0	99.8
=	0.0	0.0	26.4	99.9
=	0.0	0.0	26.8	99.9
=	0.0	0.0	27.2	99.9
=	0.0	0.0	27.5	99.9
=	0.0	0.0	27.8	100.0
=	0.0	0.0	28.2	100.0
=	0.0	0.0	28.6	100.0
=	0.0	0.0	29.0	100.0
=	0.0	0.0	29.4	100.0
=	0.0	0.0	29.9	100.0
=	0.0	0.0	30.2	100.0
=	0.0	0.0	30.6	100.0
=	0.0	0.0	31.0	100.0
=	0.0	0.0	31.4	99.9
=	0.0	0.0	31.8	99.9
=	0.0	0.0	32.2	99.9
=	0.0	0.0	32.5	99.8
=	0.0	0.0	32.8	99.7
=	0.0	0.0	33.1	99.7
=	0.0	0.0	33.3	99.7
=	0.0	0.0	33.6	99.6
=	0.0	0.0	33.9	99.6
=	0.0	0.0	34.2	99.5
=	0.0	0.0	34.5	99.5
=	0.0	0.0	34.8	99.4
=	0.0	0.0	35.2	99.3
=	0.0	0.0	35.6	99.2
=	0.0	0.0	36.0	99.1
=	0.0	0.0	36.4	99.0
=	0.0	0.0	36.7	99.0
=	0.0	0.0	37.0	98.9
=	0.0	0.0	37.4	98.8
=	0.0	0.0	37.6	98.7
=	0.0	0.0	38.0	98.6
=	0.0	0.0	38.4	98.5
=	0.0	0.0	38.8	98.4
=	0.0	0.0	39.3	98.2
=	0.0	0.0	39.7	98.1
=	0.0	0.0	40.1	98.0
=	0.0	0.0	40.5	97.8
=	0.0	0.0	40.9	97.7
=	0.0	0.0	41.3	97.6
=	0.0	0.0	41.5	97.5
=	0.0	0.0	41.8	97.4
=	0.0	0.0	42.3	97.3
=	0.0	0.0	42.7	97.1
=	0.0	0.0	43.1	97.0
=	0.0	0.0	43.5	96.8
=	0.0	0.0	43.9	96.6
=	0.0	0.0	44.3	96.4
=	0.0	0.0	44.7	96.2
=	0.0	0.0	45.1	96.1
=	0.0	0.0	45.4	96.1
=	0.0	0.0	45.7	96.0
=	0.0	0.0	46.1	95.8
=	0.0	0.0	46.6	95.5
=	0.0	0.0	47.0	95.4
=	0.0	0.0	47.3	95.3
=	0.0	0.0	47.6	95.2
=	0.0	0.0	48.0	95.1
=	0.0	0.0	48.4	94.9
=	0.0	0.0	48.8	94.8
=	0.0	0.0	49.2	94.6
=	0.0	0.0	49.6	94.4
=	0.0	0.0	50.1	94.3
=	0.0	0.0	50.5	94.2
=	0.0	0.0	50.9	94.0
=	0.0	0.0	51.3	93.8
=	0.0	0.0	51.7	93.6
=	0.0	0.0	52.1	93.4
=	0.0	0.0	52.5	93.3
=	0.0	0.0	52.9	93.2
=	0.0	0.0	53.3	93.0
=	0.0	0.0	53.6	93.0
=	0.0	0.0	54.0	92.8
=	0.0	0.0	54.4	92.6
=	0.0	0.0	54.6	92.5
=	0.0	0.0	55.1	92.3
=	0.0	0.0	55.5	92.0
=	0.0	0.0	55.9	91.9
=	0.0	0.0	56.3	91.8
=	0.0	0.0	56.7	91.5
=	0.0	0.0	57.1	91.4
=	0.0	0.0	57.5	91.3
=	0.0	0.0	57.9	91.1
=	0.0	0.0	58.3	91.0
=	0.0	0.0	58.6	90.8
=	0.0	0.0	58.9	90.7
=	0.0	0.0	59.4	90.5
=	0.0	0.0	59.8	90.2
=	0.0	0.0	60.2	90.0
=	0.0	0.0	60.6	89.8
=	0.0	0.0	61.1	89.7
=	0.0	0.0	61.5	89.6
=	0.0	0.0	61.9	89.5
=	0.0	0.0	62.3	89.3
=	0.0	0.0	62.7	89.1
=	0.0	0.0	63.1	88.9
=	0.0	0.0	63.5	88.7
=	0.0	0.0	63.8	88.6
=	0.0	0.0	64.1	88.6
=	0.0	0.0	64.5	88.4
=	0.0	0.0	64.9	88.2
=	0.0	0.0	65.4	88.1
=	0.0	0.0	65.7	88.0
=	0.0	0.0	66.2	87.8
=	0.0	0.0	66.6	87.6
=	0.0	0.0	67.0	87.4
=	0.0	0.0	67.4	87.2
=	0.0	0.0	67.8	87.0
=	0.0	0.0	68.2	87.0
=	0.0	0.0	68.6	86.8
=	0.0	0.0	69.0	86.7
=	0.0	0.0	69.5	86.5
=	0.0	0.0	69.9	86.4
=	0.0	0.0	70.2	86.2
=	0.0	0.0	70.6	85.9
=	0.0	0.0	71.0	85.8
=	0.0	0.0	71.5	85.6
=	0.0	0.0	71.9	85.4
=	0.0	0.0	72.2	85.2
=	0.0	0.0	72.7	85.0
=	0.0	0.0	73.1	84.9
=	0.0	0.0	73.5	84.8
=	0.0	0.0	73.9	84.7
=	0.0	0.0	74.3	84.6
=	0.0	0.0	74.7	84.5
=	0.0	0.0	75.1	84.4
=	0.0	0.0	75.4	84.2
=	0.0	0.0	75.8	83.9
=	0.0	0.0	76.2	83.7
=	0.0	0.0	76.5	83.6
=	0.0	0.0	76.8	83.5
=	0.0	0.0	77.2	83.3
=	0.0	0.0	77.6	83.2
=	0.0	0.0	78.0	83.1
=	0.0	0.0	78.3	82.9
=	0.0	0.0	78.5	82.9
=	0.0	0.0	78.8	82.8
=	0.0	0.0	79.1	82.7
=	0.0	0.0	79.6	82.6
=	0.0	0.0	80.0	82.4
=	0.0	0.0	80.3	82.2
=	0.0	0.0	80.6	82.1
=	0.0	0.0	80.9	82.0
=	0.0	0.0	81.3	82.0
=	0.0	0.0	81.5	81.9
=	0.0	0.0	81.8	81.7
=	0.0	0.0	82.1	81.4
=	0.0	0.0	82.3	81.3
=	0.0	0.0	82.6	81.2
=	0.0	0.0	82.9	81.2
=	0.0	0.0	83.2	81.1
=	0.0	0.0	83.5	81.0
=	0.0	0.0	83.7	80.9
=	0.0	0.0	84.0	80.8
=	0.0	0.0	84.4	80.6
=	0.0	0.0	84.7	80.5
=	0.0	0.0	85.1	80.4
=	0.0	0.0	85.5	80.3
=	0.0	0.0	85.9	80.1
=	0.0	0.0	86.1	80.0
=	0.0	0.0	86.5	79.9
=	0.0	0.0	86.9	79.8
=	0.0	0.0	87.3	79.7
=	0.0	0.0	87.7	79.4
=	0.0	0.0	88.1	79.3
=	0.0	0.0	88.4	79.2
=	0.0	0.0	88.7	79.1
=	0.0	0.0	89.0	79.0
=	0.0	0.0	89.3	78.9
=	0.0	0.0	89.8	78.7
=	0.0	0.0	90.2	78.7
=	0.0	0.0	90.6	78.5
=	0.0	0.0	91.0	78.3
=	0.0	0.0	91.4	78.0
=	0.0	0.0	91.8	77.8
=	0.0	0.0	92.2	77.7
=	0.0	0.0	92.7	77.6
=	0.0	0.0	93.1	77.5
=	0.0	0.0	93.5	77.4
=	0.0	0.0	93.9	77.2
=	0.0	0.0	94.3	77.0
=	0.0	0.0	94.7	76.7
=	0.0	0.0	95.1	76.6
=	0.0	0.0	95.5	76.4
=	0.0	0.0	96.0	76.3
=	0.0	0.0	96.4	76.2
=	0.0	0.0	96.8	76.1
=	0.0	0.0	97.2	75.9
=	0.0	0.0	97.6	75.7
=	0.0	0.0	98.0	75.6
=	0.0	0.0	98.4	75.5
=	0.0	0.0	98.8	75.4
=	0.0	0.0	99.2	75.2
=	0.0	0.0	99.7	75.1
=	0.0	0.0	100.1	75.0
=	0.0	0.0	100.5	74.8
=	0.0	0.0	100.8	74.7
=	0.0	0.0	101.2	74.5
=	0.0	0.0	101.5	74.4
=	0.0	0.0	101.9	74.2
=	0.0	0.0	102.4	74.1
=	0.0	0.0	102.7	74.0
=	0.0	0.0	103.2	73.8
=	0.0	0.0	103.6	73.7
=	0.0	0.0	104.0	73.5
=	0.0	0.0	104.4	73.3
=	0.0	0.0	104.8	73.2
=	0.0	0.0	105.2	73.0
=	0.0	0.0	105.6	72.9
=	0.0	0.0	105.9	72.9
=	0.0	0.0	106.1	72.8
=	0.0	0.0	106.4	72.7
=	0.0	0.0	106.7	72.6
=	0.0	0.0	106.9	72.5
=	0.0	0.0	107.2	72.4
=	0.0	0.0	107.5	72.3
=	0.0	0.0	107.7	72.3
=	0.0	0.0	108.1	72.2
=	0.0	0.0	108.5	72.1
=	0.0	0.0	108.9	71.8
=	0.0	0.0	109.1	71.7
=	0.0	0.0	109.4	71.5
=	0.0	0.0	109.7	71.5
=	0.0	0.0	110.0	71.4
=	0.0	0.0	110.4	71.4
=	0.0	0.0	110.7	71.3
=	0.0	0.0	110.9	71.2
=	0.0	0.0	111.2	71.2
=	0.0	0.0	111.6	71.1
=	0.0	0.0	112.0	70.9
=	0.0	0.0	112.4	70.7
=	0.0	0.0	112.8	70.6
=	0.0	0.0	113.2	70.5
=	0.0	0.0	113.6	70.4
=	0.0	0.0	114.0	70.2
=	0.0	0.0	114.5	70.1
=	0.0	0.0	114.9	70.0
=	0.0	0.0	115.3	69.8
=	0.0	0.0	115.7	69.6
=	0.0	0.0	116.1	69.5
=	0.0	0.0	116.5	69.3
=	0.0	0.0	116.9	69.2
=	0.0	0.0	117.3	69.0
=	0.0	0.0	117.8	68.8
=	0.0	0.0	118.1	68.7
=	0.0	0.0	118.6	68.6
=	0.0	0.0	118.9	68.5
=	0.0	0.0	119.4	68.4
=	0.0	0.0	119.8	68.3
=	0.0	0.0	120.2	68.2
=	0.0	0.0	120.6	68.0
=	0.0	0.0	121.0	67.9
=	0.0	0.0	121.4	67.8
=	0.0	0.0	121.8	67.7
=	0.0	0.0	122.2	67.5
=	0.0	0.0	122.6	67.4
=	0.0	0.0	123.0	67.3
=	0.0	0.0	123.4	67.2
=	0.0	0.0	123.9	67.1
=	0.0	0.0	124.3	66.9
=	0.0	0.0	124.7	66.7
=	0.0	0.0	125.1	66.7
=	0.0	0.0	125.5	66.5
=	0.0	0.0	125.9	66.4
=	0.0	0.0	126.3	66.3
=	0.0	0.0	126.7	66.2
=	0.0	0.0	127.1	66.1
=	0.0	0.0	127.5	65.8
=	0.0	0.0	127.9	65.7
=	0.0	0.0	128.2	65.6
=	0.0	0.0	128.4	65.5
=	0.0	0.0	128.8	65.4
=	0.0	0.0	129.2	65.4
=	0.0	0.0	129.5	65.3
=	0.0	0.0	129.8	65.2
=	0.0	0.0	130.0	65.1
=	0.0	0.0	130.4	65.0
=	0.0	0.0	130.8	64.9
=	0.0	0.0	131.2	64.7
=	0.0	0.0	131.6	64.6
=	0.0	0.0	131.8	64.5
=	0.0	0.0	132.1	64.5
=	0.0	0.0	132.4	64.4
=	0.0	0.0	132.7	64.3
=	0.0	0.0	133.1	64.2
=	0.0	0.0	133.4	64.1
=	0.0	0.0	133.8	64.0
=	0.0	0.0	134.2	63.9
=	0.0	0.0	134.4	63.8
=	0.0	0.0	134.8	63.7
=	0.0	0.0	135.2	63.6
=	0.0	0.0	135.6	63.5
=	0.0	0.0	135.8	63.3
=	0.0	0.0	136.2	63.2
=	0.0	0.0	136.6	63.1
=	0.0	0.0	137.0	63.0
=	0.0	0.0	137.4	62.8
=	0.0	0.0	137.8	62.7
=	0.0	0.0	138.3	62.6
=	0.0	0.0	138.7	62.5
=	0.0	0.0	139.1	62.4
=	0.0	0.0	139.5	62.2
=	0.0	0.0	139.9	62.0
=	0.0	0.0	140.3	61.9
=	0.0	0.0	140.7	61.8
=	0.0	0.0	141.1	61.8
=	0.0	0.0	141.6	61.7
=	0.0	0.0	142.0	61.5
=	0.0	0.0	142.4	61.4
=	0.0	0.0	142.8	61.3
=	0.0	0.0	143.2	61.2
=	0.0	0.0	143.6	61.1
=	0.0	0.0	144.0	61.0
=	0.0	0.0	144.4	60.9
=	0.0	0.0	144.8	60.8
=	0.0	0.0	145.3	60.7
=	0.0	0.0	145.7	60.6
=	0.0	0.0	146.0	60.4
=	0.0	0.0	146.4	60.3
=	0.0	0.0	146.7	60.2
=	0.0	0.0	147.0	60.2
=	0.0	0.0	147.3	60.1
=	0.0	0.0	147.6	60.1
=	0.0	0.0	147.9	59.9
=	0.0	0.0	148.3	59.8
=	0.0	0.0	148.7	59.7
=	0.0	0.0	149.1	59.6
=	0.0	0.0	149.5	59.5
=	0.0	0.0	149.8	59.4
=	0.0	0.0	150.1	59.2
=	0.0	0.0	150.6	59.1
=	0.0	0.0	151.0	59.0
=	0.0	0.0	151.4	58.9
=	0.0	0.0	151.8	58.7
=	0.0	0.0	152.2	58.6
=	0.0	0.0	152.6	58.5
=	0.0	0.0	153.0	58.4
=	0.0	0.0	153.4	58.3
=	0.0	0.0	153.8	58.2
=	0.0	0.0	154.2	58.1
=	0.0	0.0	154.6	57.9
=	0.0	0.0	155.0	57.9
=	0.0	0.0	155.5	57.8
=	0.0	0.0	155.9	57.6
=	0.0	0.0	156.3	57.5
=	0.0	0.0	156.7	57.4
=	0.0	0.0	157.1	57.3
=	0.0	0.0	157.5	57.2
=	0.0	0.0	157.9	57.1
=	0.0	0.0	158.3	57.0
=	0.0	0.0	158.6	56.9
=	0.0	0.0	159.0	56.8
=	0.0	0.0	159.4	56.7
=	0.0	0.0	159.8	56.7
=	0.0	0.0	160.2	56.6
=	0.0	0.0	160.6	56.5
=	0.0	0.0	161.0	56.3
=	0.0	0.0	161.4	56.2
=	0.0	0.0	161.8	56.1
=	0.0	0.0	162.3	56.0
=	0.0	0.0	162.7	55.9
=	0.0	0.0	163.1	55.8
=	0.0	0.0	163.5	55.7
=	0.0	0.0	163.9	55.6
=	0.0	0.0	164.3	55.5
=	0.0	0.0	164.7	55.4
=	0.0	0.0	165.1	55.2
=	0.0	0.0	165.5	55.1
=	0.0	0.0	165.9	55.0
=	0.0	0.0	166.3	54.9
=	0.0	0.0	166.7	54.8
=	0.0	0.0	167.2	54.7
=	0.0	0.0	167.6	54.6
=	0.0	0.0	168.0	54.5
=	0.0	0.0	168.4	54.5
=	0.0	0.0	168.6	54.4
=	0.0	0.0	169.1	54.3
=	0.0	0.0	169.5	54.1
=	0.0	0.0	169.8	54.0
=	0.0	0.0	170.2	53.9
=	0.0	0.0	170.6	53.8
=	0.0	0.0	171.0	53.7
=	0.0	0.0	171.5	53.6
=	0.0	0.0	171.9	53.5
=	0.0	0.0	172.2	53.4
=	0.0	0.0	172.5	53.4
=	0.0	0.0	172.9	53.2
=	0.0	0.0	173.3	53.2
=	0.0	0.0	173.8	53.0
=	0.0	0.0	174.2	52.9
=	0.0	0.0	174.5	52.8
=	0.0	0.0	175.0	52.7
=	0.0	0.0	175.4	52.7
=	0.0	0.0	175.8	52.6
=	0.0	0.0	176.2	52.5
=	0.0	0.0	176.6	52.4
=	0.0	0.0	177.0	52.3
=	0.0	0.0	177.4	52.2
=	0.0	0.0	177.8	52.2
=	0.0	0.0	178.2	52.1
=	0.0	0.0	178.7	51.9
=	0.0	0.0	179.1	51.8
=	0.0	0.0	179.5	51.7
=	0.0	0.0	179.9	51.6
=	0.0	0.0	180.3	51.5
=	0.0	0.0	180.7	51.4
=	0.0	0.0	181.1	51.3
=	0.0	0.0	181.5	51.3
=	0.0	0.0	181.9	51.2
=	0.0	0.0	182.3	51.1
=	0.0	0.0	182.8	51.0
=	0.0	0.0	183.2	50.8
=	0.0	0.0	183.6	50.8
=	0.0	0.0	184.0	50.7
=	0.0	0.0	184.4	50.6
=	0.0	0.0	184.8	50.6
