:MSR 	5	 # No. of measurement in file
:SYS BDS 0   # Beam Data Scanner System
#
# RFA300 ASCII Measurement Dump ( BDS format )
#
# Measurement number 	1
#
%VNR 1.0
%MOD 	RAT
%TYP 	SCN
%SCN 	DIA
%FLD 	ION
%DAT 	10-13-2011
%TIM 	12:00:00
%FSZ 	400	400
%BMT 	PHO	   15.0
%SSD 	1000
%BUP 	0
%BRD 	1000
%FSH 	1
%ASC 	0
%WEG 	0
%GPO 	0
%CPO 	0
%MEA 	2
%PRD 	30,0
%PTS 	811
%STS 	    255.7	  -255.7	   30.0 # Start Scan values in mm ( X , Y , Z )
%EDS 	    -255.3	   255.3	   30.0 # End Scan values in mm ( X , Y , Z )
#
#	  X      Y      Z     Dose
#
=	255.7	-255.7	30.0	1.7
=	255.2	-255.2	30.0	1.8
=	254.7	-254.7	30.0	1.8
=	254.0	-254.0	30.0	1.8
=	253.5	-253.5	30.0	1.8
=	253.0	-253.0	30.0	1.8
=	252.3	-252.3	30.0	1.8
=	251.5	-251.5	30.0	1.9
=	250.8	-250.8	30.0	1.9
=	250.1	-250.1	30.0	1.9
=	249.4	-249.4	30.0	1.9
=	248.8	-248.8	30.0	2.0
=	248.1	-248.1	30.0	2.0
=	247.4	-247.4	30.0	2.0
=	246.7	-246.7	30.0	2.0
=	246.1	-246.1	30.0	2.1
=	245.3	-245.3	30.0	2.1
=	244.7	-244.7	30.0	2.1
=	243.9	-243.9	30.0	2.2
=	243.2	-243.2	30.0	2.2
=	242.6	-242.6	30.0	2.2
=	241.9	-241.9	30.0	2.3
=	241.2	-241.2	30.0	2.3
=	240.5	-240.5	30.0	2.3
=	239.8	-239.8	30.0	2.4
=	239.1	-239.1	30.0	2.4
=	238.5	-238.5	30.0	2.4
=	237.8	-237.8	30.0	2.5
=	237.1	-237.1	30.0	2.5
=	236.4	-236.4	30.0	2.6
=	235.8	-235.8	30.0	2.6
=	235.3	-235.3	30.0	2.7
=	234.6	-234.6	30.0	2.7
=	233.9	-233.9	30.0	2.8
=	233.2	-233.2	30.0	2.8
=	232.5	-232.5	30.0	2.9
=	231.7	-231.7	30.0	2.9
=	231.0	-231.0	30.0	3.0
=	230.3	-230.3	30.0	3.0
=	229.6	-229.6	30.0	3.1
=	228.9	-228.9	30.0	3.2
=	228.2	-228.2	30.0	3.2
=	227.4	-227.4	30.0	3.3
=	226.7	-226.7	30.0	3.4
=	226.0	-226.0	30.0	3.4
=	225.4	-225.4	30.0	3.5
=	224.7	-224.7	30.0	3.6
=	224.0	-224.0	30.0	3.6
=	223.3	-223.3	30.0	3.7
=	222.7	-222.7	30.0	3.7
=	222.0	-222.0	30.0	3.8
=	221.3	-221.3	30.0	3.9
=	220.6	-220.6	30.0	4.0
=	219.8	-219.8	30.0	4.1
=	219.1	-219.1	30.0	4.2
=	218.5	-218.5	30.0	4.3
=	217.9	-217.9	30.0	4.3
=	217.4	-217.4	30.0	4.4
=	216.9	-216.9	30.0	4.5
=	216.2	-216.2	30.0	4.5
=	215.7	-215.7	30.0	4.6
=	215.1	-215.1	30.0	4.7
=	214.4	-214.4	30.0	4.8
=	213.7	-213.7	30.0	4.9
=	213.1	-213.1	30.0	5.0
=	212.5	-212.5	30.0	5.1
=	212.0	-212.0	30.0	5.1
=	211.4	-211.4	30.0	5.2
=	210.8	-210.8	30.0	5.3
=	210.2	-210.2	30.0	5.4
=	209.6	-209.6	30.0	5.5
=	209.0	-209.0	30.0	5.6
=	208.4	-208.4	30.0	5.7
=	207.8	-207.8	30.0	5.8
=	207.0	-207.0	30.0	5.9
=	206.3	-206.3	30.0	6.0
=	205.6	-205.6	30.0	6.2
=	205.0	-205.0	30.0	6.3
=	204.3	-204.3	30.0	6.4
=	203.6	-203.6	30.0	6.6
=	202.9	-202.9	30.0	6.7
=	202.3	-202.3	30.0	6.8
=	201.6	-201.6	30.0	7.0
=	201.0	-201.0	30.0	7.1
=	200.3	-200.3	30.0	7.3
=	199.7	-199.7	30.0	7.4
=	199.0	-199.0	30.0	7.6
=	198.5	-198.5	30.0	7.7
=	197.9	-197.9	30.0	7.9
=	197.1	-197.1	30.0	8.1
=	196.4	-196.4	30.0	8.3
=	195.7	-195.7	30.0	8.5
=	195.0	-195.0	30.0	8.7
=	194.3	-194.3	30.0	9.0
=	193.5	-193.5	30.0	9.4
=	192.9	-192.9	30.0	9.7
=	192.2	-192.2	30.0	10.1
=	191.5	-191.5	30.0	10.7
=	190.8	-190.8	30.0	11.3
=	190.1	-190.1	30.0	12.1
=	189.4	-189.4	30.0	13.1
=	188.7	-188.7	30.0	14.5
=	187.9	-187.9	30.0	16.1
=	187.3	-187.3	30.0	18.2
=	186.6	-186.6	30.0	20.6
=	185.9	-185.9	30.0	23.9
=	185.4	-185.4	30.0	27.0
=	184.9	-184.9	30.0	30.4
=	184.2	-184.2	30.0	35.8
=	183.5	-183.5	30.0	41.9
=	183.0	-183.0	30.0	47.0
=	182.3	-182.3	30.0	53.2
=	181.6	-181.6	30.0	59.7
=	181.1	-181.1	30.0	64.3
=	180.6	-180.6	30.0	68.3
=	180.1	-180.1	30.0	71.8
=	179.5	-179.5	30.0	74.7
=	179.1	-179.1	30.0	76.8
=	178.6	-178.6	30.0	78.5
=	178.0	-178.0	30.0	80.1
=	177.4	-177.4	30.0	81.4
=	176.8	-176.8	30.0	82.4
=	176.2	-176.2	30.0	83.2
=	175.8	-175.8	30.0	83.9
=	175.3	-175.3	30.0	84.6
=	174.7	-174.7	30.0	85.4
=	174.1	-174.1	30.0	86.2
=	173.6	-173.6	30.0	86.8
=	173.0	-173.0	30.0	87.7
=	172.3	-172.3	30.0	88.7
=	171.8	-171.8	30.0	89.5
=	171.3	-171.3	30.0	90.4
=	170.7	-170.7	30.0	91.5
=	170.0	-170.0	30.0	92.7
=	169.4	-169.4	30.0	93.9
=	168.9	-168.9	30.0	94.8
=	168.4	-168.4	30.0	95.8
=	168.0	-168.0	30.0	96.6
=	167.3	-167.3	30.0	97.8
=	166.7	-166.7	30.0	98.8
=	166.1	-166.1	30.0	99.9
=	165.6	-165.6	30.0	100.6
=	165.1	-165.1	30.0	101.3
=	164.6	-164.6	30.0	102.0
=	163.9	-163.9	30.0	102.8
=	163.2	-163.2	30.0	103.4
=	162.6	-162.6	30.0	103.9
=	162.0	-162.0	30.0	104.4
=	161.3	-161.3	30.0	104.8
=	160.6	-160.6	30.0	105.2
=	159.9	-159.9	30.0	105.5
=	159.2	-159.2	30.0	105.9
=	158.6	-158.6	30.0	106.1
=	158.1	-158.1	30.0	106.3
=	157.6	-157.6	30.0	106.4
=	157.0	-157.0	30.0	106.5
=	156.5	-156.5	30.0	106.6
=	156.0	-156.0	30.0	106.6
=	155.5	-155.5	30.0	106.7
=	154.9	-154.9	30.0	106.7
=	154.4	-154.4	30.0	106.7
=	153.9	-153.9	30.0	106.7
=	153.4	-153.4	30.0	106.7
=	152.7	-152.7	30.0	106.6
=	152.0	-152.0	30.0	106.5
=	151.3	-151.3	30.0	106.5
=	150.6	-150.6	30.0	106.4
=	149.9	-149.9	30.0	106.3
=	149.2	-149.2	30.0	106.2
=	148.5	-148.5	30.0	106.2
=	147.8	-147.8	30.0	106.1
=	147.1	-147.1	30.0	106.1
=	146.5	-146.5	30.0	106.0
=	145.8	-145.8	30.0	106.0
=	145.1	-145.1	30.0	105.9
=	144.4	-144.4	30.0	105.9
=	143.9	-143.9	30.0	105.9
=	143.3	-143.3	30.0	105.9
=	142.6	-142.6	30.0	105.9
=	142.0	-142.0	30.0	105.9
=	141.3	-141.3	30.0	105.9
=	140.7	-140.7	30.0	105.9
=	140.0	-140.0	30.0	105.9
=	139.3	-139.3	30.0	105.9
=	138.6	-138.6	30.0	105.9
=	137.9	-137.9	30.0	106.0
=	137.2	-137.2	30.0	106.1
=	136.5	-136.5	30.0	106.1
=	135.7	-135.7	30.0	106.2
=	135.0	-135.0	30.0	106.3
=	134.4	-134.4	30.0	106.4
=	133.7	-133.7	30.0	106.4
=	133.0	-133.0	30.0	106.5
=	132.3	-132.3	30.0	106.5
=	131.7	-131.7	30.0	106.4
=	131.3	-131.3	30.0	106.4
=	130.7	-130.7	30.0	106.4
=	130.2	-130.2	30.0	106.4
=	129.6	-129.6	30.0	106.3
=	129.0	-129.0	30.0	106.3
=	128.5	-128.5	30.0	106.2
=	128.0	-128.0	30.0	106.2
=	127.4	-127.4	30.0	106.1
=	127.0	-127.0	30.0	106.1
=	126.5	-126.5	30.0	106.0
=	125.9	-125.9	30.0	105.9
=	125.2	-125.2	30.0	105.8
=	124.6	-124.6	30.0	105.8
=	123.9	-123.9	30.0	105.8
=	123.1	-123.1	30.0	105.7
=	122.4	-122.4	30.0	105.7
=	121.7	-121.7	30.0	105.8
=	121.0	-121.0	30.0	105.8
=	120.4	-120.4	30.0	105.8
=	119.7	-119.7	30.0	105.9
=	119.1	-119.1	30.0	105.9
=	118.5	-118.5	30.0	105.9
=	117.9	-117.9	30.0	105.9
=	117.3	-117.3	30.0	106.0
=	116.7	-116.7	30.0	106.0
=	116.2	-116.2	30.0	106.1
=	115.6	-115.6	30.0	106.1
=	115.0	-115.0	30.0	106.1
=	114.3	-114.3	30.0	106.1
=	113.7	-113.7	30.0	106.1
=	113.0	-113.0	30.0	106.1
=	112.4	-112.4	30.0	106.1
=	111.8	-111.8	30.0	106.1
=	111.2	-111.2	30.0	106.1
=	110.8	-110.8	30.0	106.1
=	110.2	-110.2	30.0	106.1
=	109.6	-109.6	30.0	106.1
=	108.9	-108.9	30.0	106.1
=	108.2	-108.2	30.0	106.1
=	107.5	-107.5	30.0	106.0
=	106.8	-106.8	30.0	106.0
=	106.0	-106.0	30.0	106.0
=	105.4	-105.4	30.0	106.0
=	104.7	-104.7	30.0	105.9
=	104.0	-104.0	30.0	105.9
=	103.3	-103.3	30.0	105.8
=	102.6	-102.6	30.0	105.8
=	101.9	-101.9	30.0	105.8
=	101.2	-101.2	30.0	105.7
=	100.6	-100.6	30.0	105.7
=	99.8	-99.8	30.0	105.6
=	99.1	-99.1	30.0	105.6
=	98.5	-98.5	30.0	105.6
=	98.0	-98.0	30.0	105.6
=	97.6	-97.6	30.0	105.6
=	97.1	-97.1	30.0	105.6
=	96.5	-96.5	30.0	105.6
=	95.9	-95.9	30.0	105.6
=	95.4	-95.4	30.0	105.6
=	94.9	-94.9	30.0	105.6
=	94.2	-94.2	30.0	105.6
=	93.6	-93.6	30.0	105.6
=	93.1	-93.1	30.0	105.6
=	92.6	-92.6	30.0	105.6
=	92.1	-92.1	30.0	105.6
=	91.5	-91.5	30.0	105.6
=	91.0	-91.0	30.0	105.6
=	90.4	-90.4	30.0	105.6
=	89.8	-89.8	30.0	105.6
=	89.2	-89.2	30.0	105.6
=	88.6	-88.6	30.0	105.6
=	87.9	-87.9	30.0	105.5
=	87.2	-87.2	30.0	105.5
=	86.5	-86.5	30.0	105.5
=	85.8	-85.8	30.0	105.5
=	85.0	-85.0	30.0	105.4
=	84.4	-84.4	30.0	105.4
=	83.8	-83.8	30.0	105.4
=	83.3	-83.3	30.0	105.4
=	82.8	-82.8	30.0	105.4
=	82.4	-82.4	30.0	105.4
=	81.9	-81.9	30.0	105.4
=	81.3	-81.3	30.0	105.4
=	80.6	-80.6	30.0	105.4
=	80.2	-80.2	30.0	105.4
=	79.7	-79.7	30.0	105.3
=	79.1	-79.1	30.0	105.3
=	78.5	-78.5	30.0	105.3
=	77.8	-77.8	30.0	105.2
=	77.1	-77.1	30.0	105.2
=	76.4	-76.4	30.0	105.1
=	75.7	-75.7	30.0	105.0
=	75.0	-75.0	30.0	104.9
=	74.4	-74.4	30.0	104.9
=	73.7	-73.7	30.0	104.8
=	73.0	-73.0	30.0	104.7
=	72.3	-72.3	30.0	104.6
=	71.7	-71.7	30.0	104.5
=	71.0	-71.0	30.0	104.4
=	70.2	-70.2	30.0	104.4
=	69.5	-69.5	30.0	104.4
=	68.9	-68.9	30.0	104.4
=	68.4	-68.4	30.0	104.4
=	67.9	-67.9	30.0	104.4
=	67.3	-67.3	30.0	104.4
=	66.8	-66.8	30.0	104.4
=	66.3	-66.3	30.0	104.4
=	65.6	-65.6	30.0	104.4
=	64.9	-64.9	30.0	104.4
=	64.3	-64.3	30.0	104.5
=	63.5	-63.5	30.0	104.5
=	62.8	-62.8	30.0	104.5
=	62.1	-62.1	30.0	104.5
=	61.5	-61.5	30.0	104.5
=	60.8	-60.8	30.0	104.5
=	60.1	-60.1	30.0	104.5
=	59.4	-59.4	30.0	104.5
=	58.8	-58.8	30.0	104.4
=	58.2	-58.2	30.0	104.4
=	57.5	-57.5	30.0	104.4
=	57.0	-57.0	30.0	104.4
=	56.4	-56.4	30.0	104.4
=	55.8	-55.8	30.0	104.3
=	55.2	-55.2	30.0	104.3
=	54.6	-54.6	30.0	104.3
=	54.0	-54.0	30.0	104.3
=	53.6	-53.6	30.0	104.3
=	53.1	-53.1	30.0	104.3
=	52.6	-52.6	30.0	104.3
=	52.1	-52.1	30.0	104.3
=	51.6	-51.6	30.0	104.3
=	51.1	-51.1	30.0	104.3
=	50.4	-50.4	30.0	104.3
=	49.6	-49.6	30.0	104.3
=	48.9	-48.9	30.0	104.3
=	48.2	-48.2	30.0	104.3
=	47.7	-47.7	30.0	104.3
=	47.0	-47.0	30.0	104.2
=	46.3	-46.3	30.0	104.2
=	45.6	-45.6	30.0	104.2
=	44.9	-44.9	30.0	104.2
=	44.2	-44.2	30.0	104.2
=	43.4	-43.4	30.0	104.2
=	42.9	-42.9	30.0	104.2
=	42.4	-42.4	30.0	104.2
=	41.8	-41.8	30.0	104.2
=	41.1	-41.1	30.0	104.1
=	40.4	-40.4	30.0	104.1
=	39.9	-39.9	30.0	104.1
=	39.2	-39.2	30.0	104.1
=	38.6	-38.6	30.0	104.1
=	38.1	-38.1	30.0	104.0
=	37.5	-37.5	30.0	104.0
=	36.9	-36.9	30.0	103.9
=	36.3	-36.3	30.0	103.9
=	35.6	-35.6	30.0	103.9
=	34.9	-34.9	30.0	103.8
=	34.1	-34.1	30.0	103.8
=	33.4	-33.4	30.0	103.7
=	32.7	-32.7	30.0	103.7
=	32.0	-32.0	30.0	103.6
=	31.5	-31.5	30.0	103.5
=	31.0	-31.0	30.0	103.5
=	30.4	-30.4	30.0	103.5
=	29.7	-29.7	30.0	103.4
=	29.1	-29.1	30.0	103.3
=	28.4	-28.4	30.0	103.3
=	27.7	-27.7	30.0	103.2
=	27.1	-27.1	30.0	103.2
=	26.5	-26.5	30.0	103.1
=	25.8	-25.8	30.0	103.0
=	25.1	-25.1	30.0	103.0
=	24.5	-24.5	30.0	102.9
=	23.9	-23.9	30.0	102.9
=	23.3	-23.3	30.0	102.8
=	22.8	-22.8	30.0	102.8
=	22.2	-22.2	30.0	102.7
=	21.7	-21.7	30.0	102.7
=	21.1	-21.1	30.0	102.6
=	20.4	-20.4	30.0	102.5
=	19.6	-19.6	30.0	102.4
=	18.9	-18.9	30.0	102.3
=	18.2	-18.2	30.0	102.1
=	17.5	-17.5	30.0	101.9
=	16.8	-16.8	30.0	101.8
=	16.1	-16.1	30.0	101.7
=	15.3	-15.3	30.0	101.6
=	14.7	-14.7	30.0	101.5
=	14.0	-14.0	30.0	101.3
=	13.3	-13.3	30.0	101.2
=	12.7	-12.7	30.0	101.2
=	12.1	-12.1	30.0	101.1
=	11.6	-11.6	30.0	101.0
=	11.0	-11.0	30.0	100.9
=	10.4	-10.4	30.0	100.8
=	9.7	-9.7	30.0	100.7
=	9.0	-9.0	30.0	100.6
=	8.4	-8.4	30.0	100.6
=	7.8	-7.8	30.0	100.5
=	7.4	-7.4	30.0	100.5
=	6.7	-6.7	30.0	100.4
=	6.0	-6.0	30.0	100.3
=	5.5	-5.5	30.0	100.3
=	4.9	-4.9	30.0	100.2
=	4.2	-4.2	30.0	100.1
=	3.7	-3.7	30.0	100.1
=	3.0	-3.0	30.0	100.1
=	2.3	-2.3	30.0	100.1
=	1.8	-1.8	30.0	100.0
=	1.1	-1.1	30.0	100.0
=	0.1	-0.1	30.0	100.0
=	-0.5	0.5	30.0	100.0
=	-1.3	1.3	30.0	100.0
=	-1.9	1.9	30.0	100.0
=	-2.4	2.4	30.0	100.1
=	-3.1	3.1	30.0	100.1
=	-3.8	3.8	30.0	100.1
=	-4.4	4.4	30.0	100.1
=	-5.0	5.0	30.0	100.2
=	-5.6	5.6	30.0	100.3
=	-6.2	6.2	30.0	100.3
=	-6.9	6.9	30.0	100.4
=	-7.5	7.5	30.0	100.5
=	-8.0	8.0	30.0	100.6
=	-8.5	8.5	30.0	100.6
=	-9.1	9.1	30.0	100.7
=	-9.8	9.8	30.0	100.7
=	-10.5	10.5	30.0	100.8
=	-11.1	11.1	30.0	100.9
=	-11.7	11.7	30.0	101.0
=	-12.2	12.2	30.0	101.1
=	-12.8	12.8	30.0	101.2
=	-13.4	13.4	30.0	101.2
=	-14.2	14.2	30.0	101.4
=	-14.9	14.9	30.0	101.5
=	-15.5	15.5	30.0	101.6
=	-16.2	16.2	30.0	101.7
=	-16.9	16.9	30.0	101.9
=	-17.6	17.6	30.0	102.0
=	-18.4	18.4	30.0	102.2
=	-19.1	19.1	30.0	102.3
=	-19.8	19.8	30.0	102.4
=	-20.5	20.5	30.0	102.5
=	-21.2	21.2	30.0	102.6
=	-21.8	21.8	30.0	102.7
=	-22.3	22.3	30.0	102.7
=	-22.9	22.9	30.0	102.8
=	-23.4	23.4	30.0	102.8
=	-24.1	24.1	30.0	102.9
=	-24.6	24.6	30.0	102.9
=	-25.2	25.2	30.0	103.0
=	-25.9	25.9	30.0	103.0
=	-26.6	26.6	30.0	103.1
=	-27.2	27.2	30.0	103.2
=	-27.8	27.8	30.0	103.2
=	-28.5	28.5	30.0	103.3
=	-29.2	29.2	30.0	103.4
=	-29.8	29.8	30.0	103.4
=	-30.5	30.5	30.0	103.5
=	-31.1	31.1	30.0	103.5
=	-31.6	31.6	30.0	103.5
=	-32.2	32.2	30.0	103.6
=	-32.9	32.9	30.0	103.7
=	-33.6	33.6	30.0	103.7
=	-34.3	34.3	30.0	103.8
=	-35.0	35.0	30.0	103.8
=	-35.7	35.7	30.0	103.9
=	-36.4	36.4	30.0	103.9
=	-37.0	37.0	30.0	103.9
=	-37.6	37.6	30.0	104.0
=	-38.2	38.2	30.0	104.0
=	-38.7	38.7	30.0	104.1
=	-39.4	39.4	30.0	104.1
=	-40.0	40.0	30.0	104.1
=	-40.6	40.6	30.0	104.1
=	-41.3	41.3	30.0	104.1
=	-41.9	41.9	30.0	104.2
=	-42.5	42.5	30.0	104.2
=	-43.0	43.0	30.0	104.2
=	-43.6	43.6	30.0	104.2
=	-44.3	44.3	30.0	104.2
=	-45.0	45.0	30.0	104.2
=	-45.7	45.7	30.0	104.2
=	-46.5	46.5	30.0	104.2
=	-47.2	47.2	30.0	104.2
=	-47.8	47.8	30.0	104.3
=	-48.4	48.4	30.0	104.3
=	-49.1	49.1	30.0	104.3
=	-49.8	49.8	30.0	104.3
=	-50.5	50.5	30.0	104.3
=	-51.2	51.2	30.0	104.3
=	-51.7	51.7	30.0	104.3
=	-52.2	52.2	30.0	104.3
=	-52.6	52.6	30.0	104.3
=	-53.2	53.2	30.0	104.3
=	-53.6	53.6	30.0	104.3
=	-54.1	54.1	30.0	104.3
=	-54.7	54.7	30.0	104.3
=	-55.3	55.3	30.0	104.3
=	-55.9	55.9	30.0	104.3
=	-56.5	56.5	30.0	104.4
=	-57.1	57.1	30.0	104.4
=	-57.6	57.6	30.0	104.4
=	-58.4	58.4	30.0	104.4
=	-58.9	58.9	30.0	104.4
=	-59.5	59.5	30.0	104.5
=	-60.2	60.2	30.0	104.5
=	-61.0	61.0	30.0	104.5
=	-61.6	61.6	30.0	104.5
=	-62.3	62.3	30.0	104.5
=	-63.0	63.0	30.0	104.5
=	-63.7	63.7	30.0	104.5
=	-64.4	64.4	30.0	104.5
=	-65.0	65.0	30.0	104.4
=	-65.7	65.7	30.0	104.4
=	-66.4	66.4	30.0	104.4
=	-66.9	66.9	30.0	104.4
=	-67.4	67.4	30.0	104.4
=	-68.0	68.0	30.0	104.4
=	-68.5	68.5	30.0	104.4
=	-69.0	69.0	30.0	104.4
=	-69.7	69.7	30.0	104.4
=	-70.4	70.4	30.0	104.4
=	-71.1	71.1	30.0	104.4
=	-71.8	71.8	30.0	104.5
=	-72.4	72.4	30.0	104.6
=	-73.1	73.1	30.0	104.7
=	-73.9	73.9	30.0	104.8
=	-74.5	74.5	30.0	104.9
=	-75.2	75.2	30.0	105.0
=	-75.9	75.9	30.0	105.0
=	-76.6	76.6	30.0	105.1
=	-77.3	77.3	30.0	105.2
=	-77.9	77.9	30.0	105.2
=	-78.6	78.6	30.0	105.3
=	-79.3	79.3	30.0	105.3
=	-79.9	79.9	30.0	105.4
=	-80.3	80.3	30.0	105.4
=	-80.8	80.8	30.0	105.4
=	-81.4	81.4	30.0	105.4
=	-82.0	82.0	30.0	105.4
=	-82.5	82.5	30.0	105.4
=	-82.9	82.9	30.0	105.4
=	-83.4	83.4	30.0	105.4
=	-83.9	83.9	30.0	105.4
=	-84.5	84.5	30.0	105.4
=	-85.2	85.2	30.0	105.4
=	-85.9	85.9	30.0	105.5
=	-86.6	86.6	30.0	105.5
=	-87.3	87.3	30.0	105.5
=	-88.1	88.1	30.0	105.5
=	-88.7	88.7	30.0	105.6
=	-89.3	89.3	30.0	105.6
=	-89.9	89.9	30.0	105.6
=	-90.5	90.5	30.0	105.6
=	-91.1	91.1	30.0	105.6
=	-91.6	91.6	30.0	105.6
=	-92.2	92.2	30.0	105.6
=	-92.7	92.7	30.0	105.6
=	-93.2	93.2	30.0	105.6
=	-93.7	93.7	30.0	105.6
=	-94.3	94.3	30.0	105.6
=	-95.0	95.0	30.0	105.6
=	-95.5	95.5	30.0	105.6
=	-96.0	96.0	30.0	105.6
=	-96.6	96.6	30.0	105.6
=	-97.2	97.2	30.0	105.6
=	-97.7	97.7	30.0	105.6
=	-98.1	98.1	30.0	105.6
=	-98.6	98.6	30.0	105.6
=	-99.3	99.3	30.0	105.6
=	-100.0	100.0	30.0	105.6
=	-100.7	100.7	30.0	105.7
=	-101.3	101.3	30.0	105.8
=	-102.0	102.0	30.0	105.8
=	-102.7	102.7	30.0	105.8
=	-103.5	103.5	30.0	105.8
=	-104.2	104.2	30.0	105.9
=	-104.9	104.9	30.0	105.9
=	-105.5	105.5	30.0	106.0
=	-106.2	106.2	30.0	106.0
=	-106.9	106.9	30.0	106.0
=	-107.6	107.6	30.0	106.0
=	-108.3	108.3	30.0	106.1
=	-109.1	109.1	30.0	106.1
=	-109.7	109.7	30.0	106.1
=	-110.3	110.3	30.0	106.1
=	-110.9	110.9	30.0	106.1
=	-111.3	111.3	30.0	106.1
=	-111.9	111.9	30.0	106.1
=	-112.5	112.5	30.0	106.1
=	-113.1	113.1	30.0	106.1
=	-113.8	113.8	30.0	106.1
=	-114.4	114.4	30.0	106.1
=	-115.1	115.1	30.0	106.1
=	-115.7	115.7	30.0	106.1
=	-116.3	116.3	30.0	106.0
=	-116.8	116.8	30.0	106.0
=	-117.5	117.5	30.0	106.0
=	-118.0	118.0	30.0	105.9
=	-118.6	118.6	30.0	105.9
=	-119.2	119.2	30.0	105.9
=	-119.8	119.8	30.0	105.9
=	-120.5	120.5	30.0	105.8
=	-121.1	121.1	30.0	105.8
=	-121.8	121.8	30.0	105.8
=	-122.5	122.5	30.0	105.7
=	-123.3	123.3	30.0	105.7
=	-124.0	124.0	30.0	105.8
=	-124.7	124.7	30.0	105.8
=	-125.3	125.3	30.0	105.8
=	-126.0	126.0	30.0	105.9
=	-126.6	126.6	30.0	106.0
=	-127.1	127.1	30.0	106.1
=	-127.5	127.5	30.0	106.1
=	-128.1	128.1	30.0	106.2
=	-128.6	128.6	30.0	106.2
=	-129.1	129.1	30.0	106.3
=	-129.7	129.7	30.0	106.3
=	-130.3	130.3	30.0	106.4
=	-130.8	130.8	30.0	106.4
=	-131.4	131.4	30.0	106.4
=	-131.9	131.9	30.0	106.4
=	-132.4	132.4	30.0	106.5
=	-133.1	133.1	30.0	106.5
=	-133.9	133.9	30.0	106.4
=	-134.5	134.5	30.0	106.4
=	-135.2	135.2	30.0	106.3
=	-135.9	135.9	30.0	106.2
=	-136.6	136.6	30.0	106.1
=	-137.3	137.3	30.0	106.1
=	-138.1	138.1	30.0	106.0
=	-138.8	138.8	30.0	105.9
=	-139.5	139.5	30.0	105.9
=	-140.2	140.2	30.0	105.9
=	-140.9	140.9	30.0	105.9
=	-141.5	141.5	30.0	105.9
=	-142.1	142.1	30.0	105.9
=	-142.7	142.7	30.0	105.9
=	-143.4	143.4	30.0	105.9
=	-144.0	144.0	30.0	105.9
=	-144.5	144.5	30.0	105.9
=	-145.2	145.2	30.0	105.9
=	-145.9	145.9	30.0	106.0
=	-146.6	146.6	30.0	106.0
=	-147.2	147.2	30.0	106.1
=	-147.9	147.9	30.0	106.1
=	-148.6	148.6	30.0	106.2
=	-149.4	149.4	30.0	106.3
=	-150.1	150.1	30.0	106.3
=	-150.7	150.7	30.0	106.4
=	-151.4	151.4	30.0	106.5
=	-152.1	152.1	30.0	106.6
=	-152.8	152.8	30.0	106.6
=	-153.5	153.5	30.0	106.7
=	-154.0	154.0	30.0	106.7
=	-154.5	154.5	30.0	106.7
=	-155.1	155.1	30.0	106.7
=	-155.6	155.6	30.0	106.7
=	-156.1	156.1	30.0	106.6
=	-156.6	156.6	30.0	106.6
=	-157.1	157.1	30.0	106.5
=	-157.7	157.7	30.0	106.4
=	-158.2	158.2	30.0	106.2
=	-158.7	158.7	30.0	106.1
=	-159.3	159.3	30.0	105.8
=	-160.0	160.0	30.0	105.5
=	-160.7	160.7	30.0	105.2
=	-161.4	161.4	30.0	104.7
=	-162.1	162.1	30.0	104.3
=	-162.7	162.7	30.0	103.8
=	-163.3	163.3	30.0	103.3
=	-164.0	164.0	30.0	102.6
=	-164.7	164.7	30.0	101.9
=	-165.2	165.2	30.0	101.1
=	-165.7	165.7	30.0	100.5
=	-166.2	166.2	30.0	99.7
=	-166.8	166.8	30.0	98.6
=	-167.5	167.5	30.0	97.5
=	-168.0	168.0	30.0	96.5
=	-168.5	168.5	30.0	95.6
=	-169.0	169.0	30.0	94.6
=	-169.5	169.5	30.0	93.7
=	-170.1	170.1	30.0	92.4
=	-170.8	170.8	30.0	91.3
=	-171.4	171.4	30.0	90.2
=	-171.9	171.9	30.0	89.4
=	-172.4	172.4	30.0	88.5
=	-173.1	173.1	30.0	87.5
=	-173.7	173.7	30.0	86.7
=	-174.2	174.2	30.0	86.1
=	-174.8	174.8	30.0	85.2
=	-175.4	175.4	30.0	84.5
=	-175.9	175.9	30.0	83.8
=	-176.3	176.3	30.0	83.1
=	-176.9	176.9	30.0	82.2
=	-177.5	177.5	30.0	81.2
=	-178.1	178.1	30.0	79.8
=	-178.7	178.7	30.0	78.2
=	-179.1	179.1	30.0	76.4
=	-179.6	179.6	30.0	74.2
=	-180.2	180.2	30.0	71.2
=	-180.7	180.7	30.0	67.4
=	-181.2	181.2	30.0	63.6
=	-181.8	181.8	30.0	58.5
=	-182.5	182.5	30.0	51.9
=	-183.1	183.1	30.0	46.1
=	-183.6	183.6	30.0	40.7
=	-184.3	184.3	30.0	34.5
=	-185.0	185.0	30.0	29.6
=	-185.5	185.5	30.0	26.5
=	-186.1	186.1	30.0	23.2
=	-186.8	186.8	30.0	20.0
=	-187.4	187.4	30.0	17.8
=	-188.1	188.1	30.0	15.8
=	-188.8	188.8	30.0	14.2
=	-189.5	189.5	30.0	12.9
=	-190.2	190.2	30.0	11.9
=	-191.0	191.0	30.0	11.2
=	-191.7	191.7	30.0	10.5
=	-192.4	192.4	30.0	10.0
=	-193.0	193.0	30.0	9.7
=	-193.7	193.7	30.0	9.3
=	-194.4	194.4	30.0	9.0
=	-195.1	195.1	30.0	8.7
=	-195.8	195.8	30.0	8.5
=	-196.6	196.6	30.0	8.2
=	-197.3	197.3	30.0	8.0
=	-198.0	198.0	30.0	7.8
=	-198.6	198.6	30.0	7.7
=	-199.1	199.1	30.0	7.5
=	-199.9	199.9	30.0	7.4
=	-200.5	200.5	30.0	7.3
=	-201.1	201.1	30.0	7.1
=	-201.7	201.7	30.0	7.0
=	-202.4	202.4	30.0	6.8
=	-203.0	203.0	30.0	6.7
=	-203.7	203.7	30.0	6.6
=	-204.5	204.5	30.0	6.4
=	-205.2	205.2	30.0	6.2
=	-205.8	205.8	30.0	6.1
=	-206.5	206.5	30.0	6.0
=	-207.2	207.2	30.0	5.9
=	-207.9	207.9	30.0	5.8
=	-208.5	208.5	30.0	5.7
=	-209.2	209.2	30.0	5.6
=	-209.8	209.8	30.0	5.5
=	-210.3	210.3	30.0	5.4
=	-210.9	210.9	30.0	5.3
=	-211.5	211.5	30.0	5.2
=	-212.1	212.1	30.0	5.1
=	-212.7	212.7	30.0	5.0
=	-213.2	213.2	30.0	5.0
=	-213.8	213.8	30.0	4.9
=	-214.5	214.5	30.0	4.8
=	-215.2	215.2	30.0	4.7
=	-215.8	215.8	30.0	4.6
=	-216.4	216.4	30.0	4.5
=	-217.0	217.0	30.0	4.4
=	-217.5	217.5	30.0	4.4
=	-218.0	218.0	30.0	4.3
=	-218.6	218.6	30.0	4.3
=	-219.2	219.2	30.0	4.2
=	-220.0	220.0	30.0	4.1
=	-220.7	220.7	30.0	4.0
=	-221.4	221.4	30.0	3.9
=	-222.1	222.1	30.0	3.8
=	-222.8	222.8	30.0	3.7
=	-223.5	223.5	30.0	3.7
=	-224.2	224.2	30.0	3.6
=	-224.9	224.9	30.0	3.5
=	-225.5	225.5	30.0	3.5
=	-226.2	226.2	30.0	3.4
=	-226.9	226.9	30.0	3.3
=	-227.6	227.6	30.0	3.3
=	-228.3	228.3	30.0	3.2
=	-229.0	229.0	30.0	3.2
=	-229.7	229.7	30.0	3.1
=	-230.5	230.5	30.0	3.0
=	-231.2	231.2	30.0	3.0
=	-231.9	231.9	30.0	2.9
=	-232.6	232.6	30.0	2.9
=	-233.3	233.3	30.0	2.8
=	-234.0	234.0	30.0	2.7
=	-234.8	234.8	30.0	2.7
=	-235.4	235.4	30.0	2.6
=	-235.9	235.9	30.0	2.6
=	-236.5	236.5	30.0	2.6
=	-237.2	237.2	30.0	2.5
=	-237.9	237.9	30.0	2.5
=	-238.6	238.6	30.0	2.4
=	-239.2	239.2	30.0	2.4
=	-239.9	239.9	30.0	2.4
=	-240.6	240.6	30.0	2.3
=	-241.4	241.4	30.0	2.3
=	-242.1	242.1	30.0	2.3
=	-242.7	242.7	30.0	2.2
=	-243.4	243.4	30.0	2.2
=	-244.1	244.1	30.0	2.2
=	-244.8	244.8	30.0	2.1
=	-245.5	245.5	30.0	2.1
=	-246.2	246.2	30.0	2.1
=	-246.8	246.8	30.0	2.0
=	-247.5	247.5	30.0	2.0
=	-248.2	248.2	30.0	2.0
=	-249.0	249.0	30.0	2.0
=	-249.5	249.5	30.0	1.9
=	-250.3	250.3	30.0	1.9
=	-251.0	251.0	30.0	1.9
=	-251.7	251.7	30.0	1.9
=	-252.4	252.4	30.0	1.8
=	-253.1	253.1	30.0	1.8
=	-253.6	253.6	30.0	1.8
=	-254.1	254.1	30.0	1.8
=	-254.8	254.8	30.0	1.8
=	-255.3	255.3	30.0	1.8
:EOM # End of Measurement
#
# RFA300 ASCII Measurement Dump ( BDS format )
#
# Measurement number 	2
#
%VNR 1.0
%MOD 	RAT
%TYP 	SCN
%SCN 	DIA
%FLD 	ION
%DAT 	10-13-2011
%TIM 	12:00:00
%FSZ 	400	400
%BMT 	PHO	   15.0
%SSD 	1000
%BUP 	0
%BRD 	1000
%FSH 	1
%ASC 	0
%WEG 	0
%GPO 	0
%CPO 	0
%MEA 	2
%PRD 	50,0
%PTS 	817
%STS 	    259.8	  -259.8	   50.0 # Start Scan values in mm ( X , Y , Z )
%EDS 	    -259.3	   259.3	   50.0 # End Scan values in mm ( X , Y , Z )
#
#	  X      Y      Z     Dose
#
=	259.8	-259.8	50.0	1.8
=	259.2	-259.2	50.0	1.9
=	258.5	-258.5	50.0	1.9
=	257.7	-257.7	50.0	1.9
=	257.1	-257.1	50.0	1.9
=	256.5	-256.5	50.0	1.9
=	255.9	-255.9	50.0	1.9
=	255.2	-255.2	50.0	2.0
=	254.5	-254.5	50.0	2.0
=	253.9	-253.9	50.0	2.0
=	253.1	-253.1	50.0	2.0
=	252.4	-252.4	50.0	2.1
=	251.7	-251.7	50.0	2.1
=	251.0	-251.0	50.0	2.1
=	250.3	-250.3	50.0	2.1
=	249.6	-249.6	50.0	2.2
=	248.8	-248.8	50.0	2.2
=	248.1	-248.1	50.0	2.2
=	247.4	-247.4	50.0	2.3
=	246.7	-246.7	50.0	2.3
=	246.0	-246.0	50.0	2.3
=	245.4	-245.4	50.0	2.4
=	244.7	-244.7	50.0	2.4
=	243.9	-243.9	50.0	2.5
=	243.3	-243.3	50.0	2.5
=	242.7	-242.7	50.0	2.5
=	241.9	-241.9	50.0	2.5
=	241.2	-241.2	50.0	2.6
=	240.5	-240.5	50.0	2.6
=	239.8	-239.8	50.0	2.7
=	239.1	-239.1	50.0	2.7
=	238.4	-238.4	50.0	2.8
=	237.6	-237.6	50.0	2.8
=	236.9	-236.9	50.0	2.9
=	236.2	-236.2	50.0	2.9
=	235.6	-235.6	50.0	3.0
=	234.9	-234.9	50.0	3.0
=	234.3	-234.3	50.0	3.1
=	233.6	-233.6	50.0	3.1
=	232.9	-232.9	50.0	3.2
=	232.2	-232.2	50.0	3.2
=	231.4	-231.4	50.0	3.3
=	230.7	-230.7	50.0	3.4
=	230.0	-230.0	50.0	3.4
=	229.3	-229.3	50.0	3.5
=	228.7	-228.7	50.0	3.5
=	228.0	-228.0	50.0	3.6
=	227.3	-227.3	50.0	3.7
=	226.6	-226.6	50.0	3.7
=	225.9	-225.9	50.0	3.8
=	225.1	-225.1	50.0	3.9
=	224.4	-224.4	50.0	4.0
=	223.7	-223.7	50.0	4.1
=	223.0	-223.0	50.0	4.1
=	222.3	-222.3	50.0	4.2
=	221.6	-221.6	50.0	4.3
=	220.9	-220.9	50.0	4.4
=	220.1	-220.1	50.0	4.5
=	219.4	-219.4	50.0	4.6
=	218.7	-218.7	50.0	4.6
=	218.0	-218.0	50.0	4.7
=	217.5	-217.5	50.0	4.8
=	216.8	-216.8	50.0	4.9
=	216.1	-216.1	50.0	5.0
=	215.4	-215.4	50.0	5.1
=	214.8	-214.8	50.0	5.2
=	214.1	-214.1	50.0	5.3
=	213.6	-213.6	50.0	5.3
=	212.9	-212.9	50.0	5.4
=	212.2	-212.2	50.0	5.5
=	211.5	-211.5	50.0	5.7
=	210.8	-210.8	50.0	5.8
=	210.2	-210.2	50.0	5.9
=	209.7	-209.7	50.0	6.0
=	208.9	-208.9	50.0	6.1
=	208.2	-208.2	50.0	6.2
=	207.5	-207.5	50.0	6.4
=	207.0	-207.0	50.0	6.5
=	206.3	-206.3	50.0	6.6
=	205.6	-205.6	50.0	6.8
=	204.9	-204.9	50.0	6.9
=	204.2	-204.2	50.0	7.1
=	203.5	-203.5	50.0	7.2
=	202.8	-202.8	50.0	7.4
=	202.1	-202.1	50.0	7.6
=	201.4	-201.4	50.0	7.8
=	200.6	-200.6	50.0	8.0
=	200.0	-200.0	50.0	8.2
=	199.3	-199.3	50.0	8.4
=	198.6	-198.6	50.0	8.7
=	197.9	-197.9	50.0	9.0
=	197.2	-197.2	50.0	9.3
=	196.5	-196.5	50.0	9.7
=	195.7	-195.7	50.0	10.2
=	195.0	-195.0	50.0	10.7
=	194.4	-194.4	50.0	11.4
=	193.7	-193.7	50.0	12.1
=	193.0	-193.0	50.0	13.1
=	192.3	-192.3	50.0	14.4
=	191.7	-191.7	50.0	15.7
=	191.1	-191.1	50.0	17.4
=	190.6	-190.6	50.0	19.2
=	189.9	-189.9	50.0	22.1
=	189.1	-189.1	50.0	25.7
=	188.4	-188.4	50.0	30.0
=	187.8	-187.8	50.0	34.7
=	187.2	-187.2	50.0	39.4
=	186.7	-186.7	50.0	43.7
=	186.1	-186.1	50.0	49.3
=	185.5	-185.5	50.0	55.1
=	185.0	-185.0	50.0	59.1
=	184.4	-184.4	50.0	64.1
=	183.8	-183.8	50.0	68.4
=	183.3	-183.3	50.0	71.7
=	182.7	-182.7	50.0	74.4
=	182.0	-182.0	50.0	76.9
=	181.2	-181.2	50.0	78.8
=	180.5	-180.5	50.0	80.2
=	179.8	-179.8	50.0	81.4
=	179.1	-179.1	50.0	82.5
=	178.5	-178.5	50.0	83.4
=	177.8	-177.8	50.0	84.4
=	177.1	-177.1	50.0	85.3
=	176.4	-176.4	50.0	86.4
=	175.7	-175.7	50.0	87.4
=	174.9	-174.9	50.0	88.6
=	174.3	-174.3	50.0	89.5
=	173.9	-173.9	50.0	90.4
=	173.2	-173.2	50.0	91.5
=	172.5	-172.5	50.0	93.0
=	171.9	-171.9	50.0	94.1
=	171.2	-171.2	50.0	95.4
=	170.6	-170.6	50.0	96.5
=	170.0	-170.0	50.0	97.5
=	169.4	-169.4	50.0	98.4
=	169.0	-169.0	50.0	99.1
=	168.4	-168.4	50.0	99.9
=	167.7	-167.7	50.0	100.7
=	167.1	-167.1	50.0	101.5
=	166.6	-166.6	50.0	102.0
=	166.0	-166.0	50.0	102.5
=	165.3	-165.3	50.0	103.0
=	164.6	-164.6	50.0	103.6
=	164.0	-164.0	50.0	103.9
=	163.4	-163.4	50.0	104.2
=	162.9	-162.9	50.0	104.5
=	162.4	-162.4	50.0	104.7
=	161.8	-161.8	50.0	104.9
=	161.0	-161.0	50.0	105.2
=	160.3	-160.3	50.0	105.4
=	159.7	-159.7	50.0	105.5
=	159.1	-159.1	50.0	105.6
=	158.5	-158.5	50.0	105.7
=	157.9	-157.9	50.0	105.8
=	157.1	-157.1	50.0	105.8
=	156.4	-156.4	50.0	105.8
=	155.7	-155.7	50.0	105.8
=	155.1	-155.1	50.0	105.8
=	154.6	-154.6	50.0	105.7
=	153.9	-153.9	50.0	105.6
=	153.2	-153.2	50.0	105.5
=	152.5	-152.5	50.0	105.5
=	151.8	-151.8	50.0	105.4
=	151.1	-151.1	50.0	105.4
=	150.4	-150.4	50.0	105.4
=	150.0	-150.0	50.0	105.4
=	149.4	-149.4	50.0	105.4
=	148.9	-148.9	50.0	105.3
=	148.3	-148.3	50.0	105.3
=	147.8	-147.8	50.0	105.3
=	147.2	-147.2	50.0	105.3
=	146.7	-146.7	50.0	105.3
=	146.0	-146.0	50.0	105.3
=	145.2	-145.2	50.0	105.3
=	144.6	-144.6	50.0	105.3
=	144.1	-144.1	50.0	105.3
=	143.5	-143.5	50.0	105.3
=	142.8	-142.8	50.0	105.3
=	142.2	-142.2	50.0	105.3
=	141.6	-141.6	50.0	105.4
=	141.0	-141.0	50.0	105.4
=	140.5	-140.5	50.0	105.5
=	139.9	-139.9	50.0	105.5
=	139.3	-139.3	50.0	105.5
=	138.8	-138.8	50.0	105.6
=	138.2	-138.2	50.0	105.7
=	137.6	-137.6	50.0	105.8
=	137.0	-137.0	50.0	105.9
=	136.3	-136.3	50.0	105.9
=	135.6	-135.6	50.0	106.0
=	134.9	-134.9	50.0	106.0
=	134.3	-134.3	50.0	106.0
=	133.6	-133.6	50.0	105.9
=	132.9	-132.9	50.0	105.9
=	132.2	-132.2	50.0	105.9
=	131.5	-131.5	50.0	105.8
=	130.9	-130.9	50.0	105.7
=	130.2	-130.2	50.0	105.7
=	129.4	-129.4	50.0	105.6
=	128.8	-128.8	50.0	105.6
=	128.3	-128.3	50.0	105.5
=	127.7	-127.7	50.0	105.5
=	127.1	-127.1	50.0	105.4
=	126.6	-126.6	50.0	105.4
=	126.0	-126.0	50.0	105.4
=	125.4	-125.4	50.0	105.4
=	124.8	-124.8	50.0	105.4
=	124.2	-124.2	50.0	105.5
=	123.4	-123.4	50.0	105.5
=	122.7	-122.7	50.0	105.5
=	122.0	-122.0	50.0	105.6
=	121.3	-121.3	50.0	105.6
=	120.6	-120.6	50.0	105.6
=	119.8	-119.8	50.0	105.7
=	119.1	-119.1	50.0	105.7
=	118.4	-118.4	50.0	105.7
=	117.8	-117.8	50.0	105.7
=	117.2	-117.2	50.0	105.8
=	116.7	-116.7	50.0	105.8
=	116.1	-116.1	50.0	105.8
=	115.6	-115.6	50.0	105.9
=	115.1	-115.1	50.0	105.9
=	114.6	-114.6	50.0	105.9
=	114.0	-114.0	50.0	105.9
=	113.5	-113.5	50.0	106.0
=	112.9	-112.9	50.0	105.9
=	112.2	-112.2	50.0	105.9
=	111.5	-111.5	50.0	105.9
=	110.8	-110.8	50.0	105.9
=	110.2	-110.2	50.0	105.9
=	109.6	-109.6	50.0	105.9
=	108.9	-108.9	50.0	105.8
=	108.2	-108.2	50.0	105.8
=	107.5	-107.5	50.0	105.7
=	106.7	-106.7	50.0	105.7
=	106.2	-106.2	50.0	105.7
=	105.6	-105.6	50.0	105.7
=	105.1	-105.1	50.0	105.6
=	104.5	-104.5	50.0	105.6
=	103.9	-103.9	50.0	105.6
=	103.4	-103.4	50.0	105.6
=	102.9	-102.9	50.0	105.5
=	102.4	-102.4	50.0	105.5
=	102.0	-102.0	50.0	105.5
=	101.6	-101.6	50.0	105.5
=	101.0	-101.0	50.0	105.5
=	100.3	-100.3	50.0	105.5
=	99.6	-99.6	50.0	105.5
=	99.0	-99.0	50.0	105.5
=	98.3	-98.3	50.0	105.5
=	97.6	-97.6	50.0	105.5
=	96.9	-96.9	50.0	105.5
=	96.2	-96.2	50.0	105.5
=	95.4	-95.4	50.0	105.5
=	94.7	-94.7	50.0	105.5
=	94.1	-94.1	50.0	105.5
=	93.5	-93.5	50.0	105.6
=	92.8	-92.8	50.0	105.6
=	92.2	-92.2	50.0	105.6
=	91.5	-91.5	50.0	105.5
=	91.0	-91.0	50.0	105.5
=	90.4	-90.4	50.0	105.5
=	89.8	-89.8	50.0	105.5
=	89.2	-89.2	50.0	105.5
=	88.4	-88.4	50.0	105.5
=	87.7	-87.7	50.0	105.5
=	87.0	-87.0	50.0	105.5
=	86.3	-86.3	50.0	105.4
=	85.8	-85.8	50.0	105.4
=	85.2	-85.2	50.0	105.4
=	84.6	-84.6	50.0	105.4
=	84.2	-84.2	50.0	105.4
=	83.5	-83.5	50.0	105.4
=	82.9	-82.9	50.0	105.4
=	82.4	-82.4	50.0	105.4
=	81.9	-81.9	50.0	105.4
=	81.3	-81.3	50.0	105.4
=	80.7	-80.7	50.0	105.3
=	80.1	-80.1	50.0	105.3
=	79.4	-79.4	50.0	105.3
=	78.7	-78.7	50.0	105.2
=	78.0	-78.0	50.0	105.2
=	77.2	-77.2	50.0	105.1
=	76.6	-76.6	50.0	105.0
=	75.9	-75.9	50.0	104.9
=	75.3	-75.3	50.0	104.9
=	74.6	-74.6	50.0	104.8
=	74.1	-74.1	50.0	104.7
=	73.6	-73.6	50.0	104.7
=	73.2	-73.2	50.0	104.6
=	72.7	-72.7	50.0	104.6
=	72.2	-72.2	50.0	104.5
=	71.5	-71.5	50.0	104.5
=	71.0	-71.0	50.0	104.4
=	70.4	-70.4	50.0	104.4
=	69.8	-69.8	50.0	104.4
=	69.2	-69.2	50.0	104.4
=	68.6	-68.6	50.0	104.4
=	67.9	-67.9	50.0	104.4
=	67.3	-67.3	50.0	104.4
=	66.6	-66.6	50.0	104.4
=	65.9	-65.9	50.0	104.5
=	65.2	-65.2	50.0	104.5
=	64.7	-64.7	50.0	104.5
=	64.1	-64.1	50.0	104.5
=	63.4	-63.4	50.0	104.6
=	62.8	-62.8	50.0	104.6
=	62.3	-62.3	50.0	104.6
=	61.7	-61.7	50.0	104.6
=	61.2	-61.2	50.0	104.6
=	60.6	-60.6	50.0	104.5
=	60.2	-60.2	50.0	104.5
=	59.7	-59.7	50.0	104.5
=	59.3	-59.3	50.0	104.5
=	58.7	-58.7	50.0	104.5
=	58.0	-58.0	50.0	104.5
=	57.3	-57.3	50.0	104.5
=	56.6	-56.6	50.0	104.4
=	55.9	-55.9	50.0	104.4
=	55.2	-55.2	50.0	104.4
=	54.4	-54.4	50.0	104.3
=	53.7	-53.7	50.0	104.3
=	53.0	-53.0	50.0	104.3
=	52.5	-52.5	50.0	104.3
=	52.1	-52.1	50.0	104.3
=	51.6	-51.6	50.0	104.3
=	51.1	-51.1	50.0	104.3
=	50.5	-50.5	50.0	104.3
=	50.0	-50.0	50.0	104.3
=	49.4	-49.4	50.0	104.3
=	48.9	-48.9	50.0	104.3
=	48.4	-48.4	50.0	104.3
=	47.8	-47.8	50.0	104.3
=	47.3	-47.3	50.0	104.3
=	46.7	-46.7	50.0	104.3
=	46.0	-46.0	50.0	104.3
=	45.4	-45.4	50.0	104.2
=	44.8	-44.8	50.0	104.2
=	44.3	-44.3	50.0	104.2
=	43.7	-43.7	50.0	104.2
=	43.0	-43.0	50.0	104.2
=	42.2	-42.2	50.0	104.2
=	41.5	-41.5	50.0	104.2
=	40.9	-40.9	50.0	104.1
=	40.2	-40.2	50.0	104.1
=	39.5	-39.5	50.0	104.1
=	38.9	-38.9	50.0	104.0
=	38.3	-38.3	50.0	104.0
=	37.7	-37.7	50.0	104.0
=	37.2	-37.2	50.0	103.9
=	36.7	-36.7	50.0	103.9
=	36.1	-36.1	50.0	103.9
=	35.4	-35.4	50.0	103.9
=	34.7	-34.7	50.0	103.8
=	34.1	-34.1	50.0	103.7
=	33.6	-33.6	50.0	103.7
=	33.1	-33.1	50.0	103.7
=	32.4	-32.4	50.0	103.6
=	31.9	-31.9	50.0	103.5
=	31.4	-31.4	50.0	103.5
=	30.8	-30.8	50.0	103.4
=	30.2	-30.2	50.0	103.4
=	29.7	-29.7	50.0	103.4
=	29.0	-29.0	50.0	103.3
=	28.3	-28.3	50.0	103.3
=	27.7	-27.7	50.0	103.2
