:MSR 	20	 # No. of measurement in file
:SYS BDS 0   # Beam Data Scanner System
#
# RFA300 ASCII Measurement Dump ( BDS format )
#
# Measurement number 	1
#
%VNR 1.0
%MOD 	RAT
%TYP 	SCN
%SCN 	PRO
%FLD 	ION
%DAT 	02-02-2012
%TIM 	12:00:00
%FSZ 	040	040
%BMT 	PHO	   4.0
%SSD 	1000
%BUP 	0
%BRD 	1000
%FSH 	1
%ASC 	0
%WEG 	60
%GPO 	0
%CPO 	0
%MEA 	6
%PRD 	12,0
%PTS 	637
%STS 	    -70.0	  0.0	   12.0 # Start Scan values in mm ( X , Y , Z )
%EDS 	    70.2	   0.0	   12.0 # End Scan values in mm ( X , Y , Z )
#
#	  X      Y      Z     Dose
#
=	-70.0	0.0	12.0	1.2
=	-69.7	0.0	12.0	1.1
=	-69.5	0.0	12.0	1.1
=	-69.3	0.0	12.0	1.1
=	-69.1	0.0	12.0	1.2
=	-68.9	0.0	12.0	1.2
=	-68.7	0.0	12.0	1.2
=	-68.5	0.0	12.0	1.2
=	-68.2	0.0	12.0	1.2
=	-68.1	0.0	12.0	1.2
=	-67.9	0.0	12.0	1.2
=	-67.8	0.0	12.0	1.2
=	-67.7	0.0	12.0	1.2
=	-67.4	0.0	12.0	1.2
=	-67.3	0.0	12.0	1.2
=	-67.0	0.0	12.0	1.2
=	-66.9	0.0	12.0	1.2
=	-66.6	0.0	12.0	1.2
=	-66.2	0.0	12.0	1.2
=	-65.9	0.0	12.0	1.2
=	-65.6	0.0	12.0	1.2
=	-65.5	0.0	12.0	1.2
=	-65.4	0.0	12.0	1.2
=	-65.1	0.0	12.0	1.2
=	-65.0	0.0	12.0	1.2
=	-64.6	0.0	12.0	1.2
=	-64.3	0.0	12.0	1.2
=	-64.2	0.0	12.0	1.2
=	-64.0	0.0	12.0	1.2
=	-63.7	0.0	12.0	1.2
=	-63.6	0.0	12.0	1.2
=	-63.5	0.0	12.0	1.2
=	-63.3	0.0	12.0	1.3
=	-63.1	0.0	12.0	1.3
=	-62.9	0.0	12.0	1.2
=	-62.8	0.0	12.0	1.2
=	-62.6	0.0	12.0	1.2
=	-62.4	0.0	12.0	1.3
=	-62.1	0.0	12.0	1.3
=	-62.0	0.0	12.0	1.3
=	-61.7	0.0	12.0	1.3
=	-61.5	0.0	12.0	1.3
=	-61.3	0.0	12.0	1.3
=	-61.0	0.0	12.0	1.3
=	-60.9	0.0	12.0	1.3
=	-60.5	0.0	12.0	1.3
=	-60.4	0.0	12.0	1.3
=	-60.1	0.0	12.0	1.3
=	-59.7	0.0	12.0	1.3
=	-59.5	0.0	12.0	1.3
=	-59.3	0.0	12.0	1.3
=	-59.2	0.0	12.0	1.3
=	-59.0	0.0	12.0	1.3
=	-58.9	0.0	12.0	1.3
=	-58.8	0.0	12.0	1.3
=	-58.5	0.0	12.0	1.3
=	-58.4	0.0	12.0	1.3
=	-58.0	0.0	12.0	1.3
=	-57.6	0.0	12.0	1.3
=	-57.5	0.0	12.0	1.3
=	-57.2	0.0	12.0	1.3
=	-56.9	0.0	12.0	1.3
=	-56.8	0.0	12.0	1.3
=	-56.5	0.0	12.0	1.3
=	-56.4	0.0	12.0	1.3
=	-56.0	0.0	12.0	1.3
=	-55.6	0.0	12.0	1.3
=	-55.5	0.0	12.0	1.3
=	-55.3	0.0	12.0	1.3
=	-55.1	0.0	12.0	1.3
=	-55.0	0.0	12.0	1.3
=	-54.7	0.0	12.0	1.4
=	-54.5	0.0	12.0	1.4
=	-54.3	0.0	12.0	1.4
=	-54.1	0.0	12.0	1.4
=	-54.0	0.0	12.0	1.4
=	-53.9	0.0	12.0	1.4
=	-53.7	0.0	12.0	1.4
=	-53.5	0.0	12.0	1.4
=	-53.3	0.0	12.0	1.4
=	-53.1	0.0	12.0	1.4
=	-52.9	0.0	12.0	1.4
=	-52.6	0.0	12.0	1.4
=	-52.5	0.0	12.0	1.4
=	-52.2	0.0	12.0	1.4
=	-52.1	0.0	12.0	1.4
=	-51.9	0.0	12.0	1.4
=	-51.8	0.0	12.0	1.4
=	-51.7	0.0	12.0	1.4
=	-51.4	0.0	12.0	1.4
=	-51.3	0.0	12.0	1.4
=	-51.0	0.0	12.0	1.4
=	-50.9	0.0	12.0	1.4
=	-50.6	0.0	12.0	1.4
=	-50.4	0.0	12.0	1.5
=	-50.2	0.0	12.0	1.5
=	-50.0	0.0	12.0	1.5
=	-49.9	0.0	12.0	1.5
=	-49.8	0.0	12.0	1.5
=	-49.6	0.0	12.0	1.5
=	-49.4	0.0	12.0	1.5
=	-49.2	0.0	12.0	1.5
=	-49.0	0.0	12.0	1.5
=	-48.8	0.0	12.0	1.5
=	-48.6	0.0	12.0	1.5
=	-48.4	0.0	12.0	1.5
=	-48.1	0.0	12.0	1.5
=	-47.9	0.0	12.0	1.5
=	-47.8	0.0	12.0	1.5
=	-47.7	0.0	12.0	1.6
=	-47.5	0.0	12.0	1.6
=	-47.3	0.0	12.0	1.6
=	-47.1	0.0	12.0	1.6
=	-46.9	0.0	12.0	1.6
=	-46.7	0.0	12.0	1.6
=	-46.4	0.0	12.0	1.6
=	-46.2	0.0	12.0	1.6
=	-46.0	0.0	12.0	1.6
=	-45.9	0.0	12.0	1.6
=	-45.6	0.0	12.0	1.6
=	-45.5	0.0	12.0	1.6
=	-45.3	0.0	12.0	1.6
=	-45.1	0.0	12.0	1.6
=	-44.8	0.0	12.0	1.7
=	-44.7	0.0	12.0	1.7
=	-44.4	0.0	12.0	1.7
=	-44.3	0.0	12.0	1.7
=	-44.0	0.0	12.0	1.7
=	-43.8	0.0	12.0	1.7
=	-43.6	0.0	12.0	1.7
=	-43.3	0.0	12.0	1.7
=	-42.9	0.0	12.0	1.7
=	-42.4	0.0	12.0	1.8
=	-42.3	0.0	12.0	1.8
=	-42.0	0.0	12.0	1.8
=	-41.8	0.0	12.0	1.8
=	-41.6	0.0	12.0	1.8
=	-41.2	0.0	12.0	1.8
=	-40.8	0.0	12.0	1.9
=	-40.7	0.0	12.0	1.9
=	-40.5	0.0	12.0	1.9
=	-40.3	0.0	12.0	1.9
=	-40.0	0.0	12.0	1.9
=	-39.9	0.0	12.0	2.0
=	-39.7	0.0	12.0	2.0
=	-39.5	0.0	12.0	2.0
=	-39.3	0.0	12.0	2.0
=	-39.1	0.0	12.0	2.0
=	-38.9	0.0	12.0	2.0
=	-38.7	0.0	12.0	2.0
=	-38.5	0.0	12.0	2.0
=	-38.3	0.0	12.0	2.0
=	-38.1	0.0	12.0	2.0
=	-37.9	0.0	12.0	2.1
=	-37.8	0.0	12.0	2.1
=	-37.5	0.0	12.0	2.1
=	-37.3	0.0	12.0	2.1
=	-37.2	0.0	12.0	2.1
=	-37.0	0.0	12.0	2.1
=	-36.9	0.0	12.0	2.1
=	-36.7	0.0	12.0	2.1
=	-36.5	0.0	12.0	2.2
=	-36.2	0.0	12.0	2.2
=	-35.8	0.0	12.0	2.2
=	-35.4	0.0	12.0	2.2
=	-35.2	0.0	12.0	2.3
=	-34.9	0.0	12.0	2.3
=	-34.7	0.0	12.0	2.3
=	-34.5	0.0	12.0	2.3
=	-34.2	0.0	12.0	2.4
=	-33.8	0.0	12.0	2.4
=	-33.4	0.0	12.0	2.5
=	-33.2	0.0	12.0	2.5
=	-33.0	0.0	12.0	2.5
=	-32.9	0.0	12.0	2.5
=	-32.6	0.0	12.0	2.5
=	-32.5	0.0	12.0	2.5
=	-32.3	0.0	12.0	2.6
=	-32.0	0.0	12.0	2.6
=	-31.9	0.0	12.0	2.6
=	-31.7	0.0	12.0	2.6
=	-31.5	0.0	12.0	2.7
=	-31.3	0.0	12.0	2.7
=	-31.1	0.0	12.0	2.7
=	-30.8	0.0	12.0	2.7
=	-30.7	0.0	12.0	2.7
=	-30.6	0.0	12.0	2.8
=	-30.3	0.0	12.0	2.8
=	-30.1	0.0	12.0	2.8
=	-29.9	0.0	12.0	2.9
=	-29.7	0.0	12.0	2.9
=	-29.6	0.0	12.0	2.9
=	-29.5	0.0	12.0	3.0
=	-29.4	0.0	12.0	3.0
=	-29.2	0.0	12.0	3.0
=	-28.9	0.0	12.0	3.1
=	-28.8	0.0	12.0	3.2
=	-28.6	0.0	12.0	3.2
=	-28.4	0.0	12.0	3.2
=	-28.1	0.0	12.0	3.3
=	-28.0	0.0	12.0	3.4
=	-27.6	0.0	12.0	3.6
=	-27.1	0.0	12.0	3.9
=	-27.0	0.0	12.0	3.9
=	-26.7	0.0	12.0	4.2
=	-26.5	0.0	12.0	4.3
=	-26.4	0.0	12.0	4.5
=	-26.0	0.0	12.0	4.8
=	-25.6	0.0	12.0	5.6
=	-25.1	0.0	12.0	6.4
=	-24.9	0.0	12.0	6.9
=	-24.8	0.0	12.0	7.2
=	-24.4	0.0	12.0	8.4
=	-24.0	0.0	12.0	10.2
=	-23.8	0.0	12.0	11.4
=	-23.6	0.0	12.0	12.5
=	-23.3	0.0	12.0	14.6
=	-23.1	0.0	12.0	15.6
=	-22.8	0.0	12.0	18.4
=	-22.4	0.0	12.0	22.3
=	-22.3	0.0	12.0	23.4
=	-22.0	0.0	12.0	27.0
=	-21.8	0.0	12.0	29.9
=	-21.6	0.0	12.0	32.2
=	-21.2	0.0	12.0	36.8
=	-20.8	0.0	12.0	42.8
=	-20.5	0.0	12.0	48.2
=	-20.3	0.0	12.0	50.6
=	-20.0	0.0	12.0	54.5
=	-19.8	0.0	12.0	58.7
=	-19.6	0.0	12.0	61.2
=	-19.3	0.0	12.0	66.5
=	-19.0	0.0	12.0	69.8
=	-18.9	0.0	12.0	71.4
=	-18.8	0.0	12.0	73.7
=	-18.6	0.0	12.0	75.9
=	-18.4	0.0	12.0	79.0
=	-18.3	0.0	12.0	80.3
=	-17.9	0.0	12.0	84.2
=	-17.8	0.0	12.0	86.2
=	-17.5	0.0	12.0	89.5
=	-17.4	0.0	12.0	91.3
=	-17.3	0.0	12.0	92.6
=	-16.9	0.0	12.0	96.1
=	-16.8	0.0	12.0	97.6
=	-16.5	0.0	12.0	99.9
=	-16.4	0.0	12.0	101.0
=	-16.3	0.0	12.0	102.1
=	-16.1	0.0	12.0	102.9
=	-16.0	0.0	12.0	103.7
=	-15.7	0.0	12.0	105.2
=	-15.6	0.0	12.0	105.8
=	-15.3	0.0	12.0	107.3
=	-14.9	0.0	12.0	108.8
=	-14.7	0.0	12.0	109.2
=	-14.4	0.0	12.0	109.5
=	-14.2	0.0	12.0	109.7
=	-14.0	0.0	12.0	109.8
=	-13.7	0.0	12.0	109.8
=	-13.6	0.0	12.0	109.9
=	-13.2	0.0	12.0	109.9
=	-12.8	0.0	12.0	109.9
=	-12.7	0.0	12.0	109.9
=	-12.4	0.0	12.0	109.9
=	-12.2	0.0	12.0	109.9
=	-12.0	0.0	12.0	109.8
=	-11.6	0.0	12.0	109.5
=	-11.5	0.0	12.0	109.4
=	-11.2	0.0	12.0	109.3
=	-10.9	0.0	12.0	109.2
=	-10.7	0.0	12.0	109.1
=	-10.4	0.0	12.0	108.9
=	-10.3	0.0	12.0	108.8
=	-10.0	0.0	12.0	108.6
=	-9.9	0.0	12.0	108.5
=	-9.6	0.0	12.0	108.2
=	-9.4	0.0	12.0	108.0
=	-9.2	0.0	12.0	107.9
=	-8.9	0.0	12.0	107.6
=	-8.8	0.0	12.0	107.6
=	-8.4	0.0	12.0	107.2
=	-8.3	0.0	12.0	107.0
=	-7.9	0.0	12.0	106.8
=	-7.6	0.0	12.0	106.5
=	-7.4	0.0	12.0	106.4
=	-7.2	0.0	12.0	106.2
=	-7.0	0.0	12.0	106.1
=	-6.9	0.0	12.0	106.0
=	-6.7	0.0	12.0	105.9
=	-6.6	0.0	12.0	105.9
=	-6.4	0.0	12.0	105.7
=	-6.2	0.0	12.0	105.5
=	-5.9	0.0	12.0	105.2
=	-5.8	0.0	12.0	105.0
=	-5.5	0.0	12.0	104.8
=	-5.4	0.0	12.0	104.7
=	-5.1	0.0	12.0	104.4
=	-5.0	0.0	12.0	104.4
=	-4.9	0.0	12.0	104.3
=	-4.7	0.0	12.0	104.2
=	-4.6	0.0	12.0	104.1
=	-4.4	0.0	12.0	103.9
=	-4.2	0.0	12.0	103.8
=	-3.9	0.0	12.0	103.5
=	-3.8	0.0	12.0	103.4
=	-3.5	0.0	12.0	103.2
=	-3.3	0.0	12.0	103.1
=	-3.1	0.0	12.0	102.9
=	-2.9	0.0	12.0	102.7
=	-2.8	0.0	12.0	102.6
=	-2.7	0.0	12.0	102.5
=	-2.6	0.0	12.0	102.4
=	-2.3	0.0	12.0	102.2
=	-2.2	0.0	12.0	102.0
=	-1.9	0.0	12.0	101.8
=	-1.7	0.0	12.0	101.6
=	-1.5	0.0	12.0	101.2
=	-1.3	0.0	12.0	101.1
=	-1.1	0.0	12.0	100.8
=	-0.9	0.0	12.0	100.7
=	-0.7	0.0	12.0	100.5
=	-0.5	0.0	12.0	100.4
=	-0.3	0.0	12.0	100.2
=	-0.1	0.0	12.0	100.1
=	0.1	0.0	12.0	100.0
=	0.2	0.0	12.0	99.9
=	0.3	0.0	12.0	99.7
=	0.4	0.0	12.0	99.7
=	0.7	0.0	12.0	99.5
=	0.9	0.0	12.0	99.3
=	1.1	0.0	12.0	99.1
=	1.2	0.0	12.0	99.0
=	1.5	0.0	12.0	98.7
=	1.7	0.0	12.0	98.6
=	2.0	0.0	12.0	98.3
=	2.2	0.0	12.0	98.1
=	2.3	0.0	12.0	98.0
=	2.7	0.0	12.0	97.6
=	3.1	0.0	12.0	97.3
=	3.3	0.0	12.0	97.3
=	3.5	0.0	12.0	97.2
=	3.8	0.0	12.0	97.1
=	4.0	0.0	12.0	97.0
=	4.3	0.0	12.0	96.8
=	4.7	0.0	12.0	96.6
=	4.9	0.0	12.0	96.3
=	5.2	0.0	12.0	96.0
=	5.3	0.0	12.0	95.8
=	5.6	0.0	12.0	95.6
=	5.8	0.0	12.0	95.5
=	6.0	0.0	12.0	95.3
=	6.3	0.0	12.0	95.1
=	6.4	0.0	12.0	95.0
=	6.8	0.0	12.0	94.6
=	7.1	0.0	12.0	94.1
=	7.3	0.0	12.0	94.0
=	7.5	0.0	12.0	93.8
=	7.7	0.0	12.0	93.6
=	7.9	0.0	12.0	93.4
=	8.1	0.0	12.0	93.2
=	8.3	0.0	12.0	93.0
=	8.5	0.0	12.0	92.9
=	8.7	0.0	12.0	92.7
=	8.9	0.0	12.0	92.6
=	9.1	0.0	12.0	92.5
=	9.3	0.0	12.0	92.5
=	9.5	0.0	12.0	92.3
=	9.8	0.0	12.0	92.1
=	10.0	0.0	12.0	91.9
=	10.3	0.0	12.0	91.6
=	10.8	0.0	12.0	91.1
=	11.2	0.0	12.0	90.8
=	11.4	0.0	12.0	90.7
=	11.6	0.0	12.0	90.6
=	11.9	0.0	12.0	90.4
=	12.0	0.0	12.0	90.3
=	12.4	0.0	12.0	89.9
=	12.5	0.0	12.0	89.7
=	12.7	0.0	12.0	89.4
=	12.9	0.0	12.0	89.2
=	13.0	0.0	12.0	89.0
=	13.3	0.0	12.0	88.3
=	13.5	0.0	12.0	88.1
=	13.7	0.0	12.0	87.7
=	13.9	0.0	12.0	87.3
=	14.1	0.0	12.0	86.8
=	14.4	0.0	12.0	86.1
=	14.5	0.0	12.0	85.9
=	14.9	0.0	12.0	84.8
=	15.0	0.0	12.0	84.4
=	15.3	0.0	12.0	83.2
=	15.6	0.0	12.0	82.2
=	15.7	0.0	12.0	81.6
=	15.9	0.0	12.0	80.6
=	16.1	0.0	12.0	79.3
=	16.4	0.0	12.0	77.7
=	16.5	0.0	12.0	76.8
=	16.8	0.0	12.0	74.5
=	16.9	0.0	12.0	73.6
=	17.2	0.0	12.0	71.4
=	17.3	0.0	12.0	70.1
=	17.6	0.0	12.0	67.9
=	17.7	0.0	12.0	66.5
=	17.9	0.0	12.0	64.4
=	18.1	0.0	12.0	62.3
=	18.3	0.0	12.0	60.1
=	18.5	0.0	12.0	58.0
=	18.7	0.0	12.0	56.0
=	18.9	0.0	12.0	53.7
=	19.1	0.0	12.0	52.3
=	19.3	0.0	12.0	49.4
=	19.4	0.0	12.0	48.2
=	19.7	0.0	12.0	45.3
=	19.8	0.0	12.0	44.0
=	20.1	0.0	12.0	40.8
=	20.3	0.0	12.0	38.2
=	20.5	0.0	12.0	35.7
=	20.7	0.0	12.0	33.6
=	21.1	0.0	12.0	29.7
=	21.3	0.0	12.0	27.8
=	21.5	0.0	12.0	25.8
=	21.7	0.0	12.0	24.2
=	21.9	0.0	12.0	22.2
=	22.2	0.0	12.0	19.8
=	22.3	0.0	12.0	18.7
=	22.7	0.0	12.0	16.0
=	23.1	0.0	12.0	12.6
=	23.5	0.0	12.0	10.4
=	23.7	0.0	12.0	9.6
=	23.9	0.0	12.0	8.5
=	24.2	0.0	12.0	7.6
=	24.3	0.0	12.0	7.0
=	24.7	0.0	12.0	6.0
=	24.8	0.0	12.0	5.7
=	25.1	0.0	12.0	5.2
=	25.2	0.0	12.0	5.0
=	25.5	0.0	12.0	4.7
=	25.6	0.0	12.0	4.6
=	25.9	0.0	12.0	4.2
=	26.1	0.0	12.0	4.0
=	26.2	0.0	12.0	3.9
=	26.3	0.0	12.0	3.7
=	26.5	0.0	12.0	3.6
=	26.7	0.0	12.0	3.5
=	26.9	0.0	12.0	3.4
=	27.2	0.0	12.0	3.2
=	27.5	0.0	12.0	2.9
=	27.7	0.0	12.0	2.9
=	27.9	0.0	12.0	2.8
=	28.1	0.0	12.0	2.7
=	28.2	0.0	12.0	2.7
=	28.4	0.0	12.0	2.7
=	28.5	0.0	12.0	2.6
=	28.7	0.0	12.0	2.6
=	28.9	0.0	12.0	2.6
=	29.2	0.0	12.0	2.5
=	29.3	0.0	12.0	2.5
=	29.6	0.0	12.0	2.4
=	29.7	0.0	12.0	2.4
=	30.0	0.0	12.0	2.4
=	30.1	0.0	12.0	2.4
=	30.2	0.0	12.0	2.3
=	30.4	0.0	12.0	2.3
=	30.5	0.0	12.0	2.3
=	30.7	0.0	12.0	2.3
=	30.9	0.0	12.0	2.3
=	31.1	0.0	12.0	2.2
=	31.2	0.0	12.0	2.2
=	31.5	0.0	12.0	2.2
=	31.7	0.0	12.0	2.1
=	31.9	0.0	12.0	2.1
=	32.1	0.0	12.0	2.1
=	32.3	0.0	12.0	2.1
=	32.6	0.0	12.0	2.1
=	32.7	0.0	12.0	2.0
=	33.0	0.0	12.0	2.0
=	33.1	0.0	12.0	2.0
=	33.2	0.0	12.0	2.0
=	33.4	0.0	12.0	1.9
=	33.7	0.0	12.0	1.9
=	34.1	0.0	12.0	1.9
=	34.6	0.0	12.0	1.9
=	34.7	0.0	12.0	1.8
=	35.0	0.0	12.0	1.8
=	35.3	0.0	12.0	1.8
=	35.4	0.0	12.0	1.8
=	35.7	0.0	12.0	1.8
=	35.8	0.0	12.0	1.8
=	36.1	0.0	12.0	1.8
=	36.2	0.0	12.0	1.8
=	36.5	0.0	12.0	1.8
=	36.7	0.0	12.0	1.8
=	36.9	0.0	12.0	1.7
=	37.1	0.0	12.0	1.7
=	37.2	0.0	12.0	1.7
=	37.4	0.0	12.0	1.7
=	37.5	0.0	12.0	1.7
=	37.7	0.0	12.0	1.7
=	37.9	0.0	12.0	1.6
=	38.3	0.0	12.0	1.6
=	38.4	0.0	12.0	1.6
=	38.7	0.0	12.0	1.6
=	39.1	0.0	12.0	1.6
=	39.2	0.0	12.0	1.6
=	39.6	0.0	12.0	1.5
=	39.7	0.0	12.0	1.5
=	39.9	0.0	12.0	1.5
=	40.3	0.0	12.0	1.5
=	40.4	0.0	12.0	1.5
=	40.8	0.0	12.0	1.5
=	41.2	0.0	12.0	1.5
=	41.3	0.0	12.0	1.5
=	41.6	0.0	12.0	1.4
=	41.9	0.0	12.0	1.4
=	42.4	0.0	12.0	1.4
=	42.6	0.0	12.0	1.4
=	42.8	0.0	12.0	1.4
=	43.1	0.0	12.0	1.4
=	43.2	0.0	12.0	1.4
=	43.6	0.0	12.0	1.4
=	44.1	0.0	12.0	1.3
=	44.5	0.0	12.0	1.3
=	44.7	0.0	12.0	1.3
=	44.9	0.0	12.0	1.3
=	45.1	0.0	12.0	1.3
=	45.3	0.0	12.0	1.3
=	45.6	0.0	12.0	1.3
=	46.0	0.0	12.0	1.3
=	46.1	0.0	12.0	1.3
=	46.2	0.0	12.0	1.2
=	46.5	0.0	12.0	1.2
=	46.6	0.0	12.0	1.2
=	46.9	0.0	12.0	1.2
=	47.0	0.0	12.0	1.2
=	47.1	0.0	12.0	1.2
=	47.3	0.0	12.0	1.2
=	47.4	0.0	12.0	1.2
=	47.7	0.0	12.0	1.2
=	47.8	0.0	12.0	1.2
=	48.1	0.0	12.0	1.2
=	48.5	0.0	12.0	1.2
=	48.7	0.0	12.0	1.2
=	48.9	0.0	12.0	1.2
=	49.2	0.0	12.0	1.2
=	49.3	0.0	12.0	1.2
=	49.7	0.0	12.0	1.2
=	49.8	0.0	12.0	1.2
=	50.1	0.0	12.0	1.2
=	50.2	0.0	12.0	1.2
=	50.5	0.0	12.0	1.2
=	50.7	0.0	12.0	1.2
=	51.0	0.0	12.0	1.2
=	51.2	0.0	12.0	1.1
=	51.4	0.0	12.0	1.1
=	51.7	0.0	12.0	1.1
=	52.2	0.0	12.0	1.1
=	52.5	0.0	12.0	1.1
=	52.6	0.0	12.0	1.1
=	52.9	0.0	12.0	1.1
=	53.0	0.0	12.0	1.1
=	53.2	0.0	12.0	1.1
=	53.3	0.0	12.0	1.1
=	53.7	0.0	12.0	1.1
=	53.8	0.0	12.0	1.1
=	54.2	0.0	12.0	1.1
=	54.6	0.0	12.0	1.1
=	54.7	0.0	12.0	1.1
=	55.0	0.0	12.0	1.1
=	55.2	0.0	12.0	1.0
=	55.4	0.0	12.0	1.0
=	55.7	0.0	12.0	1.0
=	55.9	0.0	12.0	1.0
=	56.2	0.0	12.0	1.0
=	56.7	0.0	12.0	1.0
=	56.8	0.0	12.0	1.0
=	57.1	0.0	12.0	1.0
=	57.3	0.0	12.0	1.0
=	57.5	0.0	12.0	1.0
=	57.6	0.0	12.0	1.0
=	57.8	0.0	12.0	1.0
=	58.0	0.0	12.0	1.0
=	58.3	0.0	12.0	1.0
=	58.7	0.0	12.0	1.0
=	59.1	0.0	12.0	1.0
=	59.3	0.0	12.0	1.0
=	59.5	0.0	12.0	1.0
=	59.6	0.0	12.0	1.0
=	59.8	0.0	12.0	1.0
=	60.0	0.0	12.0	1.0
=	60.3	0.0	12.0	1.0
=	60.4	0.0	12.0	1.0
=	60.7	0.0	12.0	1.0
=	60.8	0.0	12.0	1.0
=	61.0	0.0	12.0	1.0
=	61.3	0.0	12.0	1.0
=	61.4	0.0	12.0	1.0
=	61.7	0.0	12.0	1.0
=	61.9	0.0	12.0	1.0
=	62.1	0.0	12.0	1.0
=	62.3	0.0	12.0	1.0
=	62.5	0.0	12.0	1.0
=	62.6	0.0	12.0	0.9
=	62.9	0.0	12.0	0.9
=	63.1	0.0	12.0	0.9
=	63.3	0.0	12.0	0.9
=	63.5	0.0	12.0	0.9
=	63.6	0.0	12.0	0.9
=	63.8	0.0	12.0	0.9
=	64.0	0.0	12.0	0.9
=	64.4	0.0	12.0	1.0
=	64.5	0.0	12.0	1.0
=	64.8	0.0	12.0	1.0
=	64.9	0.0	12.0	1.0
=	65.1	0.0	12.0	1.0
=	65.3	0.0	12.0	0.9
=	65.4	0.0	12.0	0.9
=	65.5	0.0	12.0	0.9
=	65.7	0.0	12.0	0.9
=	65.9	0.0	12.0	0.9
=	66.0	0.0	12.0	0.9
=	66.4	0.0	12.0	0.9
=	66.9	0.0	12.0	0.9
=	67.3	0.0	12.0	0.9
=	67.4	0.0	12.0	0.9
=	67.7	0.0	12.0	0.9
=	67.9	0.0	12.0	0.9
=	68.1	0.0	12.0	0.9
=	68.4	0.0	12.0	0.9
=	68.6	0.0	12.0	0.9
=	68.8	0.0	12.0	0.9
=	69.0	0.0	12.0	0.9
=	69.2	0.0	12.0	0.9
=	69.5	0.0	12.0	0.9
=	69.7	0.0	12.0	0.9
=	69.9	0.0	12.0	0.9
=	70.0	0.0	12.0	0.9
=	70.2	0.0	12.0	0.9
:EOM # End of Measurement
#
# RFA300 ASCII Measurement Dump ( BDS format )
#
# Measurement number 	2
#
%VNR 1.0
%MOD 	RAT
%TYP 	SCN
%SCN 	PRO
%FLD 	ION
%DAT 	02-02-2012
%TIM 	12:00:00
%FSZ 	040	040
%BMT 	PHO	   4.0
%SSD 	1000
%BUP 	0
%BRD 	1000
%FSH 	1
%ASC 	0
%WEG 	60
%GPO 	0
%CPO 	0
%MEA 	6
%PRD 	50,0
%PTS 	645
%STS 	    -71.0	  0.0	   50.0 # Start Scan values in mm ( X , Y , Z )
%EDS 	    71.0	   0.0	   50.0 # End Scan values in mm ( X , Y , Z )
#
#	  X      Y      Z     Dose
#
=	-71.0	0.0	50.0	1.5
=	-70.8	0.0	50.0	1.5
=	-70.5	0.0	50.0	1.5
=	-70.2	0.0	50.0	1.5
=	-70.1	0.0	50.0	1.5
=	-69.8	0.0	50.0	1.5
=	-69.4	0.0	50.0	1.5
=	-69.3	0.0	50.0	1.5
=	-69.0	0.0	50.0	1.5
=	-68.8	0.0	50.0	1.5
=	-68.5	0.0	50.0	1.5
=	-68.3	0.0	50.0	1.5
=	-68.1	0.0	50.0	1.5
=	-67.7	0.0	50.0	1.5
=	-67.3	0.0	50.0	1.5
=	-67.2	0.0	50.0	1.5
=	-66.9	0.0	50.0	1.5
=	-66.7	0.0	50.0	1.5
=	-66.5	0.0	50.0	1.5
=	-66.2	0.0	50.0	1.5
=	-66.0	0.0	50.0	1.5
=	-65.8	0.0	50.0	1.5
=	-65.7	0.0	50.0	1.5
=	-65.6	0.0	50.0	1.5
=	-65.5	0.0	50.0	1.5
=	-65.2	0.0	50.0	1.5
=	-65.1	0.0	50.0	1.5
=	-64.9	0.0	50.0	1.5
=	-64.7	0.0	50.0	1.5
=	-64.5	0.0	50.0	1.5
=	-64.3	0.0	50.0	1.5
=	-64.2	0.0	50.0	1.5
=	-63.9	0.0	50.0	1.5
=	-63.6	0.0	50.0	1.5
=	-63.5	0.0	50.0	1.5
=	-63.4	0.0	50.0	1.5
=	-63.2	0.0	50.0	1.5
=	-63.0	0.0	50.0	1.5
=	-62.7	0.0	50.0	1.5
=	-62.3	0.0	50.0	1.6
=	-62.1	0.0	50.0	1.6
=	-61.9	0.0	50.0	1.6
=	-61.6	0.0	50.0	1.6
=	-61.5	0.0	50.0	1.6
=	-61.4	0.0	50.0	1.6
=	-61.1	0.0	50.0	1.6
=	-61.0	0.0	50.0	1.6
=	-60.7	0.0	50.0	1.6
=	-60.6	0.0	50.0	1.6
=	-60.3	0.0	50.0	1.6
=	-60.1	0.0	50.0	1.6
=	-59.9	0.0	50.0	1.6
=	-59.7	0.0	50.0	1.6
=	-59.5	0.0	50.0	1.6
=	-59.3	0.0	50.0	1.6
=	-59.1	0.0	50.0	1.6
=	-58.9	0.0	50.0	1.6
=	-58.7	0.0	50.0	1.6
=	-58.6	0.0	50.0	1.6
=	-58.4	0.0	50.0	1.6
=	-58.1	0.0	50.0	1.6
=	-57.7	0.0	50.0	1.7
=	-57.2	0.0	50.0	1.7
=	-57.1	0.0	50.0	1.7
=	-56.8	0.0	50.0	1.7
=	-56.6	0.0	50.0	1.7
=	-56.4	0.0	50.0	1.7
=	-56.0	0.0	50.0	1.7
=	-55.6	0.0	50.0	1.7
=	-55.2	0.0	50.0	1.8
=	-55.0	0.0	50.0	1.8
=	-54.8	0.0	50.0	1.8
=	-54.5	0.0	50.0	1.8
=	-54.4	0.0	50.0	1.8
=	-54.0	0.0	50.0	1.8
=	-53.6	0.0	50.0	1.8
=	-53.2	0.0	50.0	1.8
=	-53.0	0.0	50.0	1.8
=	-52.8	0.0	50.0	1.9
=	-52.7	0.0	50.0	1.9
=	-52.5	0.0	50.0	1.9
=	-52.3	0.0	50.0	1.9
=	-52.0	0.0	50.0	1.9
=	-51.9	0.0	50.0	1.9
=	-51.6	0.0	50.0	1.9
=	-51.5	0.0	50.0	1.9
=	-51.2	0.0	50.0	2.0
=	-51.0	0.0	50.0	2.0
=	-50.8	0.0	50.0	2.0
=	-50.6	0.0	50.0	2.0
=	-50.5	0.0	50.0	2.0
=	-50.2	0.0	50.0	2.0
=	-50.0	0.0	50.0	2.0
=	-49.8	0.0	50.0	2.0
=	-49.6	0.0	50.0	2.0
=	-49.5	0.0	50.0	2.0
=	-49.3	0.0	50.0	2.0
=	-49.0	0.0	50.0	2.1
=	-48.8	0.0	50.0	2.1
=	-48.6	0.0	50.0	2.1
=	-48.5	0.0	50.0	2.1
=	-48.2	0.0	50.0	2.1
=	-48.1	0.0	50.0	2.1
=	-47.8	0.0	50.0	2.1
=	-47.7	0.0	50.0	2.1
=	-47.5	0.0	50.0	2.2
=	-47.3	0.0	50.0	2.2
=	-47.0	0.0	50.0	2.2
=	-46.5	0.0	50.0	2.2
=	-46.1	0.0	50.0	2.2
=	-45.9	0.0	50.0	2.3
=	-45.7	0.0	50.0	2.3
=	-45.4	0.0	50.0	2.3
=	-45.3	0.0	50.0	2.3
=	-44.9	0.0	50.0	2.3
=	-44.5	0.0	50.0	2.4
=	-44.1	0.0	50.0	2.4
=	-43.9	0.0	50.0	2.4
=	-43.7	0.0	50.0	2.5
=	-43.4	0.0	50.0	2.5
=	-43.3	0.0	50.0	2.5
=	-42.9	0.0	50.0	2.5
=	-42.5	0.0	50.0	2.6
=	-42.1	0.0	50.0	2.6
=	-41.9	0.0	50.0	2.6
=	-41.7	0.0	50.0	2.6
=	-41.4	0.0	50.0	2.6
=	-41.3	0.0	50.0	2.6
=	-40.9	0.0	50.0	2.7
=	-40.5	0.0	50.0	2.7
=	-40.4	0.0	50.0	2.8
=	-40.1	0.0	50.0	2.8
=	-39.9	0.0	50.0	2.8
=	-39.7	0.0	50.0	2.8
=	-39.4	0.0	50.0	2.9
=	-39.2	0.0	50.0	2.9
=	-38.9	0.0	50.0	3.0
=	-38.8	0.0	50.0	3.0
=	-38.5	0.0	50.0	3.1
=	-38.4	0.0	50.0	3.1
=	-38.1	0.0	50.0	3.1
=	-38.0	0.0	50.0	3.1
=	-37.9	0.0	50.0	3.1
=	-37.7	0.0	50.0	3.1
=	-37.6	0.0	50.0	3.1
=	-37.4	0.0	50.0	3.2
=	-37.2	0.0	50.0	3.2
=	-36.9	0.0	50.0	3.2
=	-36.8	0.0	50.0	3.2
=	-36.5	0.0	50.0	3.3
=	-36.4	0.0	50.0	3.3
=	-36.1	0.0	50.0	3.4
=	-35.9	0.0	50.0	3.4
=	-35.8	0.0	50.0	3.4
=	-35.7	0.0	50.0	3.4
=	-35.5	0.0	50.0	3.5
=	-35.4	0.0	50.0	3.5
=	-35.1	0.0	50.0	3.5
=	-34.9	0.0	50.0	3.6
=	-34.7	0.0	50.0	3.6
=	-34.5	0.0	50.0	3.6
=	-34.3	0.0	50.0	3.7
=	-34.1	0.0	50.0	3.7
=	-33.9	0.0	50.0	3.7
=	-33.7	0.0	50.0	3.8
=	-33.4	0.0	50.0	3.8
=	-33.3	0.0	50.0	3.8
=	-33.0	0.0	50.0	3.9
=	-32.9	0.0	50.0	4.0
=	-32.6	0.0	50.0	4.0
=	-32.5	0.0	50.0	4.1
=	-32.3	0.0	50.0	4.1
=	-32.1	0.0	50.0	4.1
=	-31.9	0.0	50.0	4.1
=	-31.7	0.0	50.0	4.2
=	-31.4	0.0	50.0	4.2
=	-31.3	0.0	50.0	4.2
=	-31.0	0.0	50.0	4.3
=	-30.9	0.0	50.0	4.4
=	-30.6	0.0	50.0	4.5
=	-30.5	0.0	50.0	4.6
=	-30.4	0.0	50.0	4.7
=	-30.2	0.0	50.0	4.7
=	-30.1	0.0	50.0	4.7
=	-29.8	0.0	50.0	4.8
=	-29.7	0.0	50.0	4.9
=	-29.4	0.0	50.0	5.0
=	-29.3	0.0	50.0	5.1
=	-29.0	0.0	50.0	5.3
=	-28.7	0.0	50.0	5.4
=	-28.6	0.0	50.0	5.5
=	-28.2	0.0	50.0	5.7
=	-27.8	0.0	50.0	6.1
=	-27.6	0.0	50.0	6.2
=	-27.5	0.0	50.0	6.4
=	-27.3	0.0	50.0	6.6
=	-27.0	0.0	50.0	7.0
=	-26.8	0.0	50.0	7.2
=	-26.5	0.0	50.0	7.7
=	-26.1	0.0	50.0	8.3
=	-25.9	0.0	50.0	8.7
=	-25.7	0.0	50.0	9.3
=	-25.5	0.0	50.0	10.0
=	-25.3	0.0	50.0	10.6
=	-24.9	0.0	50.0	12.0
=	-24.8	0.0	50.0	12.6
=	-24.5	0.0	50.0	14.1
=	-24.1	0.0	50.0	16.5
=	-24.0	0.0	50.0	17.3
=	-23.7	0.0	50.0	19.5
=	-23.6	0.0	50.0	20.7
=	-23.5	0.0	50.0	21.8
=	-23.3	0.0	50.0	23.1
=	-22.9	0.0	50.0	26.6
=	-22.8	0.0	50.0	28.1
=	-22.5	0.0	50.0	31.3
=	-22.3	0.0	50.0	33.3
=	-22.1	0.0	50.0	36.0
=	-21.9	0.0	50.0	38.5
=	-21.8	0.0	50.0	40.5
=	-21.4	0.0	50.0	45.4
=	-21.3	0.0	50.0	47.0
=	-21.0	0.0	50.0	51.4
=	-20.6	0.0	50.0	56.4
=	-20.5	0.0	50.0	58.5
=	-20.4	0.0	50.0	60.2
=	-20.3	0.0	50.0	61.8
=	-20.1	0.0	50.0	64.0
=	-19.9	0.0	50.0	66.6
=	-19.8	0.0	50.0	68.4
=	-19.7	0.0	50.0	69.9
=	-19.4	0.0	50.0	73.5
=	-19.3	0.0	50.0	75.5
=	-19.0	0.0	50.0	79.3
=	-18.9	0.0	50.0	80.7
=	-18.6	0.0	50.0	83.8
=	-18.5	0.0	50.0	85.2
=	-18.3	0.0	50.0	87.0
=	-18.2	0.0	50.0	88.2
=	-18.1	0.0	50.0	89.6
=	-18.0	0.0	50.0	90.8
=	-17.8	0.0	50.0	92.5
=	-17.6	0.0	50.0	94.4
=	-17.4	0.0	50.0	96.6
=	-17.2	0.0	50.0	98.4
=	-17.0	0.0	50.0	99.8
=	-16.6	0.0	50.0	102.0
=	-16.2	0.0	50.0	104.3
=	-15.8	0.0	50.0	105.6
=	-15.6	0.0	50.0	106.3
=	-15.4	0.0	50.0	106.8
=	-15.1	0.0	50.0	107.4
=	-15.0	0.0	50.0	107.6
=	-14.6	0.0	50.0	107.9
=	-14.3	0.0	50.0	108.0
=	-14.1	0.0	50.0	108.0
=	-14.0	0.0	50.0	108.0
=	-13.6	0.0	50.0	108.1
=	-13.5	0.0	50.0	108.1
=	-13.1	0.0	50.0	108.1
=	-13.0	0.0	50.0	108.1
=	-12.8	0.0	50.0	108.1
=	-12.6	0.0	50.0	108.1
=	-12.5	0.0	50.0	108.1
=	-12.3	0.0	50.0	108.1
=	-12.1	0.0	50.0	108.1
=	-11.9	0.0	50.0	108.0
=	-11.7	0.0	50.0	108.0
=	-11.6	0.0	50.0	108.0
=	-11.3	0.0	50.0	107.9
=	-11.1	0.0	50.0	107.9
=	-10.8	0.0	50.0	107.7
=	-10.7	0.0	50.0	107.7
=	-10.4	0.0	50.0	107.6
=	-10.1	0.0	50.0	107.5
=	-9.7	0.0	50.0	107.2
=	-9.6	0.0	50.0	107.1
=	-9.3	0.0	50.0	106.9
=	-9.1	0.0	50.0	106.7
=	-8.9	0.0	50.0	106.6
=	-8.7	0.0	50.0	106.5
=	-8.5	0.0	50.0	106.4
=	-8.4	0.0	50.0	106.3
=	-8.1	0.0	50.0	106.2
=	-7.9	0.0	50.0	106.0
=	-7.7	0.0	50.0	105.9
=	-7.6	0.0	50.0	105.8
=	-7.3	0.0	50.0	105.6
=	-7.1	0.0	50.0	105.4
=	-6.9	0.0	50.0	105.2
=	-6.7	0.0	50.0	104.9
=	-6.5	0.0	50.0	104.7
=	-6.2	0.0	50.0	104.6
=	-6.1	0.0	50.0	104.5
=	-5.8	0.0	50.0	104.4
=	-5.6	0.0	50.0	104.2
=	-5.4	0.0	50.0	104.2
=	-5.2	0.0	50.0	103.8
=	-5.0	0.0	50.0	103.6
=	-4.8	0.0	50.0	103.3
=	-4.6	0.0	50.0	103.1
=	-4.4	0.0	50.0	102.9
=	-4.1	0.0	50.0	102.7
=	-3.9	0.0	50.0	102.6
=	-3.8	0.0	50.0	102.5
=	-3.5	0.0	50.0	102.3
=	-3.4	0.0	50.0	102.2
=	-3.1	0.0	50.0	102.1
=	-2.7	0.0	50.0	101.9
=	-2.5	0.0	50.0	101.8
=	-2.3	0.0	50.0	101.6
=	-2.2	0.0	50.0	101.6
=	-2.0	0.0	50.0	101.5
=	-1.8	0.0	50.0	101.3
=	-1.5	0.0	50.0	101.1
=	-1.4	0.0	50.0	101.0
=	-1.1	0.0	50.0	100.8
=	-1.0	0.0	50.0	100.7
=	-0.7	0.0	50.0	100.5
=	-0.5	0.0	50.0	100.3
=	-0.3	0.0	50.0	100.2
=	0.0	0.0	50.0	100.0
=	0.2	0.0	50.0	99.9
=	0.5	0.0	50.0	99.5
=	0.9	0.0	50.0	99.2
=	1.3	0.0	50.0	98.9
=	1.5	0.0	50.0	98.8
=	1.7	0.0	50.0	98.7
=	2.1	0.0	50.0	98.4
=	2.2	0.0	50.0	98.3
=	2.5	0.0	50.0	98.0
=	2.9	0.0	50.0	97.6
=	3.0	0.0	50.0	97.5
=	3.3	0.0	50.0	97.3
=	3.4	0.0	50.0	97.3
=	3.6	0.0	50.0	97.2
=	3.7	0.0	50.0	97.2
=	3.8	0.0	50.0	97.1
=	4.1	0.0	50.0	96.9
=	4.3	0.0	50.0	96.7
=	4.5	0.0	50.0	96.5
=	4.7	0.0	50.0	96.4
=	5.0	0.0	50.0	96.2
=	5.1	0.0	50.0	96.1
=	5.3	0.0	50.0	95.8
=	5.4	0.0	50.0	95.7
=	5.6	0.0	50.0	95.5
=	5.7	0.0	50.0	95.4
=	5.9	0.0	50.0	95.4
=	6.1	0.0	50.0	95.1
=	6.3	0.0	50.0	95.0
=	6.5	0.0	50.0	94.8
=	6.7	0.0	50.0	94.6
=	6.9	0.0	50.0	94.5
=	7.1	0.0	50.0	94.4
=	7.3	0.0	50.0	94.1
=	7.5	0.0	50.0	93.9
=	7.6	0.0	50.0	93.8
=	7.9	0.0	50.0	93.6
=	8.1	0.0	50.0	93.5
=	8.3	0.0	50.0	93.3
=	8.5	0.0	50.0	93.1
=	8.6	0.0	50.0	93.1
=	8.9	0.0	50.0	92.9
=	9.1	0.0	50.0	92.7
=	9.3	0.0	50.0	92.5
=	9.5	0.0	50.0	92.3
=	9.6	0.0	50.0	92.3
=	9.9	0.0	50.0	92.1
=	10.1	0.0	50.0	91.9
=	10.3	0.0	50.0	91.6
=	10.6	0.0	50.0	91.2
=	10.8	0.0	50.0	91.1
=	10.9	0.0	50.0	90.9
=	11.1	0.0	50.0	90.6
=	11.3	0.0	50.0	90.5
=	11.5	0.0	50.0	90.3
=	11.7	0.0	50.0	90.2
=	12.0	0.0	50.0	89.9
=	12.1	0.0	50.0	89.8
=	12.4	0.0	50.0	89.4
=	12.5	0.0	50.0	89.2
=	12.7	0.0	50.0	89.0
=	12.8	0.0	50.0	88.8
=	12.9	0.0	50.0	88.7
=	13.1	0.0	50.0	88.4
=	13.3	0.0	50.0	88.1
=	13.6	0.0	50.0	87.8
=	13.8	0.0	50.0	87.4
=	14.0	0.0	50.0	86.9
=	14.2	0.0	50.0	86.8
=	14.4	0.0	50.0	86.6
=	14.6	0.0	50.0	86.4
=	14.7	0.0	50.0	86.2
=	14.8	0.0	50.0	85.8
=	15.0	0.0	50.0	85.4
=	15.2	0.0	50.0	84.8
=	15.4	0.0	50.0	84.5
=	15.6	0.0	50.0	83.6
=	15.9	0.0	50.0	82.4
=	16.0	0.0	50.0	82.1
=	16.5	0.0	50.0	80.0
=	16.9	0.0	50.0	77.8
=	17.0	0.0	50.0	77.2
=	17.3	0.0	50.0	75.2
=	17.5	0.0	50.0	73.6
=	17.7	0.0	50.0	72.4
=	18.0	0.0	50.0	70.0
=	18.1	0.0	50.0	68.9
=	18.3	0.0	50.0	67.3
=	18.5	0.0	50.0	65.9
=	19.0	0.0	50.0	61.7
=	19.4	0.0	50.0	57.3
=	19.5	0.0	50.0	55.8
=	19.8	0.0	50.0	52.5
=	19.9	0.0	50.0	51.5
=	20.2	0.0	50.0	48.3
=	20.5	0.0	50.0	44.9
=	20.7	0.0	50.0	43.6
=	21.0	0.0	50.0	39.6
=	21.4	0.0	50.0	35.4
=	21.8	0.0	50.0	31.4
=	22.0	0.0	50.0	29.6
=	22.2	0.0	50.0	27.6
=	22.6	0.0	50.0	24.3
=	23.1	0.0	50.0	20.4
=	23.4	0.0	50.0	17.9
=	23.5	0.0	50.0	17.2
=	23.8	0.0	50.0	15.1
=	24.2	0.0	50.0	12.8
=	24.7	0.0	50.0	10.9
=	24.8	0.0	50.0	10.4
=	25.1	0.0	50.0	9.4
=	25.3	0.0	50.0	8.7
=	25.5	0.0	50.0	8.3
=	25.8	0.0	50.0	7.5
=	26.0	0.0	50.0	7.2
=	26.2	0.0	50.0	6.8
=	26.3	0.0	50.0	6.6
=	26.5	0.0	50.0	6.3
=	26.8	0.0	50.0	6.0
=	27.0	0.0	50.0	5.7
=	27.3	0.0	50.0	5.4
=	27.4	0.0	50.0	5.3
=	27.6	0.0	50.0	5.2
=	27.7	0.0	50.0	5.0
=	28.1	0.0	50.0	4.8
=	28.3	0.0	50.0	4.6
=	28.6	0.0	50.0	4.5
=	28.8	0.0	50.0	4.4
=	29.0	0.0	50.0	4.3
=	29.3	0.0	50.0	4.2
=	29.6	0.0	50.0	4.2
=	29.7	0.0	50.0	4.1
=	30.0	0.0	50.0	4.0
=	30.1	0.0	50.0	3.9
=	30.3	0.0	50.0	3.9
=	30.4	0.0	50.0	3.8
=	30.6	0.0	50.0	3.8
=	30.8	0.0	50.0	3.7
=	31.0	0.0	50.0	3.6
=	31.2	0.0	50.0	3.6
=	31.4	0.0	50.0	3.6
=	31.6	0.0	50.0	3.5
=	31.8	0.0	50.0	3.5
=	31.9	0.0	50.0	3.5
=	32.2	0.0	50.0	3.4
=	32.3	0.0	50.0	3.4
=	32.6	0.0	50.0	3.3
=	32.7	0.0	50.0	3.3
=	32.8	0.0	50.0	3.3
=	33.0	0.0	50.0	3.2
=	33.1	0.0	50.0	3.2
=	33.3	0.0	50.0	3.2
=	33.5	0.0	50.0	3.2
=	33.8	0.0	50.0	3.1
=	33.9	0.0	50.0	3.1
=	34.1	0.0	50.0	3.1
=	34.3	0.0	50.0	3.1
=	34.6	0.0	50.0	3.1
=	34.7	0.0	50.0	3.0
=	34.9	0.0	50.0	3.0
=	35.0	0.0	50.0	3.0
=	35.2	0.0	50.0	2.9
=	35.4	0.0	50.0	2.9
=	35.6	0.0	50.0	2.9
=	35.7	0.0	50.0	2.8
=	35.8	0.0	50.0	2.8
=	35.9	0.0	50.0	2.8
=	36.2	0.0	50.0	2.8
=	36.4	0.0	50.0	2.7
=	36.6	0.0	50.0	2.7
=	36.8	0.0	50.0	2.7
=	36.9	0.0	50.0	2.7
=	37.3	0.0	50.0	2.7
=	37.4	0.0	50.0	2.6
=	37.7	0.0	50.0	2.6
=	37.9	0.0	50.0	2.6
=	38.1	0.0	50.0	2.6
=	38.4	0.0	50.0	2.5
=	38.6	0.0	50.0	2.5
=	38.9	0.0	50.0	2.4
=	39.4	0.0	50.0	2.4
=	39.8	0.0	50.0	2.3
=	40.0	0.0	50.0	2.3
=	40.2	0.0	50.0	2.3
=	40.5	0.0	50.0	2.3
=	40.6	0.0	50.0	2.3
=	40.9	0.0	50.0	2.2
=	41.4	0.0	50.0	2.2
=	41.5	0.0	50.0	2.2
=	41.7	0.0	50.0	2.2
=	42.0	0.0	50.0	2.1
=	42.2	0.0	50.0	2.1
=	42.5	0.0	50.0	2.1
=	42.6	0.0	50.0	2.1
=	43.0	0.0	50.0	2.1
=	43.4	0.0	50.0	2.1
=	43.5	0.0	50.0	2.1
=	43.8	0.0	50.0	2.0
=	44.0	0.0	50.0	2.0
=	44.2	0.0	50.0	2.0
=	44.5	0.0	50.0	2.0
=	44.7	0.0	50.0	2.0
=	45.0	0.0	50.0	1.9
=	45.4	0.0	50.0	1.9
=	45.6	0.0	50.0	1.9
=	45.8	0.0	50.0	1.9
=	46.0	0.0	50.0	1.8
=	46.2	0.0	50.0	1.8
=	46.5	0.0	50.0	1.8
=	46.7	0.0	50.0	1.8
=	47.1	0.0	50.0	1.8
=	47.5	0.0	50.0	1.8
=	47.6	0.0	50.0	1.8
=	47.9	0.0	50.0	1.7
=	48.1	0.0	50.0	1.7
=	48.3	0.0	50.0	1.7
=	48.6	0.0	50.0	1.7
=	48.7	0.0	50.0	1.7
=	48.8	0.0	50.0	1.7
=	49.1	0.0	50.0	1.7
=	49.2	0.0	50.0	1.7
=	49.4	0.0	50.0	1.7
=	49.6	0.0	50.0	1.7
=	49.8	0.0	50.0	1.7
=	50.0	0.0	50.0	1.7
=	50.2	0.0	50.0	1.7
=	50.4	0.0	50.0	1.6
=	50.6	0.0	50.0	1.6
=	50.9	0.0	50.0	1.6
=	51.1	0.0	50.0	1.6
=	51.3	0.0	50.0	1.6
=	51.6	0.0	50.0	1.6
=	51.7	0.0	50.0	1.6
=	52.1	0.0	50.0	1.5
=	52.5	0.0	50.0	1.5
=	52.9	0.0	50.0	1.5
=	53.1	0.0	50.0	1.5
=	53.3	0.0	50.0	1.5
=	53.6	0.0	50.0	1.5
=	53.8	0.0	50.0	1.5
=	54.1	0.0	50.0	1.4
=	54.5	0.0	50.0	1.4
=	54.6	0.0	50.0	1.4
=	54.9	0.0	50.0	1.4
=	55.1	0.0	50.0	1.4
=	55.3	0.0	50.0	1.4
=	55.7	0.0	50.0	1.4
=	56.1	0.0	50.0	1.4
=	56.5	0.0	50.0	1.4
=	56.6	0.0	50.0	1.4
=	56.9	0.0	50.0	1.4
=	57.0	0.0	50.0	1.4
=	57.2	0.0	50.0	1.4
=	57.3	0.0	50.0	1.4
=	57.4	0.0	50.0	1.4
=	57.7	0.0	50.0	1.4
=	57.8	0.0	50.0	1.4
=	58.1	0.0	50.0	1.4
=	58.2	0.0	50.0	1.3
=	58.5	0.0	50.0	1.3
=	58.7	0.0	50.0	1.3
=	58.9	0.0	50.0	1.3
=	59.1	0.0	50.0	1.3
=	59.3	0.0	50.0	1.3
=	59.5	0.0	50.0	1.3
=	59.7	0.0	50.0	1.3
=	59.9	0.0	50.0	1.3
=	60.1	0.0	50.0	1.3
=	60.3	0.0	50.0	1.3
=	60.5	0.0	50.0	1.3
=	60.7	0.0	50.0	1.3
=	60.9	0.0	50.0	1.3
=	61.1	0.0	50.0	1.3
=	61.3	0.0	50.0	1.3
=	61.5	0.0	50.0	1.3
=	61.7	0.0	50.0	1.3
=	61.9	0.0	50.0	1.3
=	62.1	0.0	50.0	1.3
=	62.2	0.0	50.0	1.2
=	62.5	0.0	50.0	1.2
=	62.7	0.0	50.0	1.2
=	62.9	0.0	50.0	1.2
=	63.1	0.0	50.0	1.2
=	63.3	0.0	50.0	1.2
=	63.5	0.0	50.0	1.2
=	63.7	0.0	50.0	1.2
=	64.0	0.0	50.0	1.2
=	64.1	0.0	50.0	1.2
=	64.2	0.0	50.0	1.2
=	64.4	0.0	50.0	1.2
=	64.5	0.0	50.0	1.2
=	64.8	0.0	50.0	1.2
=	64.9	0.0	50.0	1.2
=	65.2	0.0	50.0	1.2
=	65.3	0.0	50.0	1.2
=	65.6	0.0	50.0	1.2
=	65.7	0.0	50.0	1.2
=	66.0	0.0	50.0	1.2
=	66.1	0.0	50.0	1.2
=	66.3	0.0	50.0	1.1
=	66.5	0.0	50.0	1.1
=	66.8	0.0	50.0	1.1
=	66.9	0.0	50.0	1.1
=	67.2	0.0	50.0	1.1
=	67.3	0.0	50.0	1.1
=	67.6	0.0	50.0	1.1
=	67.7	0.0	50.0	1.1
=	68.0	0.0	50.0	1.1
=	68.1	0.0	50.0	1.1
=	68.4	0.0	50.0	1.1
=	68.6	0.0	50.0	1.1
=	68.8	0.0	50.0	1.1
=	68.9	0.0	50.0	1.1
=	69.2	0.0	50.0	1.1
=	69.3	0.0	50.0	1.1
=	69.7	0.0	50.0	1.1
=	69.8	0.0	50.0	1.1
=	70.1	0.0	50.0	1.1
=	70.2	0.0	50.0	1.1
=	70.5	0.0	50.0	1.0
=	70.7	0.0	50.0	1.0
=	70.9	0.0	50.0	1.0
=	71.0	0.0	50.0	1.1
:EOM # End of Measurement
#
# RFA300 ASCII Measurement Dump ( BDS format )
#
# Measurement number 	3
#
%VNR 1.0
%MOD 	RAT
%TYP 	SCN
%SCN 	PRO
%FLD 	ION
%DAT 	02-02-2012
%TIM 	12:00:00
%FSZ 	040	040
%BMT 	PHO	   4.0
%SSD 	1000
%BUP 	0
%BRD 	1000
%FSH 	1
%ASC 	0
%WEG 	60
%GPO 	0
%CPO 	0
%MEA 	6
%PRD 	100,0
%PTS 	640
%STS 	    -72.0	  0.0	   100.0 # Start Scan values in mm ( X , Y , Z )
%EDS 	    72.0	   0.0	   100.0 # End Scan values in mm ( X , Y , Z )
#
#	  X      Y      Z     Dose
#
=	-72.0	0.0	100.0	1.9
=	-71.9	0.0	100.0	1.9
=	-71.7	0.0	100.0	1.9
=	-71.6	0.0	100.0	1.9
=	-71.2	0.0	100.0	2.0
=	-71.1	0.0	100.0	2.0
=	-70.9	0.0	100.0	2.0
=	-70.7	0.0	100.0	2.0
=	-70.3	0.0	100.0	2.0
=	-70.2	0.0	100.0	2.0
=	-69.9	0.0	100.0	2.0
=	-69.8	0.0	100.0	2.0
=	-69.6	0.0	100.0	2.0
=	-69.5	0.0	100.0	2.0
=	-69.4	0.0	100.0	2.0
=	-69.1	0.0	100.0	2.0
=	-69.0	0.0	100.0	2.0
=	-68.7	0.0	100.0	2.0
=	-68.3	0.0	100.0	2.0
=	-67.9	0.0	100.0	2.0
=	-67.8	0.0	100.0	2.0
=	-67.5	0.0	100.0	2.0
=	-67.4	0.0	100.0	2.0
=	-67.1	0.0	100.0	2.0
=	-67.0	0.0	100.0	2.1
=	-66.8	0.0	100.0	2.1
=	-66.7	0.0	100.0	2.1
=	-66.5	0.0	100.0	2.1
=	-66.3	0.0	100.0	2.1
=	-66.1	0.0	100.0	2.1
=	-65.9	0.0	100.0	2.1
=	-65.7	0.0	100.0	2.1
=	-65.4	0.0	100.0	2.1
=	-65.3	0.0	100.0	2.1
=	-65.0	0.0	100.0	2.2
=	-64.9	0.0	100.0	2.2
=	-64.8	0.0	100.0	2.2
=	-64.6	0.0	100.0	2.2
=	-64.5	0.0	100.0	2.2
=	-64.2	0.0	100.0	2.2
=	-64.1	0.0	100.0	2.2
=	-63.8	0.0	100.0	2.2
=	-63.7	0.0	100.0	2.2
=	-63.4	0.0	100.0	2.2
=	-63.3	0.0	100.0	2.2
=	-63.0	0.0	100.0	2.2
=	-62.8	0.0	100.0	2.2
=	-62.6	0.0	100.0	2.2
=	-62.5	0.0	100.0	2.2
=	-62.3	0.0	100.0	2.2
=	-62.1	0.0	100.0	2.3
=	-61.9	0.0	100.0	2.3
=	-61.8	0.0	100.0	2.3
=	-61.6	0.0	100.0	2.3
=	-61.5	0.0	100.0	2.3
=	-61.3	0.0	100.0	2.3
=	-61.1	0.0	100.0	2.3
=	-60.8	0.0	100.0	2.3
=	-60.7	0.0	100.0	2.3
=	-60.4	0.0	100.0	2.3
=	-60.3	0.0	100.0	2.3
=	-60.0	0.0	100.0	2.3
=	-59.9	0.0	100.0	2.3
=	-59.8	0.0	100.0	2.3
=	-59.6	0.0	100.0	2.3
=	-59.5	0.0	100.0	2.4
=	-59.2	0.0	100.0	2.4
=	-59.1	0.0	100.0	2.4
=	-58.8	0.0	100.0	2.4
=	-58.4	0.0	100.0	2.4
=	-58.2	0.0	100.0	2.4
=	-58.0	0.0	100.0	2.4
=	-57.7	0.0	100.0	2.4
=	-57.6	0.0	100.0	2.5
=	-57.5	0.0	100.0	2.5
=	-57.2	0.0	100.0	2.5
=	-57.1	0.0	100.0	2.5
=	-56.8	0.0	100.0	2.5
=	-56.4	0.0	100.0	2.5
=	-56.2	0.0	100.0	2.6
=	-56.0	0.0	100.0	2.6
