:MSR 	5	 # No. of measurement in file
:SYS BDS 0   # Beam Data Scanner System
#
# RFA300 ASCII Measurement Dump ( BDS format )
#
# Measurement number 	1
#
%VNR 1.0
%MOD 	RAT
%TYP 	SCN
%SCN 	PRO
%FLD 	ION
%DAT 	02-03-2012
%TIM 	12:00:00
%FSZ 	400	150
%BMT 	PHO	   4.0
%SSD 	1000
%BUP 	0
%BRD 	1000
%FSH 	1
%ASC 	0
%WEG 	60
%GPO 	0
%CPO 	0
%MEA 	6
%PRD 	12,0
%PTS 	701
%STS 	    0.0	  -272.2	   12.0 # Start Scan values in mm ( X , Y , Z )
%EDS 	    0.0	   271.6	   12.0 # End Scan values in mm ( X , Y , Z )
#
#	  X      Y      Z     Dose
#
=	0.0	-272.2	12.0	6.7
=	0.0	-271.4	12.0	6.7
=	0.0	-270.6	12.0	6.7
=	0.0	-269.9	12.0	6.7
=	0.0	-269.1	12.0	6.8
=	0.0	-268.4	12.0	6.8
=	0.0	-267.9	12.0	6.8
=	0.0	-267.1	12.0	6.8
=	0.0	-266.5	12.0	6.9
=	0.0	-265.8	12.0	6.9
=	0.0	-265.0	12.0	6.9
=	0.0	-264.2	12.0	6.9
=	0.0	-263.5	12.0	6.9
=	0.0	-263.0	12.0	6.9
=	0.0	-262.5	12.0	7.0
=	0.0	-262.0	12.0	7.0
=	0.0	-261.5	12.0	7.0
=	0.0	-261.0	12.0	7.0
=	0.0	-260.5	12.0	7.0
=	0.0	-259.9	12.0	7.1
=	0.0	-259.4	12.0	7.1
=	0.0	-258.8	12.0	7.1
=	0.0	-258.1	12.0	7.1
=	0.0	-257.4	12.0	7.2
=	0.0	-256.6	12.0	7.2
=	0.0	-255.8	12.0	7.2
=	0.0	-255.1	12.0	7.2
=	0.0	-254.3	12.0	7.2
=	0.0	-253.6	12.0	7.3
=	0.0	-252.8	12.0	7.3
=	0.0	-252.1	12.0	7.4
=	0.0	-251.3	12.0	7.4
=	0.0	-250.6	12.0	7.4
=	0.0	-249.8	12.0	7.4
=	0.0	-249.1	12.0	7.5
=	0.0	-248.3	12.0	7.5
=	0.0	-247.5	12.0	7.5
=	0.0	-246.8	12.0	7.6
=	0.0	-246.1	12.0	7.6
=	0.0	-245.3	12.0	7.7
=	0.0	-244.7	12.0	7.7
=	0.0	-244.0	12.0	7.7
=	0.0	-243.2	12.0	7.8
=	0.0	-242.5	12.0	7.8
=	0.0	-241.7	12.0	7.8
=	0.0	-241.0	12.0	7.9
=	0.0	-240.2	12.0	7.9
=	0.0	-239.5	12.0	7.9
=	0.0	-238.7	12.0	8.0
=	0.0	-238.0	12.0	8.0
=	0.0	-237.2	12.0	8.0
=	0.0	-236.5	12.0	8.0
=	0.0	-235.7	12.0	8.1
=	0.0	-235.0	12.0	8.1
=	0.0	-234.2	12.0	8.1
=	0.0	-233.5	12.0	8.2
=	0.0	-232.7	12.0	8.2
=	0.0	-231.9	12.0	8.3
=	0.0	-231.2	12.0	8.3
=	0.0	-230.5	12.0	8.4
=	0.0	-229.7	12.0	8.4
=	0.0	-229.0	12.0	8.5
=	0.0	-228.3	12.0	8.6
=	0.0	-227.5	12.0	8.7
=	0.0	-226.7	12.0	8.8
=	0.0	-226.0	12.0	8.8
=	0.0	-225.2	12.0	8.9
=	0.0	-224.5	12.0	9.0
=	0.0	-223.7	12.0	9.1
=	0.0	-222.9	12.0	9.2
=	0.0	-222.2	12.0	9.3
=	0.0	-221.4	12.0	9.4
=	0.0	-220.7	12.0	9.5
=	0.0	-219.9	12.0	9.6
=	0.0	-219.1	12.0	9.7
=	0.0	-218.4	12.0	9.7
=	0.0	-217.6	12.0	9.9
=	0.0	-216.9	12.0	10.0
=	0.0	-216.1	12.0	10.1
=	0.0	-215.4	12.0	10.3
=	0.0	-214.6	12.0	10.4
=	0.0	-213.9	12.0	10.5
=	0.0	-213.1	12.0	10.7
=	0.0	-212.4	12.0	10.9
=	0.0	-211.6	12.0	11.1
=	0.0	-210.8	12.0	11.4
=	0.0	-210.1	12.0	11.8
=	0.0	-209.3	12.0	12.3
=	0.0	-208.6	12.0	13.2
=	0.0	-207.8	12.0	14.4
=	0.0	-207.1	12.0	16.0
=	0.0	-206.4	12.0	18.5
=	0.0	-205.6	12.0	21.9
=	0.0	-204.8	12.0	26.2
=	0.0	-204.1	12.0	31.4
=	0.0	-203.3	12.0	37.3
=	0.0	-202.6	12.0	43.6
=	0.0	-201.8	12.0	50.4
=	0.0	-201.1	12.0	57.6
=	0.0	-200.3	12.0	64.5
=	0.0	-199.5	12.0	71.2
=	0.0	-198.8	12.0	76.4
=	0.0	-198.0	12.0	80.9
=	0.0	-197.3	12.0	84.4
=	0.0	-196.5	12.0	86.8
=	0.0	-195.8	12.0	88.4
=	0.0	-195.0	12.0	89.4
=	0.0	-194.3	12.0	90.2
=	0.0	-193.5	12.0	90.7
=	0.0	-192.8	12.0	91.0
=	0.0	-192.0	12.0	91.2
=	0.0	-191.3	12.0	91.4
=	0.0	-190.5	12.0	91.6
=	0.0	-189.8	12.0	91.8
=	0.0	-189.0	12.0	91.9
=	0.0	-188.3	12.0	92.1
=	0.0	-187.5	12.0	92.3
=	0.0	-186.7	12.0	92.4
=	0.0	-186.0	12.0	92.5
=	0.0	-185.3	12.0	92.7
=	0.0	-184.5	12.0	92.8
=	0.0	-183.8	12.0	92.8
=	0.0	-183.0	12.0	92.9
=	0.0	-182.2	12.0	93.1
=	0.0	-181.5	12.0	93.1
=	0.0	-180.7	12.0	93.2
=	0.0	-179.9	12.0	93.3
=	0.0	-179.2	12.0	93.5
=	0.0	-178.4	12.0	93.7
=	0.0	-177.7	12.0	93.8
=	0.0	-177.1	12.0	93.8
=	0.0	-176.5	12.0	93.9
=	0.0	-175.8	12.0	93.9
=	0.0	-175.1	12.0	94.0
=	0.0	-174.3	12.0	94.1
=	0.0	-173.6	12.0	94.2
=	0.0	-172.8	12.0	94.4
=	0.0	-172.1	12.0	94.4
=	0.0	-171.3	12.0	94.5
=	0.0	-170.5	12.0	94.6
=	0.0	-169.8	12.0	94.7
=	0.0	-169.0	12.0	94.7
=	0.0	-168.2	12.0	94.8
=	0.0	-167.5	12.0	94.9
=	0.0	-166.7	12.0	95.0
=	0.0	-166.0	12.0	95.1
=	0.0	-165.2	12.0	95.2
=	0.0	-164.5	12.0	95.3
=	0.0	-163.7	12.0	95.3
=	0.0	-162.8	12.0	95.4
=	0.0	-161.4	12.0	95.6
=	0.0	-160.1	12.0	95.8
=	0.0	-159.2	12.0	96.0
=	0.0	-158.1	12.0	96.1
=	0.0	-156.9	12.0	96.2
=	0.0	-155.4	12.0	96.4
=	0.0	-154.2	12.0	96.5
=	0.0	-153.0	12.0	96.7
=	0.0	-152.2	12.0	96.8
=	0.0	-151.4	12.0	96.9
=	0.0	-150.5	12.0	97.0
=	0.0	-149.4	12.0	97.1
=	0.0	-148.5	12.0	97.1
=	0.0	-147.7	12.0	97.2
=	0.0	-146.4	12.0	97.3
=	0.0	-145.5	12.0	97.4
=	0.0	-144.4	12.0	97.5
=	0.0	-143.5	12.0	97.6
=	0.0	-142.7	12.0	97.6
=	0.0	-142.0	12.0	97.6
=	0.0	-141.0	12.0	97.7
=	0.0	-140.2	12.0	97.7
=	0.0	-139.5	12.0	97.8
=	0.0	-138.7	12.0	97.8
=	0.0	-137.9	12.0	97.9
=	0.0	-137.0	12.0	97.9
=	0.0	-136.2	12.0	97.9
=	0.0	-135.5	12.0	98.0
=	0.0	-134.7	12.0	98.1
=	0.0	-133.9	12.0	98.1
=	0.0	-133.1	12.0	98.1
=	0.0	-132.3	12.0	98.2
=	0.0	-131.1	12.0	98.3
=	0.0	-130.2	12.0	98.3
=	0.0	-128.8	12.0	98.4
=	0.0	-127.4	12.0	98.4
=	0.0	-126.2	12.0	98.5
=	0.0	-124.7	12.0	98.5
=	0.0	-123.2	12.0	98.6
=	0.0	-121.7	12.0	98.6
=	0.0	-120.2	12.0	98.7
=	0.0	-118.7	12.0	98.8
=	0.0	-117.5	12.0	98.9
=	0.0	-116.8	12.0	99.0
=	0.0	-116.0	12.0	99.0
=	0.0	-115.3	12.0	99.1
=	0.0	-114.5	12.0	99.1
=	0.0	-113.7	12.0	99.2
=	0.0	-112.9	12.0	99.3
=	0.0	-112.3	12.0	99.3
=	0.0	-111.4	12.0	99.3
=	0.0	-110.7	12.0	99.3
=	0.0	-109.9	12.0	99.4
=	0.0	-109.2	12.0	99.4
=	0.0	-108.4	12.0	99.4
=	0.0	-107.9	12.0	99.4
=	0.0	-107.2	12.0	99.4
=	0.0	-106.4	12.0	99.4
=	0.0	-105.7	12.0	99.5
=	0.0	-105.1	12.0	99.5
=	0.0	-104.5	12.0	99.5
=	0.0	-104.0	12.0	99.5
=	0.0	-103.5	12.0	99.6
=	0.0	-103.0	12.0	99.6
=	0.0	-102.5	12.0	99.6
=	0.0	-101.9	12.0	99.6
=	0.0	-101.1	12.0	99.7
=	0.0	-100.4	12.0	99.7
=	0.0	-99.8	12.0	99.7
=	0.0	-99.3	12.0	99.8
=	0.0	-98.8	12.0	99.8
=	0.0	-98.1	12.0	99.8
=	0.0	-97.5	12.0	99.8
=	0.0	-96.8	12.0	99.9
=	0.0	-96.1	12.0	99.9
=	0.0	-95.3	12.0	100.0
=	0.0	-94.6	12.0	100.0
=	0.0	-94.1	12.0	100.0
=	0.0	-93.3	12.0	100.0
=	0.0	-92.5	12.0	100.0
=	0.0	-91.8	12.0	100.0
=	0.0	-91.0	12.0	100.0
=	0.0	-90.2	12.0	100.1
=	0.0	-89.5	12.0	100.1
=	0.0	-88.7	12.0	100.2
=	0.0	-88.0	12.0	100.2
=	0.0	-87.2	12.0	100.3
=	0.0	-86.5	12.0	100.3
=	0.0	-85.7	12.0	100.3
=	0.0	-85.0	12.0	100.3
=	0.0	-84.2	12.0	100.4
=	0.0	-83.5	12.0	100.4
=	0.0	-82.7	12.0	100.4
=	0.0	-82.0	12.0	100.4
=	0.0	-81.2	12.0	100.4
=	0.0	-80.7	12.0	100.4
=	0.0	-80.2	12.0	100.4
=	0.0	-79.4	12.0	100.4
=	0.0	-78.9	12.0	100.5
=	0.0	-78.2	12.0	100.5
=	0.0	-77.4	12.0	100.6
=	0.0	-76.7	12.0	100.6
=	0.0	-75.9	12.0	100.7
=	0.0	-75.1	12.0	100.7
=	0.0	-74.4	12.0	100.7
=	0.0	-73.6	12.0	100.7
=	0.0	-72.9	12.0	100.8
=	0.0	-72.1	12.0	100.7
=	0.0	-71.4	12.0	100.8
=	0.0	-70.6	12.0	100.8
=	0.0	-69.9	12.0	100.9
=	0.0	-69.1	12.0	100.9
=	0.0	-68.3	12.0	100.9
=	0.0	-67.6	12.0	101.0
=	0.0	-66.8	12.0	101.0
=	0.0	-66.1	12.0	101.0
=	0.0	-65.3	12.0	101.0
=	0.0	-64.6	12.0	101.1
=	0.0	-63.8	12.0	101.1
=	0.0	-63.1	12.0	101.1
=	0.0	-62.3	12.0	101.0
=	0.0	-61.8	12.0	101.0
=	0.0	-61.1	12.0	100.9
=	0.0	-60.5	12.0	100.9
=	0.0	-59.8	12.0	101.0
=	0.0	-59.1	12.0	101.0
=	0.0	-58.3	12.0	101.0
=	0.0	-57.5	12.0	101.0
=	0.0	-56.8	12.0	101.1
=	0.0	-56.0	12.0	101.1
=	0.0	-55.2	12.0	101.1
=	0.0	-54.5	12.0	101.2
=	0.0	-53.7	12.0	101.2
=	0.0	-53.0	12.0	101.2
=	0.0	-52.2	12.0	101.2
=	0.0	-51.5	12.0	101.2
=	0.0	-50.7	12.0	101.2
=	0.0	-50.0	12.0	101.2
=	0.0	-49.4	12.0	101.1
=	0.0	-48.7	12.0	101.1
=	0.0	-47.9	12.0	101.1
=	0.0	-47.2	12.0	101.1
=	0.0	-46.5	12.0	101.1
=	0.0	-45.7	12.0	101.1
=	0.0	-44.9	12.0	101.1
=	0.0	-44.1	12.0	101.0
=	0.0	-43.4	12.0	101.0
=	0.0	-42.6	12.0	101.0
=	0.0	-41.9	12.0	101.0
=	0.0	-41.1	12.0	101.0
=	0.0	-40.4	12.0	101.0
=	0.0	-39.6	12.0	101.0
=	0.0	-38.9	12.0	101.0
=	0.0	-38.1	12.0	101.0
=	0.0	-37.4	12.0	101.0
=	0.0	-36.6	12.0	101.0
=	0.0	-35.9	12.0	101.0
=	0.0	-35.1	12.0	101.0
=	0.0	-34.4	12.0	100.9
=	0.0	-33.6	12.0	100.9
=	0.0	-32.7	12.0	100.8
=	0.0	-31.6	12.0	100.9
=	0.0	-30.3	12.0	100.9
=	0.0	-29.0	12.0	100.8
=	0.0	-27.8	12.0	100.8
=	0.0	-27.0	12.0	100.8
=	0.0	-25.8	12.0	100.7
=	0.0	-25.0	12.0	100.7
=	0.0	-24.2	12.0	100.8
=	0.0	-23.5	12.0	100.8
=	0.0	-22.7	12.0	100.8
=	0.0	-22.0	12.0	100.8
=	0.0	-21.2	12.0	100.8
=	0.0	-20.4	12.0	100.8
=	0.0	-19.7	12.0	100.8
=	0.0	-18.9	12.0	100.7
=	0.0	-18.1	12.0	100.7
=	0.0	-17.4	12.0	100.7
=	0.0	-16.6	12.0	100.6
=	0.0	-15.9	12.0	100.6
=	0.0	-15.1	12.0	100.6
=	0.0	-14.3	12.0	100.5
=	0.0	-13.6	12.0	100.4
=	0.0	-12.8	12.0	100.4
=	0.0	-12.1	12.0	100.3
=	0.0	-11.3	12.0	100.3
=	0.0	-10.5	12.0	100.2
=	0.0	-9.8	12.0	100.2
=	0.0	-9.0	12.0	100.2
=	0.0	-8.3	12.0	100.2
=	0.0	-7.5	12.0	100.3
=	0.0	-6.8	12.0	100.3
=	0.0	-6.0	12.0	100.2
=	0.0	-5.2	12.0	100.2
=	0.0	-4.5	12.0	100.2
=	0.0	-3.7	12.0	100.2
=	0.0	-2.9	12.0	100.1
=	0.0	-2.2	12.0	100.1
=	0.0	-1.4	12.0	100.0
=	0.0	-0.7	12.0	100.0
=	0.0	0.0	12.0	100.0
=	0.0	0.2	12.0	100.0
=	0.0	0.9	12.0	100.0
=	0.0	1.7	12.0	100.0
=	0.0	2.4	12.0	100.1
=	0.0	3.2	12.0	100.1
=	0.0	3.9	12.0	100.2
=	0.0	4.7	12.0	100.2
=	0.0	5.5	12.0	100.2
=	0.0	6.2	12.0	100.3
=	0.0	7.0	12.0	100.3
=	0.0	7.8	12.0	100.3
=	0.0	8.5	12.0	100.2
=	0.0	9.3	12.0	100.2
=	0.0	10.0	12.0	100.2
=	0.0	10.8	12.0	100.2
=	0.0	11.6	12.0	100.3
=	0.0	12.3	12.0	100.3
=	0.0	13.1	12.0	100.4
=	0.0	13.8	12.0	100.4
=	0.0	14.6	12.0	100.5
=	0.0	15.4	12.0	100.6
=	0.0	16.1	12.0	100.6
=	0.0	16.9	12.0	100.7
=	0.0	17.7	12.0	100.7
=	0.0	18.4	12.0	100.7
=	0.0	19.2	12.0	100.8
=	0.0	19.9	12.0	100.8
=	0.0	20.7	12.0	100.8
=	0.0	21.4	12.0	100.8
=	0.0	22.2	12.0	100.8
=	0.0	23.0	12.0	100.8
=	0.0	23.8	12.0	100.8
=	0.0	24.5	12.0	100.8
=	0.0	25.3	12.0	100.7
=	0.0	26.2	12.0	100.7
=	0.0	27.3	12.0	100.8
=	0.0	28.2	12.0	100.8
=	0.0	29.4	12.0	100.8
=	0.0	30.8	12.0	100.9
=	0.0	31.9	12.0	100.9
=	0.0	33.1	12.0	100.8
=	0.0	33.9	12.0	100.9
=	0.0	34.6	12.0	100.9
=	0.0	35.4	12.0	101.0
=	0.0	36.1	12.0	101.0
=	0.0	36.9	12.0	101.0
=	0.0	37.6	12.0	101.0
=	0.0	38.4	12.0	101.0
=	0.0	39.1	12.0	101.0
=	0.0	39.9	12.0	101.0
=	0.0	40.6	12.0	101.0
=	0.0	41.4	12.0	101.0
=	0.0	42.1	12.0	101.0
=	0.0	42.9	12.0	101.0
=	0.0	43.6	12.0	101.0
=	0.0	44.4	12.0	101.1
=	0.0	45.2	12.0	101.1
=	0.0	45.9	12.0	101.1
=	0.0	46.7	12.0	101.1
=	0.0	47.5	12.0	101.1
=	0.0	48.1	12.0	101.1
=	0.0	49.0	12.0	101.1
=	0.0	49.6	12.0	101.1
=	0.0	50.2	12.0	101.2
=	0.0	51.0	12.0	101.2
=	0.0	51.7	12.0	101.2
=	0.0	52.5	12.0	101.2
=	0.0	53.2	12.0	101.2
=	0.0	54.0	12.0	101.2
=	0.0	54.7	12.0	101.2
=	0.0	55.5	12.0	101.1
=	0.0	56.3	12.0	101.1
=	0.0	57.0	12.0	101.1
=	0.0	57.8	12.0	101.0
=	0.0	58.6	12.0	101.0
=	0.0	59.3	12.0	101.0
=	0.0	60.0	12.0	101.0
=	0.0	60.7	12.0	100.9
=	0.0	61.3	12.0	100.9
=	0.0	61.9	12.0	101.0
=	0.0	62.6	12.0	101.0
=	0.0	63.3	12.0	101.1
=	0.0	64.1	12.0	101.1
=	0.0	64.8	12.0	101.1
=	0.0	65.6	12.0	101.0
=	0.0	66.3	12.0	101.0
=	0.0	67.1	12.0	101.0
=	0.0	67.8	12.0	100.9
=	0.0	68.6	12.0	100.9
=	0.0	69.3	12.0	100.9
=	0.0	70.1	12.0	100.9
=	0.0	70.9	12.0	100.8
=	0.0	71.6	12.0	100.7
=	0.0	72.4	12.0	100.7
=	0.0	73.1	12.0	100.8
=	0.0	73.9	12.0	100.7
=	0.0	74.6	12.0	100.7
=	0.0	75.4	12.0	100.7
=	0.0	76.1	12.0	100.7
=	0.0	76.9	12.0	100.6
=	0.0	77.7	12.0	100.5
=	0.0	78.4	12.0	100.5
=	0.0	79.1	12.0	100.5
=	0.0	79.7	12.0	100.4
=	0.0	80.4	12.0	100.4
=	0.0	80.9	12.0	100.4
=	0.0	81.5	12.0	100.4
=	0.0	82.2	12.0	100.4
=	0.0	83.0	12.0	100.4
=	0.0	83.7	12.0	100.4
=	0.0	84.5	12.0	100.4
=	0.0	85.2	12.0	100.3
=	0.0	86.0	12.0	100.3
=	0.0	86.7	12.0	100.3
=	0.0	87.5	12.0	100.2
=	0.0	88.2	12.0	100.2
=	0.0	89.0	12.0	100.1
=	0.0	89.7	12.0	100.1
=	0.0	90.5	12.0	100.1
=	0.0	91.3	12.0	100.0
=	0.0	92.0	12.0	100.0
=	0.0	92.8	12.0	100.0
=	0.0	93.6	12.0	100.0
=	0.0	94.3	12.0	100.0
=	0.0	94.8	12.0	100.0
=	0.0	95.6	12.0	100.0
=	0.0	96.3	12.0	99.9
=	0.0	97.1	12.0	99.9
=	0.0	97.6	12.0	99.8
=	0.0	98.3	12.0	99.8
=	0.0	99.0	12.0	99.8
=	0.0	99.5	12.0	99.7
=	0.0	100.0	12.0	99.7
=	0.0	100.6	12.0	99.7
=	0.0	101.4	12.0	99.7
=	0.0	102.1	12.0	99.6
=	0.0	102.7	12.0	99.6
=	0.0	103.2	12.0	99.6
=	0.0	103.7	12.0	99.6
=	0.0	104.2	12.0	99.5
=	0.0	104.7	12.0	99.5
=	0.0	105.2	12.0	99.5
=	0.0	105.9	12.0	99.4
=	0.0	106.7	12.0	99.4
=	0.0	107.4	12.0	99.4
=	0.0	108.1	12.0	99.4
=	0.0	108.7	12.0	99.4
=	0.0	109.4	12.0	99.4
=	0.0	110.2	12.0	99.4
=	0.0	110.9	12.0	99.3
=	0.0	111.7	12.0	99.3
=	0.0	112.5	12.0	99.3
=	0.0	113.2	12.0	99.3
=	0.0	114.0	12.0	99.2
=	0.0	114.8	12.0	99.1
=	0.0	115.5	12.0	99.0
=	0.0	116.3	12.0	99.0
=	0.0	117.0	12.0	99.0
=	0.0	117.8	12.0	98.9
=	0.0	119.2	12.0	98.8
=	0.0	120.7	12.0	98.7
=	0.0	122.2	12.0	98.6
=	0.0	123.7	12.0	98.6
=	0.0	125.2	12.0	98.5
=	0.0	126.7	12.0	98.4
=	0.0	127.8	12.0	98.4
=	0.0	129.3	12.0	98.4
=	0.0	130.6	12.0	98.3
=	0.0	131.4	12.0	98.3
=	0.0	132.6	12.0	98.2
=	0.0	133.5	12.0	98.1
=	0.0	134.1	12.0	98.1
=	0.0	135.0	12.0	98.0
=	0.0	135.7	12.0	97.9
=	0.0	136.5	12.0	97.9
=	0.0	137.3	12.0	97.9
=	0.0	138.2	12.0	97.9
=	0.0	139.0	12.0	97.8
=	0.0	139.7	12.0	97.8
=	0.0	140.5	12.0	97.7
=	0.0	141.3	12.0	97.7
=	0.0	142.2	12.0	97.6
=	0.0	143.0	12.0	97.6
=	0.0	143.7	12.0	97.6
=	0.0	144.8	12.0	97.5
=	0.0	145.7	12.0	97.4
=	0.0	146.9	12.0	97.3
=	0.0	148.0	12.0	97.1
=	0.0	148.7	12.0	97.1
=	0.0	149.8	12.0	97.0
=	0.0	150.7	12.0	97.0
=	0.0	151.7	12.0	96.9
=	0.0	152.5	12.0	96.7
=	0.0	153.4	12.0	96.6
=	0.0	154.5	12.0	96.5
=	0.0	155.9	12.0	96.3
=	0.0	157.4	12.0	96.2
=	0.0	158.4	12.0	96.1
=	0.0	159.6	12.0	95.9
=	0.0	160.5	12.0	95.8
=	0.0	161.9	12.0	95.6
=	0.0	163.2	12.0	95.4
=	0.0	164.0	12.0	95.3
=	0.0	164.7	12.0	95.3
=	0.0	165.5	12.0	95.2
=	0.0	166.2	12.0	95.0
=	0.0	167.0	12.0	95.0
=	0.0	167.7	12.0	94.9
=	0.0	168.5	12.0	94.8
=	0.0	169.2	12.0	94.7
=	0.0	170.0	12.0	94.6
=	0.0	170.8	12.0	94.5
=	0.0	171.6	12.0	94.5
=	0.0	172.3	12.0	94.4
=	0.0	173.0	12.0	94.3
=	0.0	173.8	12.0	94.2
=	0.0	174.6	12.0	94.1
=	0.0	175.3	12.0	94.0
=	0.0	176.1	12.0	93.9
=	0.0	176.6	12.0	93.8
=	0.0	177.3	12.0	93.8
=	0.0	177.9	12.0	93.8
=	0.0	178.7	12.0	93.7
=	0.0	179.4	12.0	93.4
=	0.0	180.2	12.0	93.3
=	0.0	181.0	12.0	93.2
=	0.0	181.7	12.0	93.1
=	0.0	182.5	12.0	93.0
=	0.0	183.3	12.0	92.9
=	0.0	184.0	12.0	92.8
=	0.0	184.8	12.0	92.7
=	0.0	185.5	12.0	92.6
=	0.0	186.2	12.0	92.4
=	0.0	187.0	12.0	92.3
=	0.0	187.8	12.0	92.2
=	0.0	188.5	12.0	92.0
=	0.0	189.3	12.0	91.8
=	0.0	190.0	12.0	91.7
=	0.0	190.8	12.0	91.5
=	0.0	191.5	12.0	91.3
=	0.0	192.3	12.0	91.1
=	0.0	193.0	12.0	90.9
=	0.0	193.8	12.0	90.5
=	0.0	194.5	12.0	89.9
=	0.0	195.3	12.0	89.1
=	0.0	196.1	12.0	87.9
=	0.0	196.8	12.0	86.1
=	0.0	197.5	12.0	83.5
=	0.0	198.3	12.0	79.4
=	0.0	199.0	12.0	74.9
=	0.0	199.8	12.0	69.1
=	0.0	200.6	12.0	62.2
=	0.0	201.3	12.0	55.2
=	0.0	202.1	12.0	48.1
=	0.0	202.8	12.0	41.5
=	0.0	203.6	12.0	35.3
=	0.0	204.3	12.0	29.6
=	0.0	205.1	12.0	24.6
=	0.0	205.8	12.0	20.8
=	0.0	206.6	12.0	17.4
=	0.0	207.4	12.0	15.4
=	0.0	208.1	12.0	13.9
=	0.0	208.8	12.0	12.9
=	0.0	209.6	12.0	12.1
=	0.0	210.4	12.0	11.7
=	0.0	211.1	12.0	11.3
=	0.0	211.8	12.0	11.0
=	0.0	212.6	12.0	10.8
=	0.0	213.4	12.0	10.6
=	0.0	214.1	12.0	10.5
=	0.0	214.9	12.0	10.3
=	0.0	215.6	12.0	10.2
=	0.0	216.4	12.0	10.1
=	0.0	217.1	12.0	10.0
=	0.0	217.9	12.0	9.8
=	0.0	218.6	12.0	9.7
=	0.0	219.4	12.0	9.6
=	0.0	220.1	12.0	9.5
=	0.0	220.9	12.0	9.4
=	0.0	221.7	12.0	9.3
=	0.0	222.4	12.0	9.3
=	0.0	223.2	12.0	9.2
=	0.0	223.9	12.0	9.0
=	0.0	224.7	12.0	9.0
=	0.0	225.5	12.0	8.9
=	0.0	226.2	12.0	8.8
=	0.0	227.0	12.0	8.7
=	0.0	227.7	12.0	8.6
=	0.0	228.5	12.0	8.5
=	0.0	229.2	12.0	8.5
=	0.0	230.0	12.0	8.4
=	0.0	230.7	12.0	8.4
=	0.0	231.4	12.0	8.3
=	0.0	232.1	12.0	8.3
=	0.0	233.0	12.0	8.2
=	0.0	233.7	12.0	8.2
=	0.0	234.5	12.0	8.1
=	0.0	235.2	12.0	8.1
=	0.0	236.0	12.0	8.1
=	0.0	236.7	12.0	8.0
=	0.0	237.5	12.0	8.0
=	0.0	238.2	12.0	8.0
=	0.0	239.0	12.0	8.0
=	0.0	239.7	12.0	7.9
=	0.0	240.5	12.0	7.9
=	0.0	241.2	12.0	7.9
=	0.0	242.0	12.0	7.8
=	0.0	242.7	12.0	7.8
=	0.0	243.5	12.0	7.8
=	0.0	244.2	12.0	7.7
=	0.0	244.9	12.0	7.7
=	0.0	245.6	12.0	7.6
=	0.0	246.3	12.0	7.6
=	0.0	247.0	12.0	7.6
=	0.0	247.8	12.0	7.5
=	0.0	248.6	12.0	7.5
=	0.0	249.3	12.0	7.5
=	0.0	250.1	12.0	7.4
=	0.0	250.8	12.0	7.4
=	0.0	251.6	12.0	7.4
=	0.0	252.3	12.0	7.3
=	0.0	253.1	12.0	7.3
=	0.0	253.8	12.0	7.3
=	0.0	254.6	12.0	7.2
=	0.0	255.3	12.0	7.2
=	0.0	256.1	12.0	7.2
=	0.0	256.9	12.0	7.2
=	0.0	257.6	12.0	7.1
=	0.0	258.4	12.0	7.1
=	0.0	259.0	12.0	7.1
=	0.0	259.5	12.0	7.1
=	0.0	260.2	12.0	7.0
=	0.0	260.7	12.0	7.0
=	0.0	261.2	12.0	7.0
=	0.0	261.7	12.0	7.0
=	0.0	262.2	12.0	7.0
=	0.0	262.7	12.0	7.0
=	0.0	263.2	12.0	6.9
=	0.0	263.7	12.0	6.9
=	0.0	264.5	12.0	6.9
=	0.0	265.3	12.0	6.9
=	0.0	266.1	12.0	6.9
=	0.0	266.7	12.0	6.9
=	0.0	267.4	12.0	6.8
=	0.0	268.0	12.0	6.8
=	0.0	268.6	12.0	6.8
=	0.0	269.3	12.0	6.8
=	0.0	270.1	12.0	6.7
=	0.0	270.9	12.0	6.7
=	0.0	271.6	12.0	6.7
:EOM # End of Measurement
#
# RFA300 ASCII Measurement Dump ( BDS format )
#
# Measurement number 	2
#
%VNR 1.0
%MOD 	RAT
%TYP 	SCN
%SCN 	PRO
%FLD 	ION
%DAT 	02-03-2012
%TIM 	12:00:00
%FSZ 	400	150
%BMT 	PHO	   4.0
%SSD 	1000
%BUP 	0
%BRD 	1000
%FSH 	1
%ASC 	0
%WEG 	60
%GPO 	0
%CPO 	0
%MEA 	6
%PRD 	50,0
%PTS 	699
%STS 	    0.0	  -279.7	   50.0 # Start Scan values in mm ( X , Y , Z )
%EDS 	    0.0	   279.0	   50.0 # End Scan values in mm ( X , Y , Z )
#
#	  X      Y      Z     Dose
#
=	0.0	-279.7	50.0	6.9
=	0.0	-278.7	50.0	7.0
=	0.0	-278.1	50.0	7.0
=	0.0	-277.5	50.0	7.0
=	0.0	-276.8	50.0	7.1
=	0.0	-276.1	50.0	7.1
=	0.0	-275.4	50.0	7.1
=	0.0	-274.6	50.0	7.2
=	0.0	-273.9	50.0	7.2
=	0.0	-273.1	50.0	7.2
=	0.0	-272.3	50.0	7.2
=	0.0	-271.6	50.0	7.3
=	0.0	-270.9	50.0	7.3
=	0.0	-270.2	50.0	7.4
=	0.0	-269.5	50.0	7.4
=	0.0	-268.7	50.0	7.5
=	0.0	-268.0	50.0	7.5
=	0.0	-267.2	50.0	7.5
=	0.0	-266.4	50.0	7.5
=	0.0	-265.7	50.0	7.6
=	0.0	-264.9	50.0	7.6
=	0.0	-264.2	50.0	7.7
=	0.0	-263.4	50.0	7.7
=	0.0	-262.7	50.0	7.8
=	0.0	-261.9	50.0	7.8
=	0.0	-261.1	50.0	7.8
=	0.0	-260.4	50.0	7.9
=	0.0	-259.6	50.0	7.9
=	0.0	-258.9	50.0	8.0
=	0.0	-258.1	50.0	8.0
=	0.0	-257.4	50.0	8.1
=	0.0	-256.6	50.0	8.1
=	0.0	-255.9	50.0	8.2
=	0.0	-255.1	50.0	8.2
=	0.0	-254.4	50.0	8.3
=	0.0	-253.6	50.0	8.3
=	0.0	-252.9	50.0	8.4
=	0.0	-252.1	50.0	8.4
=	0.0	-251.4	50.0	8.5
=	0.0	-250.6	50.0	8.5
=	0.0	-249.8	50.0	8.6
=	0.0	-249.1	50.0	8.6
=	0.0	-248.3	50.0	8.7
=	0.0	-247.5	50.0	8.8
=	0.0	-246.8	50.0	8.8
=	0.0	-246.0	50.0	8.9
=	0.0	-245.2	50.0	8.9
=	0.0	-243.7	50.0	9.0
=	0.0	-242.2	50.0	9.2
=	0.0	-240.7	50.0	9.3
=	0.0	-239.2	50.0	9.5
=	0.0	-237.8	50.0	9.7
=	0.0	-237.0	50.0	9.8
=	0.0	-236.3	50.0	9.9
=	0.0	-235.5	50.0	10.0
=	0.0	-234.8	50.0	10.1
=	0.0	-234.0	50.0	10.2
=	0.0	-233.2	50.0	10.3
=	0.0	-232.5	50.0	10.5
=	0.0	-231.7	50.0	10.6
=	0.0	-230.9	50.0	10.7
=	0.0	-230.2	50.0	10.8
=	0.0	-229.4	50.0	11.0
=	0.0	-228.7	50.0	11.1
=	0.0	-227.9	50.0	11.3
=	0.0	-227.2	50.0	11.4
=	0.0	-226.4	50.0	11.6
=	0.0	-225.7	50.0	11.8
=	0.0	-224.9	50.0	11.9
=	0.0	-224.2	50.0	12.1
=	0.0	-223.4	50.0	12.3
=	0.0	-222.7	50.0	12.5
=	0.0	-221.9	50.0	12.7
=	0.0	-221.1	50.0	13.0
=	0.0	-220.5	50.0	13.2
=	0.0	-219.9	50.0	13.4
=	0.0	-219.2	50.0	13.7
=	0.0	-218.4	50.0	14.1
=	0.0	-217.6	50.0	14.6
=	0.0	-216.9	50.0	15.3
=	0.0	-216.2	50.0	16.2
=	0.0	-215.3	50.0	17.7
=	0.0	-214.7	50.0	19.3
=	0.0	-213.9	50.0	21.8
=	0.0	-213.1	50.0	25.1
=	0.0	-212.3	50.0	29.1
=	0.0	-211.6	50.0	33.5
=	0.0	-210.9	50.0	38.8
=	0.0	-209.9	50.0	46.7
=	0.0	-209.0	50.0	53.8
=	0.0	-208.1	50.0	60.9
=	0.0	-207.3	50.0	67.0
=	0.0	-206.6	50.0	71.9
=	0.0	-205.5	50.0	78.0
=	0.0	-204.3	50.0	82.5
=	0.0	-203.3	50.0	84.9
=	0.0	-202.1	50.0	86.5
=	0.0	-201.3	50.0	87.2
=	0.0	-200.3	50.0	87.8
=	0.0	-199.1	50.0	88.4
=	0.0	-198.1	50.0	88.8
=	0.0	-197.3	50.0	89.0
=	0.0	-196.3	50.0	89.4
=	0.0	-195.6	50.0	89.6
=	0.0	-194.8	50.0	89.8
=	0.0	-194.1	50.0	89.9
=	0.0	-193.3	50.0	90.2
=	0.0	-192.6	50.0	90.4
=	0.0	-191.8	50.0	90.6
=	0.0	-191.0	50.0	90.7
=	0.0	-190.2	50.0	90.8
=	0.0	-189.5	50.0	91.0
=	0.0	-188.7	50.0	91.1
=	0.0	-188.0	50.0	91.3
=	0.0	-187.2	50.0	91.4
=	0.0	-186.5	50.0	91.7
=	0.0	-185.7	50.0	91.9
=	0.0	-185.0	50.0	92.0
=	0.0	-184.2	50.0	92.1
=	0.0	-183.5	50.0	92.2
=	0.0	-182.7	50.0	92.4
=	0.0	-182.0	50.0	92.5
=	0.0	-181.2	50.0	92.6
=	0.0	-180.5	50.0	92.7
=	0.0	-179.7	50.0	92.8
=	0.0	-179.0	50.0	93.0
=	0.0	-178.2	50.0	93.1
=	0.0	-177.5	50.0	93.2
=	0.0	-176.7	50.0	93.4
=	0.0	-176.0	50.0	93.5
=	0.0	-175.2	50.0	93.6
=	0.0	-174.4	50.0	93.7
=	0.0	-173.7	50.0	93.8
=	0.0	-172.9	50.0	93.9
=	0.0	-172.2	50.0	94.0
=	0.0	-171.4	50.0	94.1
=	0.0	-170.7	50.0	94.2
=	0.0	-169.9	50.0	94.3
=	0.0	-169.1	50.0	94.4
=	0.0	-168.4	50.0	94.5
=	0.0	-167.6	50.0	94.6
=	0.0	-166.8	50.0	94.7
=	0.0	-166.1	50.0	94.8
=	0.0	-165.4	50.0	94.9
=	0.0	-164.6	50.0	95.0
=	0.0	-164.1	50.0	95.1
=	0.0	-163.3	50.0	95.2
=	0.0	-162.7	50.0	95.2
=	0.0	-161.9	50.0	95.4
=	0.0	-161.1	50.0	95.5
=	0.0	-160.4	50.0	95.6
=	0.0	-159.7	50.0	95.7
=	0.0	-158.8	50.0	95.7
=	0.0	-158.1	50.0	95.8
=	0.0	-157.3	50.0	95.9
=	0.0	-156.3	50.0	95.9
=	0.0	-155.4	50.0	96.0
=	0.0	-154.5	50.0	96.2
=	0.0	-153.4	50.0	96.3
=	0.0	-152.2	50.0	96.4
=	0.0	-151.5	50.0	96.5
=	0.0	-150.8	50.0	96.5
=	0.0	-150.0	50.0	96.6
=	0.0	-149.1	50.0	96.7
=	0.0	-147.9	50.0	96.8
=	0.0	-147.0	50.0	96.9
=	0.0	-146.2	50.0	97.0
=	0.0	-144.9	50.0	97.1
=	0.0	-143.9	50.0	97.1
=	0.0	-142.8	50.0	97.1
=	0.0	-141.3	50.0	97.3
=	0.0	-140.4	50.0	97.4
=	0.0	-139.5	50.0	97.4
=	0.0	-138.3	50.0	97.5
=	0.0	-136.8	50.0	97.6
=	0.0	-135.3	50.0	97.6
=	0.0	-133.9	50.0	97.7
=	0.0	-133.1	50.0	97.7
=	0.0	-132.2	50.0	97.8
=	0.0	-131.3	50.0	97.9
=	0.0	-130.2	50.0	97.9
=	0.0	-128.7	50.0	98.0
=	0.0	-127.2	50.0	98.1
=	0.0	-125.8	50.0	98.3
=	0.0	-125.0	50.0	98.3
=	0.0	-124.2	50.0	98.4
=	0.0	-123.0	50.0	98.4
=	0.0	-122.0	50.0	98.5
=	0.0	-121.3	50.0	98.5
=	0.0	-120.3	50.0	98.5
=	0.0	-119.2	50.0	98.6
=	0.0	-117.7	50.0	98.7
=	0.0	-116.6	50.0	98.7
=	0.0	-115.1	50.0	98.7
=	0.0	-113.6	50.0	98.9
=	0.0	-112.1	50.0	99.0
=	0.0	-110.6	50.0	99.1
=	0.0	-109.0	50.0	99.1
=	0.0	-107.5	50.0	99.2
=	0.0	-106.0	50.0	99.2
=	0.0	-104.7	50.0	99.3
=	0.0	-103.5	50.0	99.4
=	0.0	-102.0	50.0	99.4
=	0.0	-100.6	50.0	99.5
=	0.0	-99.8	50.0	99.5
=	0.0	-99.0	50.0	99.6
=	0.0	-98.1	50.0	99.6
=	0.0	-97.3	50.0	99.6
=	0.0	-96.0	50.0	99.7
=	0.0	-95.0	50.0	99.7
=	0.0	-94.2	50.0	99.7
=	0.0	-93.6	50.0	99.7
=	0.0	-92.8	50.0	99.8
=	0.0	-92.0	50.0	99.8
=	0.0	-91.2	50.0	99.8
=	0.0	-90.5	50.0	99.8
=	0.0	-89.7	50.0	99.9
=	0.0	-89.0	50.0	99.9
=	0.0	-88.2	50.0	100.0
=	0.0	-87.5	50.0	100.0
=	0.0	-86.7	50.0	100.0
=	0.0	-86.0	50.0	100.1
=	0.0	-85.2	50.0	100.1
=	0.0	-84.5	50.0	100.1
=	0.0	-83.7	50.0	100.2
=	0.0	-83.0	50.0	100.2
=	0.0	-82.2	50.0	100.3
=	0.0	-81.5	50.0	100.3
=	0.0	-80.6	50.0	100.4
=	0.0	-79.9	50.0	100.4
=	0.0	-79.1	50.0	100.4
=	0.0	-78.4	50.0	100.4
=	0.0	-77.6	50.0	100.4
=	0.0	-76.9	50.0	100.4
=	0.0	-76.1	50.0	100.4
=	0.0	-75.4	50.0	100.4
=	0.0	-74.6	50.0	100.5
=	0.0	-73.9	50.0	100.5
=	0.0	-73.1	50.0	100.6
=	0.0	-72.4	50.0	100.6
=	0.0	-71.6	50.0	100.6
=	0.0	-70.9	50.0	100.6
=	0.0	-70.1	50.0	100.6
=	0.0	-69.4	50.0	100.6
=	0.0	-68.6	50.0	100.6
=	0.0	-68.0	50.0	100.6
=	0.0	-67.5	50.0	100.6
=	0.0	-67.0	50.0	100.7
=	0.0	-66.3	50.0	100.7
=	0.0	-65.6	50.0	100.7
=	0.0	-64.8	50.0	100.7
=	0.0	-64.1	50.0	100.7
=	0.0	-63.6	50.0	100.7
=	0.0	-62.8	50.0	100.7
=	0.0	-62.1	50.0	100.7
=	0.0	-61.6	50.0	100.7
=	0.0	-61.1	50.0	100.7
=	0.0	-60.6	50.0	100.8
=	0.0	-60.1	50.0	100.8
=	0.0	-59.5	50.0	100.8
=	0.0	-58.8	50.0	100.9
=	0.0	-58.2	50.0	100.9
=	0.0	-57.7	50.0	100.9
=	0.0	-57.2	50.0	100.9
=	0.0	-56.7	50.0	100.9
=	0.0	-56.2	50.0	100.9
=	0.0	-55.7	50.0	100.9
=	0.0	-55.2	50.0	100.9
=	0.0	-54.7	50.0	100.9
=	0.0	-54.2	50.0	100.9
=	0.0	-53.7	50.0	100.9
=	0.0	-53.2	50.0	100.9
=	0.0	-52.7	50.0	100.9
=	0.0	-52.2	50.0	100.9
=	0.0	-51.7	50.0	100.9
=	0.0	-51.2	50.0	100.9
=	0.0	-50.7	50.0	100.9
=	0.0	-50.1	50.0	100.9
=	0.0	-49.6	50.0	100.9
=	0.0	-49.1	50.0	100.9
=	0.0	-48.6	50.0	100.9
=	0.0	-48.1	50.0	100.9
=	0.0	-47.5	50.0	100.9
=	0.0	-46.7	50.0	100.9
=	0.0	-45.9	50.0	100.9
=	0.0	-45.2	50.0	100.8
=	0.0	-44.4	50.0	100.8
=	0.0	-43.7	50.0	100.8
=	0.0	-42.9	50.0	100.8
=	0.0	-42.2	50.0	100.8
=	0.0	-41.4	50.0	100.8
=	0.0	-40.6	50.0	100.8
=	0.0	-39.9	50.0	100.8
=	0.0	-39.1	50.0	100.8
=	0.0	-38.4	50.0	100.7
=	0.0	-37.6	50.0	100.7
=	0.0	-36.9	50.0	100.7
=	0.0	-36.3	50.0	100.7
=	0.0	-35.6	50.0	100.7
=	0.0	-34.9	50.0	100.7
=	0.0	-34.2	50.0	100.7
=	0.0	-33.6	50.0	100.7
=	0.0	-32.8	50.0	100.6
=	0.0	-32.1	50.0	100.6
=	0.0	-31.3	50.0	100.6
=	0.0	-30.6	50.0	100.6
=	0.0	-29.8	50.0	100.6
=	0.0	-29.1	50.0	100.6
=	0.0	-28.3	50.0	100.6
=	0.0	-27.6	50.0	100.6
=	0.0	-26.9	50.0	100.6
=	0.0	-26.3	50.0	100.5
=	0.0	-25.6	50.0	100.5
=	0.0	-24.8	50.0	100.5
=	0.0	-24.0	50.0	100.5
=	0.0	-23.3	50.0	100.5
=	0.0	-22.6	50.0	100.5
=	0.0	-22.0	50.0	100.5
=	0.0	-21.3	50.0	100.5
=	0.0	-20.5	50.0	100.5
=	0.0	-19.7	50.0	100.5
=	0.0	-19.0	50.0	100.5
=	0.0	-18.3	50.0	100.4
=	0.0	-17.8	50.0	100.4
=	0.0	-17.0	50.0	100.4
=	0.0	-16.3	50.0	100.3
=	0.0	-15.5	50.0	100.3
=	0.0	-14.7	50.0	100.3
=	0.0	-13.9	50.0	100.3
=	0.0	-13.2	50.0	100.3
=	0.0	-12.4	50.0	100.3
=	0.0	-11.7	50.0	100.3
=	0.0	-10.9	50.0	100.2
=	0.0	-10.2	50.0	100.2
=	0.0	-9.4	50.0	100.2
=	0.0	-8.7	50.0	100.1
=	0.0	-8.1	50.0	100.1
=	0.0	-7.5	50.0	100.1
=	0.0	-7.0	50.0	100.1
=	0.0	-6.4	50.0	100.0
=	0.0	-5.8	50.0	100.0
=	0.0	-5.3	50.0	100.0
=	0.0	-4.8	50.0	100.0
=	0.0	-4.3	50.0	100.0
=	0.0	-3.8	50.0	100.0
=	0.0	-3.1	50.0	100.0
=	0.0	-2.3	50.0	100.0
=	0.0	-1.5	50.0	100.0
=	0.0	-0.8	50.0	100.0
=	0.0	0.0	50.0	100.0
=	0.0	0.2	50.0	100.0
=	0.0	1.0	50.0	100.0
=	0.0	1.8	50.0	100.0
=	0.0	2.6	50.0	100.0
=	0.0	3.3	50.0	100.0
=	0.0	4.0	50.0	100.0
=	0.0	4.5	50.0	100.0
=	0.0	5.0	50.0	100.0
=	0.0	5.5	50.0	100.0
=	0.0	6.0	50.0	100.0
=	0.0	6.6	50.0	100.1
=	0.0	7.1	50.0	100.1
=	0.0	7.7	50.0	100.1
=	0.0	8.3	50.0	100.1
=	0.0	8.9	50.0	100.1
=	0.0	9.7	50.0	100.2
=	0.0	10.4	50.0	100.2
=	0.0	11.2	50.0	100.2
=	0.0	11.9	50.0	100.3
=	0.0	12.7	50.0	100.3
=	0.0	13.5	50.0	100.3
=	0.0	14.2	50.0	100.3
=	0.0	15.0	50.0	100.3
=	0.0	15.7	50.0	100.3
=	0.0	16.5	50.0	100.3
=	0.0	17.3	50.0	100.4
=	0.0	17.9	50.0	100.4
=	0.0	18.5	50.0	100.4
=	0.0	19.3	50.0	100.5
=	0.0	20.0	50.0	100.5
=	0.0	20.7	50.0	100.5
=	0.0	21.5	50.0	100.5
=	0.0	22.3	50.0	100.5
=	0.0	22.8	50.0	100.5
=	0.0	23.5	50.0	100.5
=	0.0	24.3	50.0	100.5
=	0.0	25.1	50.0	100.5
=	0.0	25.8	50.0	100.5
=	0.0	26.6	50.0	100.6
=	0.0	27.1	50.0	100.6
=	0.0	27.8	50.0	100.6
=	0.0	28.6	50.0	100.6
=	0.0	29.3	50.0	100.6
=	0.0	30.1	50.0	100.6
=	0.0	30.8	50.0	100.6
=	0.0	31.6	50.0	100.6
=	0.0	32.3	50.0	100.6
=	0.0	33.1	50.0	100.7
=	0.0	33.8	50.0	100.7
=	0.0	34.4	50.0	100.7
=	0.0	35.1	50.0	100.7
=	0.0	35.8	50.0	100.7
=	0.0	36.5	50.0	100.7
=	0.0	37.1	50.0	100.7
=	0.0	37.9	50.0	100.7
=	0.0	38.6	50.0	100.8
=	0.0	39.4	50.0	100.8
=	0.0	40.1	50.0	100.8
=	0.0	40.9	50.0	100.8
=	0.0	41.6	50.0	100.8
=	0.0	42.4	50.0	100.8
=	0.0	43.2	50.0	100.8
=	0.0	43.9	50.0	100.8
=	0.0	44.7	50.0	100.8
=	0.0	45.4	50.0	100.9
=	0.0	46.2	50.0	100.9
=	0.0	47.0	50.0	100.9
=	0.0	47.7	50.0	100.9
=	0.0	48.3	50.0	100.9
=	0.0	48.8	50.0	100.9
=	0.0	49.3	50.0	100.9
=	0.0	49.8	50.0	100.9
=	0.0	50.3	50.0	100.9
=	0.0	50.8	50.0	100.9
=	0.0	51.3	50.0	100.9
=	0.0	51.8	50.0	100.9
=	0.0	52.3	50.0	100.9
=	0.0	52.8	50.0	100.9
=	0.0	53.4	50.0	100.9
=	0.0	53.8	50.0	100.9
=	0.0	54.4	50.0	100.9
=	0.0	54.9	50.0	100.9
=	0.0	55.4	50.0	100.9
=	0.0	55.9	50.0	100.9
=	0.0	56.4	50.0	100.9
=	0.0	56.9	50.0	100.9
=	0.0	57.4	50.0	100.9
=	0.0	57.9	50.0	100.9
=	0.0	58.4	50.0	100.9
=	0.0	59.0	50.0	100.9
=	0.0	59.7	50.0	100.8
=	0.0	60.2	50.0	100.8
=	0.0	60.8	50.0	100.7
=	0.0	61.3	50.0	100.7
=	0.0	61.8	50.0	100.7
=	0.0	62.3	50.0	100.7
=	0.0	63.0	50.0	100.7
=	0.0	63.8	50.0	100.7
=	0.0	64.3	50.0	100.7
=	0.0	65.0	50.0	100.7
=	0.0	65.8	50.0	100.7
=	0.0	66.6	50.0	100.7
=	0.0	67.2	50.0	100.7
=	0.0	67.7	50.0	100.6
=	0.0	68.2	50.0	100.6
=	0.0	68.9	50.0	100.6
=	0.0	69.6	50.0	100.6
=	0.0	70.4	50.0	100.6
=	0.0	71.1	50.0	100.6
=	0.0	71.9	50.0	100.6
=	0.0	72.6	50.0	100.6
=	0.0	73.4	50.0	100.5
=	0.0	74.1	50.0	100.5
=	0.0	74.9	50.0	100.5
=	0.0	75.6	50.0	100.4
=	0.0	76.4	50.0	100.4
=	0.0	77.1	50.0	100.4
=	0.0	77.9	50.0	100.4
=	0.0	78.6	50.0	100.4
=	0.0	79.4	50.0	100.4
=	0.0	80.2	50.0	100.4
=	0.0	80.9	50.0	100.3
=	0.0	81.7	50.0	100.3
=	0.0	82.5	50.0	100.3
=	0.0	83.2	50.0	100.2
=	0.0	84.0	50.0	100.2
=	0.0	84.7	50.0	100.2
=	0.0	85.5	50.0	100.1
=	0.0	86.2	50.0	100.1
=	0.0	87.0	50.0	100.0
=	0.0	87.7	50.0	100.0
=	0.0	88.5	50.0	100.0
=	0.0	89.2	50.0	99.9
=	0.0	90.0	50.0	99.9
=	0.0	90.7	50.0	99.8
=	0.0	91.5	50.0	99.8
=	0.0	92.3	50.0	99.8
=	0.0	93.0	50.0	99.8
=	0.0	93.8	50.0	99.7
=	0.0	94.5	50.0	99.7
=	0.0	95.2	50.0	99.7
=	0.0	96.5	50.0	99.6
=	0.0	97.5	50.0	99.6
=	0.0	98.4	50.0	99.6
=	0.0	99.3	50.0	99.6
=	0.0	100.1	50.0	99.5
=	0.0	101.0	50.0	99.5
=	0.0	102.5	50.0	99.4
=	0.0	104.0	50.0	99.4
=	0.0	105.0	50.0	99.3
=	0.0	106.5	50.0	99.2
=	0.0	108.0	50.0	99.1
=	0.0	109.5	50.0	99.1
=	0.0	111.1	50.0	99.0
=	0.0	112.6	50.0	99.0
=	0.0	114.1	50.0	98.8
=	0.0	115.6	50.0	98.7
=	0.0	116.9	50.0	98.7
=	0.0	118.1	50.0	98.6
=	0.0	119.6	50.0	98.5
=	0.0	120.6	50.0	98.5
=	0.0	121.5	50.0	98.5
=	0.0	122.3	50.0	98.5
=	0.0	123.3	50.0	98.4
=	0.0	124.5	50.0	98.4
=	0.0	125.3	50.0	98.3
=	0.0	126.2	50.0	98.2
=	0.0	127.7	50.0	98.1
=	0.0	129.2	50.0	98.0
=	0.0	130.7	50.0	97.9
=	0.0	131.6	50.0	97.8
=	0.0	132.6	50.0	97.8
=	0.0	133.4	50.0	97.7
=	0.0	134.3	50.0	97.7
=	0.0	135.8	50.0	97.6
=	0.0	137.3	50.0	97.5
=	0.0	138.8	50.0	97.5
=	0.0	139.8	50.0	97.4
=	0.0	140.6	50.0	97.3
=	0.0	141.8	50.0	97.2
=	0.0	143.2	50.0	97.1
=	0.0	144.2	50.0	97.1
=	0.0	145.4	50.0	97.0
=	0.0	146.5	50.0	96.9
=	0.0	147.2	50.0	96.9
=	0.0	148.4	50.0	96.8
=	0.0	149.4	50.0	96.6
=	0.0	150.2	50.0	96.5
=	0.0	151.1	50.0	96.5
=	0.0	151.7	50.0	96.5
=	0.0	152.6	50.0	96.4
=	0.0	153.9	50.0	96.2
=	0.0	154.8	50.0	96.1
=	0.0	155.7	50.0	95.9
=	0.0	156.6	50.0	95.9
=	0.0	157.6	50.0	95.8
=	0.0	158.3	50.0	95.7
=	0.0	159.1	50.0	95.7
=	0.0	159.9	50.0	95.7
=	0.0	160.6	50.0	95.6
=	0.0	161.4	50.0	95.4
=	0.0	162.2	50.0	95.3
=	0.0	162.9	50.0	95.2
=	0.0	163.6	50.0	95.2
=	0.0	164.3	50.0	95.0
=	0.0	164.9	50.0	95.0
=	0.0	165.6	50.0	94.8
=	0.0	166.3	50.0	94.8
=	0.0	167.1	50.0	94.7
=	0.0	167.9	50.0	94.6
=	0.0	168.6	50.0	94.5
=	0.0	169.4	50.0	94.4
=	0.0	170.1	50.0	94.3
=	0.0	170.9	50.0	94.2
=	0.0	171.7	50.0	94.1
=	0.0	172.4	50.0	94.0
=	0.0	173.2	50.0	93.9
=	0.0	173.9	50.0	93.7
=	0.0	174.7	50.0	93.6
=	0.0	175.5	50.0	93.5
=	0.0	176.2	50.0	93.4
=	0.0	177.0	50.0	93.3
=	0.0	177.7	50.0	93.1
=	0.0	178.5	50.0	93.0
=	0.0	179.2	50.0	92.9
=	0.0	180.0	50.0	92.8
=	0.0	180.7	50.0	92.7
=	0.0	181.5	50.0	92.5
=	0.0	182.2	50.0	92.4
=	0.0	183.0	50.0	92.3
=	0.0	183.7	50.0	92.2
=	0.0	184.5	50.0	92.1
=	0.0	185.2	50.0	91.9
=	0.0	186.0	50.0	91.8
=	0.0	186.7	50.0	91.6
=	0.0	187.5	50.0	91.3
=	0.0	188.2	50.0	91.2
=	0.0	189.0	50.0	91.0
=	0.0	189.7	50.0	90.9
=	0.0	190.5	50.0	90.8
=	0.0	191.3	50.0	90.6
=	0.0	192.0	50.0	90.5
=	0.0	192.8	50.0	90.4
=	0.0	193.6	50.0	90.0
=	0.0	194.3	50.0	89.8
=	0.0	195.1	50.0	89.7
=	0.0	195.8	50.0	89.5
=	0.0	196.6	50.0	89.2
