:MSR 	4	 # No. of measurement in file
:SYS BDS 0   # Beam Data Scanner System
#
# RFA300 ASCII Measurement Dump ( BDS format )
#
# Measurement number 	1
#
%VNR 1.0
%MOD 	RAT
%TYP 	SCN
%SCN 	DPT
%FLD 	ION
%DAT 	02-03-2012
%TIM 	12:00:00
%FSZ 	040	040
%BMT 	PHO	   4.0
%SSD 	1200
%BUP 	0
%BRD 	1200
%FSH 	1
%ASC 	0
%WEG 	60
%GPO 	0
%CPO 	0
%MEA 	5
%PRD 	0,0
%PTS 	631
%STS 	    0.0	  0.0	   0.0 # Start Scan values in mm ( X , Y , Z )
%EDS 	    0.0	   0.0	   300.4 # End Scan values in mm ( X , Y , Z )
#
#	  X      Y      Z     Dose
#
=	0.0	0.0	0.0	49.9
=	0.0	0.0	0.2	51.1
=	0.0	0.0	0.7	53.8
=	0.0	0.0	1.0	56.1
=	0.0	0.0	1.5	60.2
=	0.0	0.0	1.9	64.4
=	0.0	0.0	2.3	68.8
=	0.0	0.0	2.6	72.0
=	0.0	0.0	3.1	77.2
=	0.0	0.0	3.6	81.7
=	0.0	0.0	4.1	85.0
=	0.0	0.0	4.5	88.0
=	0.0	0.0	5.1	90.8
=	0.0	0.0	5.6	92.8
=	0.0	0.0	6.3	95.2
=	0.0	0.0	6.9	96.4
=	0.0	0.0	7.4	97.5
=	0.0	0.0	7.9	98.1
=	0.0	0.0	8.6	98.9
=	0.0	0.0	9.4	99.4
=	0.0	0.0	10.1	99.8
=	0.0	0.0	10.9	100.0
=	0.0	0.0	11.4	100.0
=	0.0	0.0	12.1	100.0
=	0.0	0.0	13.1	99.9
=	0.0	0.0	14.2	99.7
=	0.0	0.0	15.2	99.3
=	0.0	0.0	16.2	98.9
=	0.0	0.0	16.7	98.7
=	0.0	0.0	17.7	98.4
=	0.0	0.0	18.7	98.0
=	0.0	0.0	19.5	97.7
=	0.0	0.0	20.0	97.4
=	0.0	0.0	20.7	97.0
=	0.0	0.0	21.3	96.9
=	0.0	0.0	21.8	96.7
=	0.0	0.0	22.3	96.3
=	0.0	0.0	22.8	96.0
=	0.0	0.0	23.3	95.8
=	0.0	0.0	23.8	95.6
=	0.0	0.0	24.3	95.5
=	0.0	0.0	24.8	95.2
=	0.0	0.0	25.4	95.0
=	0.0	0.0	25.9	94.6
=	0.0	0.0	26.3	94.5
=	0.0	0.0	26.8	94.3
=	0.0	0.0	27.3	94.2
=	0.0	0.0	27.9	93.9
=	0.0	0.0	28.4	93.6
=	0.0	0.0	28.9	93.4
=	0.0	0.0	29.4	93.0
=	0.0	0.0	29.9	92.8
=	0.0	0.0	30.2	92.7
=	0.0	0.0	30.7	92.5
=	0.0	0.0	31.1	92.4
=	0.0	0.0	31.4	92.3
=	0.0	0.0	31.9	92.1
=	0.0	0.0	32.4	91.9
=	0.0	0.0	32.9	91.5
=	0.0	0.0	33.3	91.5
=	0.0	0.0	33.7	91.3
=	0.0	0.0	34.2	91.0
=	0.0	0.0	34.7	90.5
=	0.0	0.0	35.2	90.3
=	0.0	0.0	35.6	90.1
=	0.0	0.0	36.0	90.0
=	0.0	0.0	36.5	89.9
=	0.0	0.0	37.0	89.6
=	0.0	0.0	37.3	89.4
=	0.0	0.0	37.8	89.2
=	0.0	0.0	38.3	89.0
=	0.0	0.0	38.8	88.7
=	0.0	0.0	39.3	88.6
=	0.0	0.0	39.8	88.4
=	0.0	0.0	40.3	88.1
=	0.0	0.0	40.8	87.9
=	0.0	0.0	41.4	87.7
=	0.0	0.0	41.9	87.3
=	0.0	0.0	42.4	86.9
=	0.0	0.0	42.9	86.7
=	0.0	0.0	43.4	86.6
=	0.0	0.0	43.9	86.5
=	0.0	0.0	44.4	86.2
=	0.0	0.0	44.9	85.9
=	0.0	0.0	45.4	85.7
=	0.0	0.0	45.9	85.5
=	0.0	0.0	46.4	85.4
=	0.0	0.0	46.9	85.0
=	0.0	0.0	47.4	84.7
=	0.0	0.0	47.9	84.6
=	0.0	0.0	48.5	84.4
=	0.0	0.0	49.0	84.2
=	0.0	0.0	49.5	83.9
=	0.0	0.0	50.5	83.4
=	0.0	0.0	51.5	83.0
=	0.0	0.0	52.5	82.5
=	0.0	0.0	53.1	82.1
=	0.0	0.0	53.6	81.8
=	0.0	0.0	54.6	81.5
=	0.0	0.0	55.6	81.1
=	0.0	0.0	56.1	80.8
=	0.0	0.0	56.9	80.5
=	0.0	0.0	57.6	80.1
=	0.0	0.0	58.6	79.6
=	0.0	0.0	59.6	79.1
=	0.0	0.0	60.6	78.6
=	0.0	0.0	61.6	78.1
=	0.0	0.0	62.2	77.9
=	0.0	0.0	62.7	77.8
=	0.0	0.0	63.7	77.4
=	0.0	0.0	64.2	77.1
=	0.0	0.0	64.7	76.9
=	0.0	0.0	65.7	76.6
=	0.0	0.0	66.7	76.2
=	0.0	0.0	67.7	75.8
=	0.0	0.0	68.5	75.4
=	0.0	0.0	69.1	75.0
=	0.0	0.0	69.6	74.8
=	0.0	0.0	70.0	74.7
=	0.0	0.0	70.7	74.5
=	0.0	0.0	71.3	74.2
=	0.0	0.0	71.8	74.0
=	0.0	0.0	72.3	73.8
=	0.0	0.0	72.8	73.6
=	0.0	0.0	73.3	73.2
=	0.0	0.0	73.8	73.1
=	0.0	0.0	74.3	72.9
=	0.0	0.0	74.8	72.7
=	0.0	0.0	75.4	72.4
=	0.0	0.0	75.9	72.2
=	0.0	0.0	76.4	72.1
=	0.0	0.0	76.9	71.9
=	0.0	0.0	77.4	71.5
=	0.0	0.0	77.9	71.2
=	0.0	0.0	78.4	71.0
=	0.0	0.0	78.9	70.9
=	0.0	0.0	79.4	70.7
=	0.0	0.0	79.9	70.4
=	0.0	0.0	80.5	70.3
=	0.0	0.0	80.9	70.1
=	0.0	0.0	81.4	69.9
=	0.0	0.0	82.0	69.7
=	0.0	0.0	82.5	69.6
=	0.0	0.0	82.9	69.4
=	0.0	0.0	83.3	69.2
=	0.0	0.0	83.7	69.0
=	0.0	0.0	84.2	68.8
=	0.0	0.0	84.5	68.7
=	0.0	0.0	85.0	68.5
=	0.0	0.0	85.5	68.3
=	0.0	0.0	85.9	68.1
=	0.0	0.0	86.2	68.1
=	0.0	0.0	86.7	67.9
=	0.0	0.0	87.2	67.7
=	0.0	0.0	87.6	67.5
=	0.0	0.0	88.0	67.3
=	0.0	0.0	88.5	67.1
=	0.0	0.0	89.1	66.9
=	0.0	0.0	89.5	66.7
=	0.0	0.0	89.8	66.6
=	0.0	0.0	90.3	66.4
=	0.0	0.0	90.7	66.2
=	0.0	0.0	91.2	66.0
=	0.0	0.0	91.7	65.9
=	0.0	0.0	92.3	65.7
=	0.0	0.0	92.8	65.4
=	0.0	0.0	93.3	65.1
=	0.0	0.0	93.6	65.1
=	0.0	0.0	94.1	64.9
=	0.0	0.0	94.6	64.6
=	0.0	0.0	95.1	64.4
=	0.0	0.0	95.6	64.2
=	0.0	0.0	96.1	64.0
=	0.0	0.0	96.6	63.8
=	0.0	0.0	97.0	63.7
=	0.0	0.0	97.5	63.6
=	0.0	0.0	97.8	63.6
=	0.0	0.0	98.2	63.5
=	0.0	0.0	98.6	63.2
=	0.0	0.0	99.0	63.0
=	0.0	0.0	99.5	62.9
=	0.0	0.0	100.1	62.6
=	0.0	0.0	100.6	62.4
=	0.0	0.0	101.2	62.3
=	0.0	0.0	101.9	62.0
=	0.0	0.0	102.9	61.6
=	0.0	0.0	103.4	61.5
=	0.0	0.0	103.9	61.4
=	0.0	0.0	104.4	61.1
=	0.0	0.0	104.9	60.8
=	0.0	0.0	105.4	60.7
=	0.0	0.0	106.2	60.5
=	0.0	0.0	106.9	60.2
=	0.0	0.0	107.7	59.9
=	0.0	0.0	108.2	59.7
=	0.0	0.0	108.7	59.5
=	0.0	0.0	109.4	59.4
=	0.0	0.0	110.4	58.9
=	0.0	0.0	111.0	58.7
=	0.0	0.0	111.9	58.3
=	0.0	0.0	112.7	58.1
=	0.0	0.0	113.2	58.0
=	0.0	0.0	113.9	57.8
=	0.0	0.0	114.5	57.6
=	0.0	0.0	115.0	57.3
=	0.0	0.0	115.5	57.2
=	0.0	0.0	116.0	57.0
=	0.0	0.0	116.7	56.8
=	0.0	0.0	117.5	56.5
=	0.0	0.0	118.0	56.4
=	0.0	0.0	118.5	56.2
=	0.0	0.0	119.0	55.9
=	0.0	0.0	119.5	55.8
=	0.0	0.0	120.3	55.6
=	0.0	0.0	120.8	55.4
=	0.0	0.0	121.3	55.2
=	0.0	0.0	121.8	55.0
=	0.0	0.0	122.3	54.9
=	0.0	0.0	122.7	54.8
=	0.0	0.0	123.3	54.5
=	0.0	0.0	123.8	54.4
=	0.0	0.0	124.3	54.2
=	0.0	0.0	124.8	54.0
=	0.0	0.0	125.3	53.9
=	0.0	0.0	125.8	53.8
=	0.0	0.0	126.3	53.7
=	0.0	0.0	126.6	53.6
=	0.0	0.0	126.9	53.4
=	0.0	0.0	127.3	53.2
=	0.0	0.0	127.8	53.0
=	0.0	0.0	128.1	52.9
=	0.0	0.0	128.6	52.9
=	0.0	0.0	128.9	52.9
=	0.0	0.0	129.3	52.8
=	0.0	0.0	129.8	52.6
=	0.0	0.0	130.3	52.4
=	0.0	0.0	130.6	52.3
=	0.0	0.0	130.9	52.2
=	0.0	0.0	131.3	52.1
=	0.0	0.0	131.8	51.9
=	0.0	0.0	132.3	51.7
=	0.0	0.0	132.9	51.6
=	0.0	0.0	133.3	51.5
=	0.0	0.0	133.6	51.3
=	0.0	0.0	134.1	51.1
=	0.0	0.0	134.6	51.0
=	0.0	0.0	135.1	50.9
=	0.0	0.0	135.6	50.7
=	0.0	0.0	136.1	50.6
=	0.0	0.0	136.6	50.4
=	0.0	0.0	137.1	50.2
=	0.0	0.0	137.5	50.0
=	0.0	0.0	137.9	50.0
=	0.0	0.0	138.2	49.9
=	0.0	0.0	138.6	49.7
=	0.0	0.0	139.1	49.5
=	0.0	0.0	139.6	49.4
=	0.0	0.0	140.1	49.3
=	0.0	0.0	140.6	49.2
=	0.0	0.0	141.1	48.9
=	0.0	0.0	141.6	48.8
=	0.0	0.0	142.0	48.7
=	0.0	0.0	142.4	48.6
=	0.0	0.0	142.7	48.5
=	0.0	0.0	143.0	48.4
=	0.0	0.0	143.4	48.3
=	0.0	0.0	143.8	48.2
=	0.0	0.0	144.1	48.0
=	0.0	0.0	144.4	47.9
=	0.0	0.0	144.7	47.8
=	0.0	0.0	145.1	47.7
=	0.0	0.0	145.4	47.7
=	0.0	0.0	145.7	47.6
=	0.0	0.0	146.1	47.6
=	0.0	0.0	146.4	47.5
=	0.0	0.0	146.8	47.4
=	0.0	0.0	147.1	47.3
=	0.0	0.0	147.6	47.0
=	0.0	0.0	148.1	46.9
=	0.0	0.0	148.4	46.8
=	0.0	0.0	148.8	46.7
=	0.0	0.0	149.1	46.6
=	0.0	0.0	149.6	46.6
=	0.0	0.0	149.9	46.5
=	0.0	0.0	150.3	46.4
=	0.0	0.0	150.9	46.2
=	0.0	0.0	151.4	46.0
=	0.0	0.0	151.9	45.9
=	0.0	0.0	152.4	45.7
=	0.0	0.0	152.9	45.5
=	0.0	0.0	153.6	45.4
=	0.0	0.0	154.0	45.2
=	0.0	0.0	154.4	45.2
=	0.0	0.0	154.9	45.0
=	0.0	0.0	155.4	44.9
=	0.0	0.0	155.9	44.8
=	0.0	0.0	156.4	44.7
=	0.0	0.0	156.9	44.6
=	0.0	0.0	157.4	44.4
=	0.0	0.0	157.9	44.2
=	0.0	0.0	158.2	44.1
=	0.0	0.0	158.7	44.1
=	0.0	0.0	159.2	44.0
=	0.0	0.0	159.7	43.9
=	0.0	0.0	160.2	43.7
=	0.0	0.0	160.7	43.6
=	0.0	0.0	161.2	43.4
=	0.0	0.0	161.8	43.3
=	0.0	0.0	162.3	43.2
=	0.0	0.0	162.7	43.1
=	0.0	0.0	163.2	43.0
=	0.0	0.0	163.8	42.8
=	0.0	0.0	164.5	42.5
=	0.0	0.0	165.0	42.4
=	0.0	0.0	165.5	42.2
=	0.0	0.0	166.0	42.1
=	0.0	0.0	166.5	42.0
=	0.0	0.0	167.0	41.8
=	0.0	0.0	167.5	41.8
=	0.0	0.0	168.0	41.6
=	0.0	0.0	168.5	41.5
=	0.0	0.0	168.8	41.5
=	0.0	0.0	169.3	41.4
=	0.0	0.0	169.6	41.4
=	0.0	0.0	170.0	41.2
=	0.0	0.0	170.4	41.2
=	0.0	0.0	170.7	41.1
=	0.0	0.0	171.1	41.1
=	0.0	0.0	171.5	41.0
=	0.0	0.0	171.9	40.9
=	0.0	0.0	172.3	40.6
=	0.0	0.0	172.7	40.5
=	0.0	0.0	173.1	40.4
=	0.0	0.0	173.6	40.3
=	0.0	0.0	173.9	40.3
=	0.0	0.0	174.2	40.2
=	0.0	0.0	174.6	40.1
=	0.0	0.0	174.9	40.0
=	0.0	0.0	175.4	39.9
=	0.0	0.0	175.9	39.8
=	0.0	0.0	176.2	39.7
=	0.0	0.0	176.6	39.6
=	0.0	0.0	176.9	39.6
=	0.0	0.0	177.5	39.5
=	0.0	0.0	178.0	39.4
=	0.0	0.0	178.3	39.2
=	0.0	0.0	178.6	39.1
=	0.0	0.0	179.0	39.0
=	0.0	0.0	179.3	39.0
=	0.0	0.0	179.7	38.9
=	0.0	0.0	180.1	38.8
=	0.0	0.0	180.5	38.7
=	0.0	0.0	180.8	38.6
=	0.0	0.0	181.1	38.6
=	0.0	0.0	181.5	38.5
=	0.0	0.0	182.0	38.4
=	0.0	0.0	182.3	38.3
=	0.0	0.0	182.8	38.2
=	0.0	0.0	183.3	38.1
=	0.0	0.0	183.8	38.0
=	0.0	0.0	184.3	37.8
=	0.0	0.0	184.8	37.7
=	0.0	0.0	185.3	37.5
=	0.0	0.0	185.6	37.5
=	0.0	0.0	186.0	37.4
=	0.0	0.0	186.4	37.3
=	0.0	0.0	186.9	37.2
=	0.0	0.0	187.2	37.2
=	0.0	0.0	187.6	37.1
=	0.0	0.0	188.1	36.8
=	0.0	0.0	188.5	36.8
=	0.0	0.0	188.9	36.7
=	0.0	0.0	189.4	36.6
=	0.0	0.0	189.9	36.5
=	0.0	0.0	190.4	36.5
=	0.0	0.0	190.9	36.4
=	0.0	0.0	191.4	36.3
=	0.0	0.0	192.1	36.1
=	0.0	0.0	192.5	36.0
=	0.0	0.0	193.4	35.8
=	0.0	0.0	194.4	35.6
=	0.0	0.0	195.4	35.5
=	0.0	0.0	196.4	35.2
=	0.0	0.0	197.4	35.0
=	0.0	0.0	197.9	34.8
=	0.0	0.0	198.7	34.7
=	0.0	0.0	199.4	34.5
=	0.0	0.0	200.2	34.4
=	0.0	0.0	200.7	34.3
=	0.0	0.0	201.2	34.2
=	0.0	0.0	201.9	34.0
=	0.0	0.0	202.5	33.9
=	0.0	0.0	203.0	33.9
=	0.0	0.0	203.5	33.7
=	0.0	0.0	204.0	33.6
=	0.0	0.0	204.5	33.5
=	0.0	0.0	205.2	33.3
=	0.0	0.0	205.7	33.2
=	0.0	0.0	206.2	33.2
=	0.0	0.0	206.7	33.0
=	0.0	0.0	207.2	32.9
=	0.0	0.0	207.7	32.8
=	0.0	0.0	208.2	32.8
=	0.0	0.0	208.7	32.7
=	0.0	0.0	209.2	32.6
=	0.0	0.0	209.7	32.5
=	0.0	0.0	210.3	32.4
=	0.0	0.0	210.8	32.3
=	0.0	0.0	211.3	32.1
=	0.0	0.0	211.8	32.0
=	0.0	0.0	212.3	31.9
=	0.0	0.0	212.8	31.8
=	0.0	0.0	213.2	31.8
=	0.0	0.0	213.5	31.7
=	0.0	0.0	213.8	31.7
=	0.0	0.0	214.3	31.6
=	0.0	0.0	214.8	31.5
=	0.0	0.0	215.2	31.4
=	0.0	0.0	215.5	31.4
=	0.0	0.0	216.0	31.3
=	0.0	0.0	216.5	31.2
=	0.0	0.0	216.8	31.1
=	0.0	0.0	217.2	31.1
=	0.0	0.0	217.5	31.0
=	0.0	0.0	218.0	30.9
=	0.0	0.0	218.6	30.8
=	0.0	0.0	218.9	30.8
=	0.0	0.0	219.3	30.7
=	0.0	0.0	219.8	30.6
=	0.0	0.0	220.3	30.6
=	0.0	0.0	220.6	30.5
=	0.0	0.0	220.9	30.4
=	0.0	0.0	221.3	30.4
=	0.0	0.0	221.8	30.3
=	0.0	0.0	222.1	30.2
=	0.0	0.0	222.4	30.2
=	0.0	0.0	222.9	30.1
=	0.0	0.0	223.3	30.0
=	0.0	0.0	223.6	29.9
=	0.0	0.0	223.9	29.9
=	0.0	0.0	224.3	29.9
=	0.0	0.0	224.7	29.8
=	0.0	0.0	225.1	29.7
=	0.0	0.0	225.4	29.7
=	0.0	0.0	225.8	29.6
=	0.0	0.0	226.1	29.5
=	0.0	0.0	226.4	29.4
=	0.0	0.0	226.8	29.4
=	0.0	0.0	227.1	29.3
=	0.0	0.0	227.4	29.2
=	0.0	0.0	227.8	29.2
=	0.0	0.0	228.3	29.1
=	0.0	0.0	228.6	29.0
=	0.0	0.0	228.9	29.0
=	0.0	0.0	229.4	28.9
=	0.0	0.0	229.8	28.9
=	0.0	0.0	230.1	28.8
=	0.0	0.0	230.5	28.8
=	0.0	0.0	230.9	28.7
=	0.0	0.0	231.4	28.7
=	0.0	0.0	231.8	28.6
=	0.0	0.0	232.2	28.5
=	0.0	0.0	232.5	28.5
=	0.0	0.0	232.8	28.4
=	0.0	0.0	233.2	28.3
=	0.0	0.0	233.7	28.2
=	0.0	0.0	234.0	28.1
=	0.0	0.0	234.3	28.0
=	0.0	0.0	234.7	28.0
=	0.0	0.0	235.2	27.9
=	0.0	0.0	235.7	27.9
=	0.0	0.0	236.2	27.8
=	0.0	0.0	236.5	27.7
=	0.0	0.0	236.9	27.6
=	0.0	0.0	237.2	27.5
=	0.0	0.0	237.5	27.5
=	0.0	0.0	238.0	27.5
=	0.0	0.0	238.4	27.4
=	0.0	0.0	238.7	27.4
=	0.0	0.0	239.0	27.3
=	0.0	0.0	239.4	27.3
=	0.0	0.0	239.7	27.2
=	0.0	0.0	240.0	27.1
=	0.0	0.0	240.4	27.1
=	0.0	0.0	240.7	27.1
=	0.0	0.0	241.0	27.0
=	0.0	0.0	241.4	26.9
=	0.0	0.0	241.7	26.9
=	0.0	0.0	242.2	26.8
=	0.0	0.0	242.7	26.7
=	0.0	0.0	243.1	26.7
=	0.0	0.0	243.4	26.6
=	0.0	0.0	243.8	26.6
=	0.0	0.0	244.3	26.5
=	0.0	0.0	244.6	26.4
=	0.0	0.0	245.0	26.3
=	0.0	0.0	245.4	26.3
=	0.0	0.0	245.7	26.2
=	0.0	0.0	246.4	26.1
=	0.0	0.0	246.9	26.1
=	0.0	0.0	247.3	26.0
=	0.0	0.0	247.8	25.9
=	0.0	0.0	248.3	25.9
=	0.0	0.0	248.8	25.8
=	0.0	0.0	249.3	25.7
=	0.0	0.0	249.8	25.6
=	0.0	0.0	250.3	25.5
=	0.0	0.0	250.8	25.5
=	0.0	0.0	251.1	25.4
=	0.0	0.0	251.5	25.4
=	0.0	0.0	251.8	25.4
=	0.0	0.0	252.3	25.3
=	0.0	0.0	252.8	25.2
=	0.0	0.0	253.1	25.2
=	0.0	0.0	253.5	25.1
=	0.0	0.0	254.0	25.0
=	0.0	0.0	254.3	25.0
=	0.0	0.0	254.8	24.9
=	0.0	0.0	255.3	24.8
=	0.0	0.0	255.8	24.8
=	0.0	0.0	256.3	24.7
=	0.0	0.0	256.8	24.6
=	0.0	0.0	257.1	24.5
=	0.0	0.0	257.6	24.5
=	0.0	0.0	258.1	24.5
=	0.0	0.0	258.6	24.4
=	0.0	0.0	259.1	24.3
=	0.0	0.0	259.6	24.2
=	0.0	0.0	260.1	24.1
=	0.0	0.0	260.6	24.0
=	0.0	0.0	261.0	24.0
=	0.0	0.0	261.3	24.0
=	0.0	0.0	261.6	23.9
=	0.0	0.0	262.1	23.9
=	0.0	0.0	262.6	23.8
=	0.0	0.0	263.0	23.8
=	0.0	0.0	263.4	23.7
=	0.0	0.0	263.8	23.7
=	0.0	0.0	264.3	23.6
=	0.0	0.0	264.8	23.5
=	0.0	0.0	265.3	23.4
=	0.0	0.0	265.8	23.3
=	0.0	0.0	266.3	23.3
=	0.0	0.0	266.8	23.2
=	0.0	0.0	267.3	23.1
=	0.0	0.0	267.8	23.1
=	0.0	0.0	268.3	23.0
=	0.0	0.0	268.8	22.9
=	0.0	0.0	269.2	22.9
=	0.0	0.0	269.5	22.8
=	0.0	0.0	270.0	22.8
=	0.0	0.0	270.5	22.7
=	0.0	0.0	270.8	22.7
=	0.0	0.0	271.2	22.6
=	0.0	0.0	271.5	22.6
=	0.0	0.0	272.0	22.6
=	0.0	0.0	272.3	22.5
=	0.0	0.0	272.7	22.5
=	0.0	0.0	273.1	22.4
=	0.0	0.0	273.4	22.3
=	0.0	0.0	273.7	22.3
=	0.0	0.0	274.1	22.2
=	0.0	0.0	274.4	22.2
=	0.0	0.0	274.7	22.1
=	0.0	0.0	275.1	22.0
=	0.0	0.0	275.6	22.0
=	0.0	0.0	275.9	22.0
=	0.0	0.0	276.4	21.9
=	0.0	0.0	276.8	21.9
=	0.0	0.0	277.2	21.8
=	0.0	0.0	277.7	21.8
=	0.0	0.0	278.2	21.7
=	0.0	0.0	278.6	21.7
=	0.0	0.0	278.9	21.6
=	0.0	0.0	279.4	21.6
=	0.0	0.0	279.7	21.5
=	0.0	0.0	280.2	21.4
=	0.0	0.0	280.6	21.3
=	0.0	0.0	280.9	21.3
=	0.0	0.0	281.2	21.3
=	0.0	0.0	281.7	21.2
=	0.0	0.0	282.1	21.2
=	0.0	0.0	282.4	21.2
=	0.0	0.0	282.8	21.1
=	0.0	0.0	283.1	21.1
=	0.0	0.0	283.4	21.1
=	0.0	0.0	283.9	21.0
=	0.0	0.0	284.2	21.0
=	0.0	0.0	284.6	20.9
=	0.0	0.0	284.9	20.9
=	0.0	0.0	285.2	20.8
=	0.0	0.0	285.7	20.8
=	0.0	0.0	286.1	20.7
=	0.0	0.0	286.4	20.7
=	0.0	0.0	286.7	20.7
=	0.0	0.0	287.1	20.6
=	0.0	0.0	287.4	20.6
=	0.0	0.0	287.8	20.5
=	0.0	0.0	288.1	20.5
=	0.0	0.0	288.4	20.5
=	0.0	0.0	288.8	20.4
=	0.0	0.0	289.1	20.4
=	0.0	0.0	289.5	20.3
=	0.0	0.0	289.8	20.3
=	0.0	0.0	290.2	20.3
=	0.0	0.0	290.7	20.2
=	0.0	0.0	291.1	20.2
=	0.0	0.0	291.6	20.1
=	0.0	0.0	292.0	20.1
=	0.0	0.0	292.4	20.0
=	0.0	0.0	292.8	20.0
=	0.0	0.0	293.2	19.9
=	0.0	0.0	293.5	19.9
=	0.0	0.0	293.8	19.8
=	0.0	0.0	294.2	19.8
=	0.0	0.0	294.5	19.8
=	0.0	0.0	294.8	19.7
=	0.0	0.0	295.2	19.7
=	0.0	0.0	295.8	19.6
=	0.0	0.0	296.2	19.5
=	0.0	0.0	296.5	19.5
=	0.0	0.0	296.8	19.4
=	0.0	0.0	297.2	19.4
=	0.0	0.0	297.5	19.4
=	0.0	0.0	298.0	19.3
=	0.0	0.0	298.3	19.3
=	0.0	0.0	298.7	19.3
=	0.0	0.0	299.0	19.2
=	0.0	0.0	299.5	19.1
=	0.0	0.0	300.0	19.1
=	0.0	0.0	300.4	19.0
:EOM # End of Measurement
#
# RFA300 ASCII Measurement Dump ( BDS format )
#
# Measurement number 	2
#
%VNR 1.0
%MOD 	RAT
%TYP 	SCN
%SCN 	DPT
%FLD 	ION
%DAT 	02-03-2012
%TIM 	12:00:00
%FSZ 	100	100
%BMT 	PHO	   4.0
%SSD 	1200
%BUP 	0
%BRD 	1200
%FSH 	1
%ASC 	0
%WEG 	60
%GPO 	0
%CPO 	0
%MEA 	5
%PRD 	0,0
%PTS 	567
%STS 	    0.0	  0.0	   0.0 # Start Scan values in mm ( X , Y , Z )
%EDS 	    0.0	   0.0	   300.6 # End Scan values in mm ( X , Y , Z )
#
#	  X      Y      Z     Dose
#
=	0.0	0.0	0.0	55.6
=	0.0	0.0	0.4	57.5
=	0.0	0.0	0.9	60.3
=	0.0	0.0	1.4	64.2
=	0.0	0.0	1.9	69.4
=	0.0	0.0	2.5	74.5
=	0.0	0.0	2.9	78.9
=	0.0	0.0	3.4	83.2
=	0.0	0.0	4.0	86.9
=	0.0	0.0	4.5	89.5
=	0.0	0.0	5.0	91.8
=	0.0	0.0	5.5	93.6
=	0.0	0.0	6.0	95.1
=	0.0	0.0	6.5	96.3
=	0.0	0.0	7.0	97.2
=	0.0	0.0	7.5	97.9
=	0.0	0.0	8.0	98.5
=	0.0	0.0	8.5	99.1
=	0.0	0.0	9.0	99.5
=	0.0	0.0	9.5	99.8
=	0.0	0.0	10.0	99.9
=	0.0	0.0	10.6	100.0
=	0.0	0.0	11.1	100.0
=	0.0	0.0	11.6	100.0
=	0.0	0.0	12.1	100.0
=	0.0	0.0	12.6	99.9
=	0.0	0.0	13.1	99.8
=	0.0	0.0	13.6	99.8
=	0.0	0.0	14.1	99.7
=	0.0	0.0	14.6	99.6
=	0.0	0.0	15.1	99.5
=	0.0	0.0	15.6	99.4
=	0.0	0.0	16.1	99.2
=	0.0	0.0	16.6	99.0
=	0.0	0.0	17.1	98.7
=	0.0	0.0	17.6	98.5
=	0.0	0.0	18.1	98.4
=	0.0	0.0	18.6	98.3
=	0.0	0.0	19.2	98.1
=	0.0	0.0	19.7	97.9
=	0.0	0.0	20.2	97.7
=	0.0	0.0	20.7	97.5
=	0.0	0.0	21.5	97.2
=	0.0	0.0	22.0	97.0
=	0.0	0.0	22.4	96.8
=	0.0	0.0	22.9	96.7
=	0.0	0.0	23.5	96.4
=	0.0	0.0	24.0	96.1
=	0.0	0.0	24.5	95.9
=	0.0	0.0	25.0	95.7
=	0.0	0.0	25.5	95.6
=	0.0	0.0	26.0	95.5
=	0.0	0.0	26.5	95.2
=	0.0	0.0	27.0	95.2
=	0.0	0.0	27.5	95.0
=	0.0	0.0	28.0	94.6
=	0.0	0.0	28.6	94.5
=	0.0	0.0	29.1	94.3
=	0.0	0.0	29.8	94.2
=	0.0	0.0	30.3	93.9
=	0.0	0.0	30.8	93.6
=	0.0	0.0	31.8	93.4
=	0.0	0.0	32.8	92.9
=	0.0	0.0	33.3	92.7
=	0.0	0.0	34.3	92.3
=	0.0	0.0	35.3	92.0
=	0.0	0.0	36.4	91.6
=	0.0	0.0	37.1	91.3
=	0.0	0.0	37.6	91.2
=	0.0	0.0	38.4	90.9
=	0.0	0.0	38.9	90.5
=	0.0	0.0	39.4	90.3
=	0.0	0.0	39.9	90.2
=	0.0	0.0	40.5	89.9
=	0.0	0.0	40.9	89.7
=	0.0	0.0	41.4	89.5
=	0.0	0.0	42.0	89.3
=	0.0	0.0	42.5	89.2
=	0.0	0.0	43.2	88.9
=	0.0	0.0	43.8	88.7
=	0.0	0.0	44.3	88.6
=	0.0	0.0	44.7	88.4
=	0.0	0.0	45.3	88.2
=	0.0	0.0	45.8	87.8
=	0.0	0.0	46.3	87.6
=	0.0	0.0	46.8	87.4
=	0.0	0.0	47.3	87.2
=	0.0	0.0	47.8	87.0
=	0.0	0.0	48.3	86.8
=	0.0	0.0	48.8	86.7
=	0.0	0.0	49.3	86.5
=	0.0	0.0	49.8	86.3
=	0.0	0.0	50.3	86.1
=	0.0	0.0	50.8	86.0
=	0.0	0.0	51.3	85.9
=	0.0	0.0	51.8	85.6
=	0.0	0.0	52.3	85.5
=	0.0	0.0	52.9	85.3
=	0.0	0.0	53.4	85.2
=	0.0	0.0	53.9	85.1
=	0.0	0.0	54.4	84.7
=	0.0	0.0	54.9	84.4
=	0.0	0.0	55.4	84.2
=	0.0	0.0	55.9	83.9
=	0.0	0.0	56.4	83.7
=	0.0	0.0	56.9	83.7
=	0.0	0.0	57.4	83.5
=	0.0	0.0	57.9	83.3
=	0.0	0.0	58.4	83.0
=	0.0	0.0	58.9	82.9
=	0.0	0.0	59.4	82.7
=	0.0	0.0	59.9	82.6
=	0.0	0.0	60.5	82.5
=	0.0	0.0	61.0	82.3
=	0.0	0.0	61.4	82.1
=	0.0	0.0	61.9	81.9
=	0.0	0.0	62.5	81.8
=	0.0	0.0	63.0	81.6
=	0.0	0.0	63.5	81.4
=	0.0	0.0	64.0	81.3
=	0.0	0.0	64.5	81.0
=	0.0	0.0	65.0	80.7
=	0.0	0.0	65.5	80.5
=	0.0	0.0	66.0	80.4
=	0.0	0.0	66.5	80.2
=	0.0	0.0	67.0	79.9
=	0.0	0.0	67.5	79.7
=	0.0	0.0	68.0	79.5
=	0.0	0.0	68.5	79.4
=	0.0	0.0	69.0	79.2
=	0.0	0.0	69.5	79.0
=	0.0	0.0	70.0	78.9
=	0.0	0.0	70.5	78.8
=	0.0	0.0	70.9	78.7
=	0.0	0.0	71.3	78.5
=	0.0	0.0	71.8	78.3
=	0.0	0.0	72.3	78.1
=	0.0	0.0	72.6	77.9
=	0.0	0.0	73.0	77.8
=	0.0	0.0	73.3	77.6
=	0.0	0.0	73.9	77.4
=	0.0	0.0	74.4	77.2
=	0.0	0.0	74.9	77.0
=	0.0	0.0	75.4	76.8
=	0.0	0.0	75.9	76.6
=	0.0	0.0	76.4	76.5
=	0.0	0.0	76.9	76.4
=	0.0	0.0	77.2	76.2
=	0.0	0.0	77.7	75.9
=	0.0	0.0	78.2	75.8
=	0.0	0.0	78.7	75.7
=	0.0	0.0	79.1	75.6
=	0.0	0.0	79.5	75.3
=	0.0	0.0	79.9	75.1
=	0.0	0.0	80.5	75.0
=	0.0	0.0	81.0	74.8
=	0.0	0.0	81.4	74.6
=	0.0	0.0	82.0	74.4
=	0.0	0.0	82.5	74.3
=	0.0	0.0	83.0	74.0
=	0.0	0.0	83.5	73.9
=	0.0	0.0	84.0	73.8
=	0.0	0.0	84.5	73.5
=	0.0	0.0	85.0	73.4
=	0.0	0.0	85.6	73.2
=	0.0	0.0	86.3	73.0
=	0.0	0.0	86.8	72.8
=	0.0	0.0	87.3	72.6
=	0.0	0.0	88.1	72.3
=	0.0	0.0	88.6	72.1
=	0.0	0.0	89.1	72.0
=	0.0	0.0	89.6	71.8
=	0.0	0.0	90.1	71.5
=	0.0	0.0	90.5	71.4
=	0.0	0.0	90.8	71.3
=	0.0	0.0	91.3	71.2
=	0.0	0.0	91.8	71.0
=	0.0	0.0	92.4	70.7
=	0.0	0.0	92.9	70.5
=	0.0	0.0	93.4	70.4
=	0.0	0.0	93.9	70.2
=	0.0	0.0	94.6	70.1
=	0.0	0.0	95.1	69.9
=	0.0	0.0	95.9	69.6
=	0.0	0.0	96.6	69.2
=	0.0	0.0	97.4	69.0
=	0.0	0.0	98.2	68.7
=	0.0	0.0	98.7	68.5
=	0.0	0.0	99.4	68.3
=	0.0	0.0	99.9	68.2
=	0.0	0.0	100.7	68.0
=	0.0	0.0	101.4	67.7
=	0.0	0.0	102.0	67.6
=	0.0	0.0	102.9	67.2
=	0.0	0.0	103.9	66.8
=	0.0	0.0	104.4	66.6
=	0.0	0.0	104.9	66.4
=	0.0	0.0	105.4	66.2
=	0.0	0.0	105.9	66.1
=	0.0	0.0	106.7	66.0
=	0.0	0.0	107.2	65.7
=	0.0	0.0	107.7	65.5
=	0.0	0.0	108.4	65.3
=	0.0	0.0	108.9	65.2
=	0.0	0.0	109.4	65.0
=	0.0	0.0	110.0	64.8
=	0.0	0.0	110.9	64.5
=	0.0	0.0	111.7	64.3
=	0.0	0.0	112.2	64.1
=	0.0	0.0	112.9	63.8
=	0.0	0.0	113.5	63.6
=	0.0	0.0	114.0	63.5
=	0.0	0.0	115.0	63.2
=	0.0	0.0	115.8	62.9
=	0.0	0.0	116.5	62.7
=	0.0	0.0	117.5	62.4
=	0.0	0.0	118.5	62.1
=	0.0	0.0	119.5	61.8
=	0.0	0.0	120.5	61.5
=	0.0	0.0	121.3	61.3
=	0.0	0.0	122.0	61.1
=	0.0	0.0	122.8	60.7
=	0.0	0.0	123.3	60.5
=	0.0	0.0	123.8	60.3
=	0.0	0.0	124.5	60.1
=	0.0	0.0	125.5	60.0
=	0.0	0.0	126.5	59.6
=	0.0	0.0	127.3	59.4
=	0.0	0.0	127.8	59.2
=	0.0	0.0	128.3	58.9
=	0.0	0.0	128.9	58.8
=	0.0	0.0	129.3	58.7
=	0.0	0.0	129.8	58.5
=	0.0	0.0	130.4	58.4
=	0.0	0.0	130.8	58.3
=	0.0	0.0	131.3	58.2
=	0.0	0.0	131.9	58.0
=	0.0	0.0	132.4	57.9
=	0.0	0.0	132.9	57.7
=	0.0	0.0	133.4	57.5
=	0.0	0.0	133.9	57.3
=	0.0	0.0	134.6	57.1
=	0.0	0.0	135.1	57.0
=	0.0	0.0	135.6	56.9
=	0.0	0.0	136.6	56.6
=	0.0	0.0	137.2	56.4
=	0.0	0.0	137.7	56.3
=	0.0	0.0	138.2	56.2
=	0.0	0.0	138.7	56.0
=	0.0	0.0	139.2	55.8
=	0.0	0.0	139.7	55.6
=	0.0	0.0	140.2	55.4
=	0.0	0.0	140.7	55.3
=	0.0	0.0	141.2	55.2
=	0.0	0.0	141.7	55.1
=	0.0	0.0	142.2	54.9
=	0.0	0.0	142.8	54.7
=	0.0	0.0	143.3	54.5
=	0.0	0.0	143.8	54.4
=	0.0	0.0	144.3	54.3
=	0.0	0.0	144.8	54.1
=	0.0	0.0	145.3	54.0
=	0.0	0.0	145.8	53.8
=	0.0	0.0	146.3	53.7
=	0.0	0.0	146.8	53.5
=	0.0	0.0	147.3	53.4
=	0.0	0.0	147.6	53.4
=	0.0	0.0	147.9	53.3
=	0.0	0.0	148.3	53.1
=	0.0	0.0	148.8	53.0
=	0.0	0.0	149.3	52.8
=	0.0	0.0	149.8	52.7
=	0.0	0.0	150.1	52.6
=	0.0	0.0	150.4	52.5
=	0.0	0.0	150.9	52.5
=	0.0	0.0	151.3	52.4
=	0.0	0.0	151.6	52.3
=	0.0	0.0	152.1	52.2
=	0.0	0.0	152.6	52.0
=	0.0	0.0	153.1	51.8
=	0.0	0.0	153.5	51.8
=	0.0	0.0	153.9	51.7
=	0.0	0.0	154.4	51.6
=	0.0	0.0	154.6	51.5
=	0.0	0.0	155.1	51.3
=	0.0	0.0	155.5	51.2
=	0.0	0.0	155.9	51.1
=	0.0	0.0	156.3	50.9
=	0.0	0.0	156.9	50.8
=	0.0	0.0	157.4	50.6
=	0.0	0.0	157.9	50.5
=	0.0	0.0	158.4	50.4
=	0.0	0.0	158.9	50.3
=	0.0	0.0	159.4	50.2
=	0.0	0.0	159.9	50.1
=	0.0	0.0	160.4	50.0
=	0.0	0.0	160.9	49.7
=	0.0	0.0	161.4	49.5
=	0.0	0.0	161.9	49.4
=	0.0	0.0	162.4	49.4
=	0.0	0.0	162.9	49.2
=	0.0	0.0	163.4	49.1
=	0.0	0.0	163.9	48.8
=	0.0	0.0	164.4	48.8
=	0.0	0.0	164.9	48.6
=	0.0	0.0	165.4	48.5
=	0.0	0.0	165.9	48.4
=	0.0	0.0	166.4	48.3
=	0.0	0.0	167.0	48.2
=	0.0	0.0	167.5	48.0
=	0.0	0.0	168.0	47.9
=	0.0	0.0	168.4	47.7
=	0.0	0.0	168.9	47.6
=	0.0	0.0	169.4	47.5
=	0.0	0.0	170.0	47.4
=	0.0	0.0	170.5	47.3
=	0.0	0.0	170.9	47.2
=	0.0	0.0	171.4	47.1
=	0.0	0.0	172.0	46.9
=	0.0	0.0	172.5	46.8
=	0.0	0.0	173.0	46.6
=	0.0	0.0	173.5	46.4
=	0.0	0.0	174.0	46.3
=	0.0	0.0	174.5	46.3
=	0.0	0.0	175.0	46.2
=	0.0	0.0	175.5	46.0
=	0.0	0.0	176.0	45.9
=	0.0	0.0	176.5	45.7
=	0.0	0.0	177.0	45.6
=	0.0	0.0	177.5	45.5
=	0.0	0.0	178.0	45.3
=	0.0	0.0	178.5	45.2
=	0.0	0.0	179.0	45.1
=	0.0	0.0	179.5	45.0
=	0.0	0.0	180.0	44.9
=	0.0	0.0	180.5	44.8
=	0.0	0.0	181.0	44.8
=	0.0	0.0	181.5	44.6
=	0.0	0.0	182.0	44.4
=	0.0	0.0	182.6	44.3
=	0.0	0.0	183.1	44.3
=	0.0	0.0	183.6	44.1
=	0.0	0.0	184.1	43.9
=	0.0	0.0	184.6	43.8
=	0.0	0.0	185.4	43.6
=	0.0	0.0	186.1	43.4
=	0.0	0.0	186.6	43.3
=	0.0	0.0	187.1	43.2
=	0.0	0.0	187.8	43.1
=	0.0	0.0	188.5	42.9
=	0.0	0.0	189.1	42.8
=	0.0	0.0	189.6	42.7
=	0.0	0.0	190.4	42.5
=	0.0	0.0	191.3	42.3
=	0.0	0.0	192.3	42.1
=	0.0	0.0	192.9	42.0
=	0.0	0.0	193.9	41.7
=	0.0	0.0	194.9	41.5
=	0.0	0.0	195.9	41.3
=	0.0	0.0	196.9	41.0
=	0.0	0.0	197.9	40.7
=	0.0	0.0	198.9	40.6
=	0.0	0.0	199.9	40.3
=	0.0	0.0	200.9	40.2
=	0.0	0.0	201.9	40.0
=	0.0	0.0	202.9	39.7
=	0.0	0.0	204.0	39.5
=	0.0	0.0	204.9	39.3
=	0.0	0.0	206.0	39.1
=	0.0	0.0	207.0	38.8
=	0.0	0.0	207.8	38.6
=	0.0	0.0	208.3	38.5
=	0.0	0.0	208.8	38.4
=	0.0	0.0	209.3	38.3
=	0.0	0.0	210.0	38.2
=	0.0	0.0	211.0	38.0
=	0.0	0.0	212.0	37.8
=	0.0	0.0	213.0	37.6
=	0.0	0.0	213.6	37.5
=	0.0	0.0	214.1	37.4
=	0.0	0.0	214.6	37.2
=	0.0	0.0	215.5	37.0
=	0.0	0.0	216.5	36.9
=	0.0	0.0	217.3	36.7
=	0.0	0.0	217.8	36.6
=	0.0	0.0	218.3	36.6
=	0.0	0.0	218.8	36.5
=	0.0	0.0	219.3	36.4
=	0.0	0.0	219.8	36.3
=	0.0	0.0	220.4	36.1
=	0.0	0.0	220.9	36.0
=	0.0	0.0	221.4	35.9
=	0.0	0.0	221.9	35.8
=	0.0	0.0	222.4	35.7
=	0.0	0.0	222.8	35.6
=	0.0	0.0	223.4	35.5
=	0.0	0.0	223.9	35.4
=	0.0	0.0	224.4	35.3
=	0.0	0.0	225.1	35.2
=	0.0	0.0	225.6	35.1
=	0.0	0.0	226.1	35.1
=	0.0	0.0	226.6	34.9
=	0.0	0.0	227.1	34.9
=	0.0	0.0	227.6	34.8
=	0.0	0.0	228.1	34.7
=	0.0	0.0	228.6	34.5
=	0.0	0.0	229.6	34.4
=	0.0	0.0	230.1	34.3
=	0.0	0.0	231.1	34.2
=	0.0	0.0	232.1	33.9
=	0.0	0.0	233.1	33.7
=	0.0	0.0	233.7	33.6
=	0.0	0.0	234.4	33.5
=	0.0	0.0	235.1	33.3
=	0.0	0.0	236.1	33.1
=	0.0	0.0	236.7	33.0
=	0.0	0.0	237.2	33.0
=	0.0	0.0	237.7	32.9
=	0.0	0.0	238.2	32.8
=	0.0	0.0	238.7	32.8
=	0.0	0.0	239.2	32.7
=	0.0	0.0	239.7	32.6
=	0.0	0.0	240.2	32.5
=	0.0	0.0	240.7	32.4
=	0.0	0.0	241.6	32.2
=	0.0	0.0	242.6	32.1
=	0.0	0.0	243.4	31.9
=	0.0	0.0	244.0	31.8
=	0.0	0.0	244.5	31.7
=	0.0	0.0	245.0	31.5
=	0.0	0.0	245.4	31.4
=	0.0	0.0	245.7	31.4
=	0.0	0.0	246.0	31.4
=	0.0	0.0	246.4	31.3
=	0.0	0.0	246.7	31.3
=	0.0	0.0	247.0	31.3
=	0.0	0.0	247.4	31.2
=	0.0	0.0	247.7	31.1
=	0.0	0.0	248.0	31.1
=	0.0	0.0	248.4	31.0
=	0.0	0.0	248.7	31.0
=	0.0	0.0	249.1	31.0
=	0.0	0.0	249.4	30.9
=	0.0	0.0	249.8	30.9
=	0.0	0.0	250.1	30.8
=	0.0	0.0	250.4	30.8
=	0.0	0.0	250.8	30.7
=	0.0	0.0	251.1	30.6
=	0.0	0.0	251.6	30.5
=	0.0	0.0	251.9	30.5
=	0.0	0.0	252.3	30.4
=	0.0	0.0	252.6	30.4
=	0.0	0.0	252.9	30.3
=	0.0	0.0	253.3	30.2
=	0.0	0.0	253.6	30.1
=	0.0	0.0	253.9	30.1
=	0.0	0.0	254.3	30.1
=	0.0	0.0	254.6	30.0
=	0.0	0.0	254.9	30.0
=	0.0	0.0	255.3	29.9
=	0.0	0.0	255.6	29.9
=	0.0	0.0	255.9	29.8
=	0.0	0.0	256.3	29.7
=	0.0	0.0	256.6	29.7
=	0.0	0.0	256.9	29.6
=	0.0	0.0	257.4	29.6
=	0.0	0.0	257.8	29.5
=	0.0	0.0	258.1	29.5
=	0.0	0.0	258.4	29.5
=	0.0	0.0	258.8	29.4
=	0.0	0.0	259.1	29.3
=	0.0	0.0	259.7	29.2
=	0.0	0.0	260.1	29.1
=	0.0	0.0	260.7	29.1
=	0.0	0.0	261.2	29.0
=	0.0	0.0	261.5	28.9
=	0.0	0.0	261.8	28.8
=	0.0	0.0	262.2	28.8
=	0.0	0.0	262.7	28.7
=	0.0	0.0	263.2	28.6
=	0.0	0.0	263.5	28.6
=	0.0	0.0	263.9	28.5
=	0.0	0.0	264.2	28.5
=	0.0	0.0	264.7	28.5
=	0.0	0.0	265.2	28.4
=	0.0	0.0	265.5	28.3
=	0.0	0.0	266.0	28.2
=	0.0	0.0	266.4	28.2
=	0.0	0.0	266.9	28.1
=	0.0	0.0	267.2	28.0
=	0.0	0.0	267.7	27.9
=	0.0	0.0	268.0	27.9
=	0.0	0.0	268.4	27.8
=	0.0	0.0	268.7	27.8
=	0.0	0.0	269.2	27.7
=	0.0	0.0	269.7	27.6
=	0.0	0.0	270.2	27.6
=	0.0	0.0	270.7	27.5
=	0.0	0.0	271.0	27.5
=	0.0	0.0	271.5	27.3
=	0.0	0.0	272.0	27.3
=	0.0	0.0	272.5	27.3
=	0.0	0.0	273.0	27.2
=	0.0	0.0	273.5	27.1
=	0.0	0.0	274.0	27.0
=	0.0	0.0	274.5	27.0
=	0.0	0.0	275.0	26.9
=	0.0	0.0	275.4	26.9
=	0.0	0.0	275.7	26.8
=	0.0	0.0	276.1	26.8
=	0.0	0.0	276.5	26.8
=	0.0	0.0	276.9	26.7
=	0.0	0.0	277.2	26.6
=	0.0	0.0	277.7	26.4
=	0.0	0.0	278.1	26.4
=	0.0	0.0	278.4	26.4
=	0.0	0.0	278.7	26.3
=	0.0	0.0	279.1	26.3
=	0.0	0.0	279.4	26.2
=	0.0	0.0	279.7	26.2
=	0.0	0.0	280.1	26.1
=	0.0	0.0	280.4	26.1
=	0.0	0.0	280.8	26.0
=	0.0	0.0	281.2	26.0
=	0.0	0.0	281.7	26.0
=	0.0	0.0	282.1	25.9
=	0.0	0.0	282.4	25.9
=	0.0	0.0	282.8	25.8
=	0.0	0.0	283.3	25.8
=	0.0	0.0	283.8	25.7
=	0.0	0.0	284.4	25.6
=	0.0	0.0	284.9	25.5
=	0.0	0.0	285.4	25.4
=	0.0	0.0	285.9	25.3
=	0.0	0.0	286.4	25.3
=	0.0	0.0	286.9	25.2
=	0.0	0.0	287.4	25.1
=	0.0	0.0	287.9	25.1
=	0.0	0.0	288.4	25.0
=	0.0	0.0	288.9	25.0
=	0.0	0.0	289.4	24.9
=	0.0	0.0	289.9	24.8
=	0.0	0.0	290.4	24.8
=	0.0	0.0	291.0	24.7
=	0.0	0.0	291.4	24.6
=	0.0	0.0	291.9	24.5
=	0.0	0.0	292.4	24.4
=	0.0	0.0	292.8	24.4
=	0.0	0.0	293.1	24.3
=	0.0	0.0	293.5	24.3
=	0.0	0.0	293.8	24.2
=	0.0	0.0	294.3	24.2
=	0.0	0.0	294.7	24.2
=	0.0	0.0	295.0	24.1
=	0.0	0.0	295.3	24.1
=	0.0	0.0	295.7	24.1
=	0.0	0.0	296.0	24.0
=	0.0	0.0	296.5	24.0
=	0.0	0.0	297.0	23.9
=	0.0	0.0	297.5	23.9
=	0.0	0.0	298.0	23.8
=	0.0	0.0	298.6	23.6
=	0.0	0.0	298.9	23.6
=	0.0	0.0	299.3	23.5
=	0.0	0.0	299.8	23.5
=	0.0	0.0	300.2	23.4
=	0.0	0.0	300.6	23.4
:EOM # End of Measurement
#
# RFA300 ASCII Measurement Dump ( BDS format )
#
# Measurement number 	3
#
%VNR 1.0
%MOD 	RAT
%TYP 	SCN
%SCN 	DPT
%FLD 	ION
%DAT 	02-03-2012
%TIM 	12:00:00
%FSZ 	150	150
%BMT 	PHO	   4.0
%SSD 	1200
%BUP 	0
%BRD 	1200
%FSH 	1
%ASC 	0
%WEG 	60
%GPO 	0
%CPO 	0
%MEA 	5
%PRD 	0,0
%PTS 	704
%STS 	    0.0	  0.0	   0.0 # Start Scan values in mm ( X , Y , Z )
%EDS 	    0.0	   0.0	   300.7 # End Scan values in mm ( X , Y , Z )
#
#	  X      Y      Z     Dose
#
=	0.0	0.0	0.0	59.4
=	0.0	0.0	0.2	60.6
=	0.0	0.0	0.7	63.1
=	0.0	0.0	1.2	66.4
=	0.0	0.0	1.7	70.8
=	0.0	0.0	2.2	75.4
=	0.0	0.0	2.7	79.8
=	0.0	0.0	3.2	83.7
=	0.0	0.0	3.8	87.0
=	0.0	0.0	4.3	89.7
=	0.0	0.0	4.8	91.6
=	0.0	0.0	5.3	93.5
=	0.0	0.0	5.8	95.3
=	0.0	0.0	6.3	96.5
=	0.0	0.0	6.8	97.2
=	0.0	0.0	7.3	98.1
=	0.0	0.0	7.8	98.8
=	0.0	0.0	8.3	99.3
=	0.0	0.0	8.8	99.7
=	0.0	0.0	9.3	99.9
=	0.0	0.0	9.8	99.9
=	0.0	0.0	10.3	100.0
=	0.0	0.0	10.8	100.0
=	0.0	0.0	11.4	100.0
=	0.0	0.0	11.8	100.0
=	0.0	0.0	12.3	99.9
=	0.0	0.0	12.8	99.9
=	0.0	0.0	13.4	99.8
=	0.0	0.0	13.9	99.7
=	0.0	0.0	14.4	99.6
=	0.0	0.0	14.9	99.5
=	0.0	0.0	15.4	99.2
=	0.0	0.0	15.9	99.1
=	0.0	0.0	16.3	99.0
=	0.0	0.0	16.9	98.7
=	0.0	0.0	17.4	98.5
=	0.0	0.0	17.9	98.4
=	0.0	0.0	18.4	98.3
=	0.0	0.0	18.8	98.2
=	0.0	0.0	19.4	98.0
=	0.0	0.0	19.9	97.9
=	0.0	0.0	20.4	97.8
=	0.0	0.0	20.9	97.7
=	0.0	0.0	21.4	97.4
=	0.0	0.0	21.9	97.2
=	0.0	0.0	22.4	97.0
=	0.0	0.0	22.9	96.7
=	0.0	0.0	23.4	96.5
=	0.0	0.0	23.9	96.4
=	0.0	0.0	24.4	96.3
=	0.0	0.0	24.9	96.3
=	0.0	0.0	25.4	96.1
=	0.0	0.0	25.9	95.9
=	0.0	0.0	26.4	95.7
=	0.0	0.0	26.9	95.4
=	0.0	0.0	27.4	95.3
=	0.0	0.0	28.0	95.0
=	0.0	0.0	28.5	94.9
=	0.0	0.0	28.9	94.7
=	0.0	0.0	29.5	94.5
=	0.0	0.0	30.0	94.4
=	0.0	0.0	30.5	94.3
=	0.0	0.0	31.0	94.0
=	0.0	0.0	31.5	93.9
=	0.0	0.0	32.0	93.7
=	0.0	0.0	32.5	93.5
=	0.0	0.0	33.0	93.3
=	0.0	0.0	33.5	93.1
=	0.0	0.0	33.8	93.1
=	0.0	0.0	34.1	93.0
=	0.0	0.0	34.5	92.8
=	0.0	0.0	35.0	92.5
=	0.0	0.0	35.5	92.3
=	0.0	0.0	36.0	92.2
=	0.0	0.0	36.6	92.0
=	0.0	0.0	37.0	91.8
=	0.0	0.0	37.5	91.7
=	0.0	0.0	38.1	91.5
=	0.0	0.0	38.6	91.3
=	0.0	0.0	39.0	91.1
=	0.0	0.0	39.6	91.0
=	0.0	0.0	40.1	90.9
=	0.0	0.0	40.6	90.8
=	0.0	0.0	41.1	90.5
=	0.0	0.0	41.4	90.4
=	0.0	0.0	41.7	90.2
=	0.0	0.0	42.1	90.1
=	0.0	0.0	42.4	90.0
=	0.0	0.0	42.7	89.8
=	0.0	0.0	43.1	89.7
=	0.0	0.0	43.4	89.6
=	0.0	0.0	43.7	89.4
=	0.0	0.0	44.1	89.3
=	0.0	0.0	44.6	89.1
=	0.0	0.0	45.1	88.9
=	0.0	0.0	45.6	88.8
=	0.0	0.0	46.1	88.7
=	0.0	0.0	46.6	88.5
=	0.0	0.0	47.1	88.3
=	0.0	0.0	47.6	88.2
=	0.0	0.0	48.1	88.0
=	0.0	0.0	48.6	87.7
=	0.0	0.0	49.1	87.5
=	0.0	0.0	49.7	87.4
=	0.0	0.0	50.0	87.3
=	0.0	0.0	50.4	87.2
=	0.0	0.0	50.9	87.0
=	0.0	0.0	51.3	86.8
=	0.0	0.0	51.7	86.7
=	0.0	0.0	52.2	86.4
=	0.0	0.0	52.5	86.2
=	0.0	0.0	52.9	86.1
=	0.0	0.0	53.2	86.0
=	0.0	0.0	53.6	85.9
=	0.0	0.0	54.1	85.8
=	0.0	0.0	54.7	85.5
=	0.0	0.0	55.1	85.4
=	0.0	0.0	55.6	85.2
=	0.0	0.0	56.0	85.0
=	0.0	0.0	56.4	84.9
=	0.0	0.0	56.7	84.9
=	0.0	0.0	57.1	84.8
=	0.0	0.0	57.4	84.7
=	0.0	0.0	57.9	84.5
=	0.0	0.0	58.4	84.1
=	0.0	0.0	58.9	83.9
=	0.0	0.0	59.4	83.8
=	0.0	0.0	59.7	83.7
=	0.0	0.0	60.2	83.5
=	0.0	0.0	60.7	83.4
=	0.0	0.0	61.2	83.3
=	0.0	0.0	61.7	83.2
=	0.0	0.0	62.2	83.1
=	0.0	0.0	62.7	83.0
=	0.0	0.0	63.2	82.7
=	0.0	0.0	63.7	82.5
=	0.0	0.0	64.2	82.4
=	0.0	0.0	64.7	82.2
=	0.0	0.0	65.3	82.0
=	0.0	0.0	65.8	81.8
=	0.0	0.0	66.3	81.5
=	0.0	0.0	66.8	81.4
=	0.0	0.0	67.3	81.2
=	0.0	0.0	67.8	81.1
=	0.0	0.0	68.3	80.9
=	0.0	0.0	68.8	80.7
=	0.0	0.0	69.3	80.6
=	0.0	0.0	69.8	80.5
=	0.0	0.0	70.3	80.3
=	0.0	0.0	70.8	80.2
=	0.0	0.0	71.3	79.9
=	0.0	0.0	71.8	79.7
=	0.0	0.0	72.3	79.5
=	0.0	0.0	72.8	79.4
=	0.0	0.0	73.3	79.1
=	0.0	0.0	73.8	79.0
=	0.0	0.0	74.3	78.8
=	0.0	0.0	74.8	78.6
=	0.0	0.0	75.4	78.4
=	0.0	0.0	75.8	78.3
=	0.0	0.0	76.2	78.3
=	0.0	0.0	76.5	78.2
=	0.0	0.0	76.9	78.0
=	0.0	0.0	77.2	77.9
=	0.0	0.0	77.5	77.8
=	0.0	0.0	77.9	77.6
=	0.0	0.0	78.2	77.5
=	0.0	0.0	78.5	77.4
=	0.0	0.0	78.9	77.2
=	0.0	0.0	79.2	77.1
=	0.0	0.0	79.6	77.0
=	0.0	0.0	80.1	76.8
=	0.0	0.0	80.4	76.8
=	0.0	0.0	80.8	76.7
=	0.0	0.0	81.1	76.6
=	0.0	0.0	81.4	76.5
=	0.0	0.0	81.7	76.4
=	0.0	0.0	82.1	76.3
=	0.0	0.0	82.4	76.2
=	0.0	0.0	82.8	76.1
=	0.0	0.0	83.1	76.0
=	0.0	0.0	83.4	75.7
=	0.0	0.0	83.8	75.6
=	0.0	0.0	84.1	75.5
=	0.0	0.0	84.7	75.4
=	0.0	0.0	85.2	75.3
=	0.0	0.0	85.7	75.2
=	0.0	0.0	86.2	74.9
