:MSR 	1	 # No. of measurement in file
:SYS BDS 0   # Beam Data Scanner System
#
# RFA300 ASCII Measurement Dump ( BDS format )
#
# Measurement number 	1
#
%VNR 1.0
%MOD 	RAT
%TYP 	SCN
%SCN 	PRO
%FLD 	ION
%DAT 	10-12-2011
%TIM 	12:00:00
%FSZ 	400	400
%BMT 	ELE	   12.0
%SSD 	
%BUP 	0
%BRD 	
%FSH 	1
%ASC 	0
%WEG 	0
%GPO 	0
%CPO 	0
%MEA 	2
%PRD 	0,0
%PTS 	777
%STS 	    -236.4	  0.0	   0.0 # Start Scan values in mm ( X , Y , Z )
%EDS 	    236.3	   0.0	   0.0 # End Scan values in mm ( X , Y , Z )
#
#	  X      Y      Z     Dose
#
=	-236.4	0.0	0.0	5.1
=	-235.9	0.0	0.0	5.2
=	-235.2	0.0	0.0	5.4
=	-234.4	0.0	0.0	5.7
=	-233.9	0.0	0.0	5.9
=	-233.2	0.0	0.0	6.1
=	-232.6	0.0	0.0	6.3
=	-232.1	0.0	0.0	6.5
=	-231.4	0.0	0.0	6.8
=	-230.8	0.0	0.0	7.1
=	-230.0	0.0	0.0	7.5
=	-228.8	0.0	0.0	8.1
=	-227.6	0.0	0.0	8.8
=	-226.7	0.0	0.0	9.4
=	-226.1	0.0	0.0	9.8
=	-225.5	0.0	0.0	10.2
=	-225.0	0.0	0.0	10.6
=	-224.0	0.0	0.0	11.4
=	-223.1	0.0	0.0	12.1
=	-222.6	0.0	0.0	12.6
=	-222.0	0.0	0.0	13.3
=	-221.3	0.0	0.0	13.9
=	-220.8	0.0	0.0	14.5
=	-220.0	0.0	0.0	15.4
=	-219.3	0.0	0.0	16.3
=	-218.7	0.0	0.0	17.0
=	-218.1	0.0	0.0	17.8
=	-217.5	0.0	0.0	18.6
=	-216.9	0.0	0.0	19.4
=	-216.4	0.0	0.0	20.3
=	-215.7	0.0	0.0	21.2
=	-215.1	0.0	0.0	22.1
=	-214.5	0.0	0.0	23.1
=	-213.9	0.0	0.0	24.1
=	-213.3	0.0	0.0	25.1
=	-212.7	0.0	0.0	26.1
=	-212.1	0.0	0.0	27.2
=	-211.5	0.0	0.0	28.2
=	-210.9	0.0	0.0	29.3
=	-210.2	0.0	0.0	30.5
=	-209.4	0.0	0.0	32.0
=	-208.8	0.0	0.0	33.1
=	-208.2	0.0	0.0	34.3
=	-207.6	0.0	0.0	35.4
=	-207.0	0.0	0.0	36.6
=	-206.4	0.0	0.0	37.8
=	-205.7	0.0	0.0	39.1
=	-205.2	0.0	0.0	40.1
=	-204.6	0.0	0.0	41.2
=	-204.0	0.0	0.0	42.4
=	-203.4	0.0	0.0	43.5
=	-202.8	0.0	0.0	44.6
=	-202.2	0.0	0.0	45.8
=	-201.6	0.0	0.0	46.9
=	-201.0	0.0	0.0	47.9
=	-200.2	0.0	0.0	49.4
=	-199.0	0.0	0.0	51.5
=	-198.1	0.0	0.0	53.1
=	-197.5	0.0	0.0	54.0
=	-196.5	0.0	0.0	55.6
=	-195.4	0.0	0.0	57.5
=	-194.4	0.0	0.0	58.9
=	-193.3	0.0	0.0	60.5
=	-192.1	0.0	0.0	62.1
=	-190.9	0.0	0.0	63.7
=	-189.8	0.0	0.0	65.0
=	-189.2	0.0	0.0	65.8
=	-188.6	0.0	0.0	66.5
=	-188.0	0.0	0.0	67.2
=	-187.5	0.0	0.0	67.8
=	-186.8	0.0	0.0	68.5
=	-186.3	0.0	0.0	69.1
=	-185.6	0.0	0.0	69.8
=	-185.1	0.0	0.0	70.4
=	-184.6	0.0	0.0	70.8
=	-184.1	0.0	0.0	71.3
=	-183.6	0.0	0.0	71.7
=	-183.0	0.0	0.0	72.2
=	-182.4	0.0	0.0	72.8
=	-182.0	0.0	0.0	73.3
=	-181.4	0.0	0.0	73.8
=	-180.9	0.0	0.0	74.2
=	-180.3	0.0	0.0	74.8
=	-179.7	0.0	0.0	75.3
=	-179.1	0.0	0.0	75.8
=	-178.5	0.0	0.0	76.3
=	-177.9	0.0	0.0	76.8
=	-177.3	0.0	0.0	77.3
=	-176.5	0.0	0.0	77.8
=	-175.8	0.0	0.0	78.3
=	-175.1	0.0	0.0	79.0
=	-174.5	0.0	0.0	79.4
=	-173.9	0.0	0.0	79.8
=	-173.4	0.0	0.0	80.2
=	-172.8	0.0	0.0	80.6
=	-172.4	0.0	0.0	80.9
=	-172.0	0.0	0.0	81.2
=	-171.4	0.0	0.0	81.6
=	-170.8	0.0	0.0	82.0
=	-170.2	0.0	0.0	82.4
=	-169.4	0.0	0.0	83.0
=	-168.8	0.0	0.0	83.3
=	-168.0	0.0	0.0	83.8
=	-167.2	0.0	0.0	84.3
=	-166.4	0.0	0.0	84.8
=	-165.6	0.0	0.0	85.3
=	-165.0	0.0	0.0	85.7
=	-164.2	0.0	0.0	86.2
=	-163.6	0.0	0.0	86.5
=	-162.9	0.0	0.0	86.9
=	-162.3	0.0	0.0	87.2
=	-161.8	0.0	0.0	87.5
=	-161.2	0.0	0.0	87.8
=	-160.7	0.0	0.0	88.1
=	-160.3	0.0	0.0	88.3
=	-159.9	0.0	0.0	88.6
=	-159.2	0.0	0.0	88.9
=	-158.5	0.0	0.0	89.3
=	-157.8	0.0	0.0	89.6
=	-157.2	0.0	0.0	89.9
=	-156.6	0.0	0.0	90.3
=	-155.7	0.0	0.0	90.6
=	-155.0	0.0	0.0	91.0
=	-154.2	0.0	0.0	91.3
=	-153.5	0.0	0.0	91.6
=	-152.7	0.0	0.0	91.9
=	-152.0	0.0	0.0	92.3
=	-151.4	0.0	0.0	92.5
=	-151.0	0.0	0.0	92.7
=	-150.6	0.0	0.0	92.9
=	-150.0	0.0	0.0	93.1
=	-149.5	0.0	0.0	93.3
=	-149.1	0.0	0.0	93.5
=	-148.5	0.0	0.0	93.7
=	-148.0	0.0	0.0	94.0
=	-147.5	0.0	0.0	94.1
=	-147.1	0.0	0.0	94.3
=	-146.7	0.0	0.0	94.5
=	-146.1	0.0	0.0	94.7
=	-145.5	0.0	0.0	94.9
=	-144.9	0.0	0.0	95.1
=	-144.2	0.0	0.0	95.3
=	-143.6	0.0	0.0	95.6
=	-143.0	0.0	0.0	95.8
=	-142.2	0.0	0.0	96.0
=	-141.6	0.0	0.0	96.2
=	-141.0	0.0	0.0	96.4
=	-140.2	0.0	0.0	96.6
=	-139.6	0.0	0.0	96.8
=	-139.0	0.0	0.0	97.0
=	-138.4	0.0	0.0	97.1
=	-138.0	0.0	0.0	97.3
=	-137.4	0.0	0.0	97.4
=	-136.8	0.0	0.0	97.6
=	-136.2	0.0	0.0	97.8
=	-135.6	0.0	0.0	97.9
=	-134.7	0.0	0.0	98.2
=	-133.7	0.0	0.0	98.4
=	-133.1	0.0	0.0	98.6
=	-132.3	0.0	0.0	98.8
=	-131.7	0.0	0.0	98.9
=	-131.2	0.0	0.0	99.0
=	-130.7	0.0	0.0	99.1
=	-130.1	0.0	0.0	99.2
=	-129.5	0.0	0.0	99.4
=	-128.9	0.0	0.0	99.5
=	-128.3	0.0	0.0	99.6
=	-127.7	0.0	0.0	99.8
=	-127.1	0.0	0.0	99.9
=	-126.5	0.0	0.0	100.0
=	-125.9	0.0	0.0	100.1
=	-125.3	0.0	0.0	100.2
=	-124.7	0.0	0.0	100.3
=	-124.1	0.0	0.0	100.4
=	-123.6	0.0	0.0	100.5
=	-123.1	0.0	0.0	100.6
=	-122.5	0.0	0.0	100.7
=	-121.8	0.0	0.0	100.8
=	-121.2	0.0	0.0	100.8
=	-120.8	0.0	0.0	100.9
=	-120.3	0.0	0.0	101.0
=	-119.8	0.0	0.0	101.0
=	-119.4	0.0	0.0	101.1
=	-118.8	0.0	0.0	101.1
=	-118.2	0.0	0.0	101.2
=	-117.7	0.0	0.0	101.3
=	-117.3	0.0	0.0	101.3
=	-116.9	0.0	0.0	101.4
=	-116.5	0.0	0.0	101.4
=	-116.1	0.0	0.0	101.5
=	-115.6	0.0	0.0	101.5
=	-115.0	0.0	0.0	101.6
=	-114.4	0.0	0.0	101.7
=	-113.7	0.0	0.0	101.7
=	-113.2	0.0	0.0	101.8
=	-112.5	0.0	0.0	101.8
=	-112.0	0.0	0.0	101.8
=	-111.4	0.0	0.0	101.9
=	-110.9	0.0	0.0	101.9
=	-110.2	0.0	0.0	102.0
=	-109.6	0.0	0.0	102.0
=	-109.0	0.0	0.0	102.1
=	-108.5	0.0	0.0	102.1
=	-108.0	0.0	0.0	102.1
=	-107.4	0.0	0.0	102.2
=	-106.8	0.0	0.0	102.2
=	-106.2	0.0	0.0	102.2
=	-105.7	0.0	0.0	102.2
=	-105.3	0.0	0.0	102.2
=	-104.9	0.0	0.0	102.2
=	-104.4	0.0	0.0	102.3
=	-103.8	0.0	0.0	102.3
=	-103.3	0.0	0.0	102.3
=	-102.8	0.0	0.0	102.3
=	-102.2	0.0	0.0	102.3
=	-101.6	0.0	0.0	102.4
=	-101.1	0.0	0.0	102.4
=	-100.4	0.0	0.0	102.4
=	-99.8	0.0	0.0	102.4
=	-99.2	0.0	0.0	102.4
=	-98.6	0.0	0.0	102.4
=	-98.0	0.0	0.0	102.4
=	-97.4	0.0	0.0	102.4
=	-96.8	0.0	0.0	102.4
=	-96.1	0.0	0.0	102.4
=	-95.4	0.0	0.0	102.4
=	-94.7	0.0	0.0	102.4
=	-94.2	0.0	0.0	102.4
=	-93.5	0.0	0.0	102.4
=	-93.0	0.0	0.0	102.4
=	-92.2	0.0	0.0	102.4
=	-91.5	0.0	0.0	102.4
=	-90.9	0.0	0.0	102.4
=	-90.3	0.0	0.0	102.3
=	-89.7	0.0	0.0	102.3
=	-89.1	0.0	0.0	102.2
=	-88.5	0.0	0.0	102.2
=	-87.9	0.0	0.0	102.2
=	-87.0	0.0	0.0	102.2
=	-86.4	0.0	0.0	102.2
=	-85.8	0.0	0.0	102.2
=	-85.3	0.0	0.0	102.2
=	-84.7	0.0	0.0	102.1
=	-84.2	0.0	0.0	102.1
=	-83.8	0.0	0.0	102.1
=	-83.3	0.0	0.0	102.1
=	-82.7	0.0	0.0	102.1
=	-82.2	0.0	0.0	102.1
=	-81.8	0.0	0.0	102.1
=	-81.3	0.0	0.0	102.1
=	-80.7	0.0	0.0	102.0
=	-80.1	0.0	0.0	102.0
=	-79.5	0.0	0.0	102.0
=	-78.9	0.0	0.0	102.0
=	-78.3	0.0	0.0	102.0
=	-77.7	0.0	0.0	101.9
=	-76.9	0.0	0.0	101.9
=	-76.5	0.0	0.0	101.9
=	-76.0	0.0	0.0	101.9
=	-75.4	0.0	0.0	101.9
=	-75.0	0.0	0.0	101.8
=	-74.5	0.0	0.0	101.8
=	-73.9	0.0	0.0	101.8
=	-73.3	0.0	0.0	101.8
=	-72.7	0.0	0.0	101.8
=	-72.1	0.0	0.0	101.8
=	-71.5	0.0	0.0	101.7
=	-70.9	0.0	0.0	101.7
=	-70.5	0.0	0.0	101.7
=	-70.1	0.0	0.0	101.7
=	-69.5	0.0	0.0	101.6
=	-68.9	0.0	0.0	101.6
=	-68.3	0.0	0.0	101.6
=	-67.7	0.0	0.0	101.5
=	-67.1	0.0	0.0	101.5
=	-66.4	0.0	0.0	101.5
=	-65.9	0.0	0.0	101.4
=	-65.2	0.0	0.0	101.4
=	-64.6	0.0	0.0	101.3
=	-63.9	0.0	0.0	101.3
=	-63.2	0.0	0.0	101.3
=	-62.6	0.0	0.0	101.3
=	-62.0	0.0	0.0	101.2
=	-61.4	0.0	0.0	101.2
=	-60.8	0.0	0.0	101.2
=	-60.2	0.0	0.0	101.2
=	-59.6	0.0	0.0	101.1
=	-59.0	0.0	0.0	101.1
=	-58.4	0.0	0.0	101.1
=	-57.8	0.0	0.0	101.0
=	-57.2	0.0	0.0	101.0
=	-56.8	0.0	0.0	101.0
=	-56.4	0.0	0.0	101.0
=	-55.8	0.0	0.0	100.9
=	-55.2	0.0	0.0	100.9
=	-54.5	0.0	0.0	100.9
=	-54.0	0.0	0.0	100.9
=	-53.4	0.0	0.0	100.8
=	-52.9	0.0	0.0	100.8
=	-52.3	0.0	0.0	100.8
=	-51.7	0.0	0.0	100.8
=	-51.2	0.0	0.0	100.7
=	-50.7	0.0	0.0	100.7
=	-50.2	0.0	0.0	100.7
=	-49.8	0.0	0.0	100.7
=	-49.4	0.0	0.0	100.7
=	-49.0	0.0	0.0	100.6
=	-48.7	0.0	0.0	100.6
=	-48.2	0.0	0.0	100.6
=	-47.8	0.0	0.0	100.6
=	-47.4	0.0	0.0	100.6
=	-47.0	0.0	0.0	100.6
=	-46.4	0.0	0.0	100.6
=	-45.9	0.0	0.0	100.5
=	-45.2	0.0	0.0	100.5
=	-44.6	0.0	0.0	100.5
=	-44.0	0.0	0.0	100.5
=	-43.5	0.0	0.0	100.5
=	-42.8	0.0	0.0	100.5
=	-42.2	0.0	0.0	100.5
=	-41.6	0.0	0.0	100.4
=	-41.0	0.0	0.0	100.4
=	-40.4	0.0	0.0	100.4
=	-39.8	0.0	0.0	100.4
=	-39.2	0.0	0.0	100.4
=	-38.6	0.0	0.0	100.4
=	-38.0	0.0	0.0	100.4
=	-37.3	0.0	0.0	100.3
=	-36.6	0.0	0.0	100.3
=	-36.0	0.0	0.0	100.3
=	-35.4	0.0	0.0	100.3
=	-34.8	0.0	0.0	100.3
=	-34.2	0.0	0.0	100.3
=	-33.6	0.0	0.0	100.3
=	-33.0	0.0	0.0	100.3
=	-32.6	0.0	0.0	100.3
=	-32.2	0.0	0.0	100.3
=	-31.7	0.0	0.0	100.3
=	-31.2	0.0	0.0	100.3
=	-30.7	0.0	0.0	100.2
=	-30.2	0.0	0.0	100.2
=	-29.8	0.0	0.0	100.2
=	-29.4	0.0	0.0	100.2
=	-28.8	0.0	0.0	100.2
=	-28.4	0.0	0.0	100.2
=	-28.0	0.0	0.0	100.2
=	-27.6	0.0	0.0	100.2
=	-27.0	0.0	0.0	100.2
=	-26.4	0.0	0.0	100.2
=	-25.8	0.0	0.0	100.2
=	-25.2	0.0	0.0	100.2
=	-24.6	0.0	0.0	100.2
=	-24.0	0.0	0.0	100.1
=	-23.4	0.0	0.0	100.1
=	-22.8	0.0	0.0	100.1
=	-22.2	0.0	0.0	100.1
=	-21.6	0.0	0.0	100.1
=	-21.0	0.0	0.0	100.1
=	-20.4	0.0	0.0	100.1
=	-19.8	0.0	0.0	100.1
=	-19.3	0.0	0.0	100.1
=	-18.8	0.0	0.0	100.1
=	-18.1	0.0	0.0	100.1
=	-17.5	0.0	0.0	100.1
=	-16.9	0.0	0.0	100.1
=	-16.3	0.0	0.0	100.1
=	-15.7	0.0	0.0	100.1
=	-15.1	0.0	0.0	100.1
=	-14.5	0.0	0.0	100.1
=	-13.9	0.0	0.0	100.1
=	-13.2	0.0	0.0	100.1
=	-12.7	0.0	0.0	100.1
=	-12.1	0.0	0.0	100.1
=	-11.2	0.0	0.0	100.1
=	-10.5	0.0	0.0	100.1
=	-9.6	0.0	0.0	100.0
=	-9.0	0.0	0.0	100.0
=	-8.3	0.0	0.0	100.0
=	-7.4	0.0	0.0	100.0
=	-6.4	0.0	0.0	100.0
=	-6.0	0.0	0.0	100.0
=	-5.6	0.0	0.0	100.0
=	-5.1	0.0	0.0	100.0
=	-4.5	0.0	0.0	100.0
=	-4.1	0.0	0.0	100.0
=	-3.5	0.0	0.0	100.0
=	-2.9	0.0	0.0	100.0
=	-2.4	0.0	0.0	100.0
=	-1.8	0.0	0.0	100.0
=	-1.2	0.0	0.0	100.0
=	-0.6	0.0	0.0	100.0
=	0.0	0.0	0.0	100.0
=	0.1	0.0	0.0	100.0
=	0.6	0.0	0.0	100.0
=	1.2	0.0	0.0	100.0
=	1.8	0.0	0.0	100.0
=	2.2	0.0	0.0	100.0
=	2.6	0.0	0.0	100.0
=	3.1	0.0	0.0	100.0
=	3.7	0.0	0.0	100.0
=	4.3	0.0	0.0	100.0
=	4.9	0.0	0.0	100.0
=	5.5	0.0	0.0	100.0
=	6.1	0.0	0.0	100.0
=	6.8	0.0	0.0	100.0
=	7.3	0.0	0.0	100.0
=	7.9	0.0	0.0	100.0
=	8.5	0.0	0.0	100.1
=	9.1	0.0	0.0	100.1
=	9.8	0.0	0.0	100.1
=	10.4	0.0	0.0	100.1
=	11.0	0.0	0.0	100.1
=	11.6	0.0	0.0	100.1
=	12.1	0.0	0.0	100.1
=	12.6	0.0	0.0	100.1
=	13.0	0.0	0.0	100.1
=	13.4	0.0	0.0	100.1
=	13.8	0.0	0.0	100.1
=	14.3	0.0	0.0	100.1
=	14.7	0.0	0.0	100.1
=	15.1	0.0	0.0	100.1
=	15.6	0.0	0.0	100.1
=	16.0	0.0	0.0	100.1
=	16.4	0.0	0.0	100.1
=	16.8	0.0	0.0	100.1
=	17.2	0.0	0.0	100.1
=	17.7	0.0	0.0	100.1
=	18.2	0.0	0.0	100.2
=	18.6	0.0	0.0	100.2
=	19.0	0.0	0.0	100.2
=	19.4	0.0	0.0	100.2
=	19.8	0.0	0.0	100.2
=	20.2	0.0	0.0	100.2
=	20.6	0.0	0.0	100.2
=	21.0	0.0	0.0	100.2
=	21.5	0.0	0.0	100.2
=	21.9	0.0	0.0	100.2
=	22.3	0.0	0.0	100.2
=	22.8	0.0	0.0	100.2
=	23.3	0.0	0.0	100.2
=	23.8	0.0	0.0	100.2
=	24.4	0.0	0.0	100.3
=	25.0	0.0	0.0	100.3
=	25.5	0.0	0.0	100.3
=	26.0	0.0	0.0	100.3
=	26.6	0.0	0.0	100.3
=	27.1	0.0	0.0	100.3
=	27.7	0.0	0.0	100.3
=	28.2	0.0	0.0	100.3
=	28.9	0.0	0.0	100.3
=	29.5	0.0	0.0	100.3
=	30.0	0.0	0.0	100.3
=	30.7	0.0	0.0	100.3
=	31.3	0.0	0.0	100.3
=	31.9	0.0	0.0	100.3
=	32.5	0.0	0.0	100.4
=	33.1	0.0	0.0	100.4
=	33.7	0.0	0.0	100.4
=	34.1	0.0	0.0	100.4
=	34.5	0.0	0.0	100.4
=	35.0	0.0	0.0	100.4
=	35.6	0.0	0.0	100.4
=	36.3	0.0	0.0	100.5
=	37.0	0.0	0.0	100.5
=	37.6	0.0	0.0	100.5
=	38.2	0.0	0.0	100.5
=	38.8	0.0	0.0	100.5
=	39.4	0.0	0.0	100.5
=	39.9	0.0	0.0	100.6
=	40.4	0.0	0.0	100.6
=	41.0	0.0	0.0	100.6
=	41.6	0.0	0.0	100.6
=	42.2	0.0	0.0	100.6
=	42.7	0.0	0.0	100.7
=	43.2	0.0	0.0	100.7
=	43.8	0.0	0.0	100.7
=	44.3	0.0	0.0	100.7
=	44.8	0.0	0.0	100.7
=	45.5	0.0	0.0	100.7
=	46.0	0.0	0.0	100.8
=	46.7	0.0	0.0	100.8
=	47.5	0.0	0.0	100.8
=	48.3	0.0	0.0	100.9
=	49.0	0.0	0.0	100.9
=	50.3	0.0	0.0	100.9
=	51.2	0.0	0.0	101.0
=	51.7	0.0	0.0	101.0
=	52.7	0.0	0.0	101.0
=	53.6	0.0	0.0	101.0
=	54.3	0.0	0.0	101.1
=	55.2	0.0	0.0	101.1
=	55.8	0.0	0.0	101.2
=	56.4	0.0	0.0	101.2
=	57.0	0.0	0.0	101.2
=	57.6	0.0	0.0	101.3
=	58.2	0.0	0.0	101.3
=	58.9	0.0	0.0	101.3
=	59.7	0.0	0.0	101.3
=	60.6	0.0	0.0	101.4
=	61.3	0.0	0.0	101.4
=	62.1	0.0	0.0	101.4
=	62.6	0.0	0.0	101.5
=	63.3	0.0	0.0	101.5
=	63.9	0.0	0.0	101.5
=	64.5	0.0	0.0	101.6
=	65.1	0.0	0.0	101.6
=	65.7	0.0	0.0	101.6
=	66.3	0.0	0.0	101.7
=	66.9	0.0	0.0	101.7
=	67.5	0.0	0.0	101.7
=	68.1	0.0	0.0	101.8
=	68.7	0.0	0.0	101.8
=	69.4	0.0	0.0	101.8
=	69.9	0.0	0.0	101.9
=	70.6	0.0	0.0	101.9
=	71.2	0.0	0.0	102.0
=	71.8	0.0	0.0	102.0
=	72.4	0.0	0.0	102.0
=	73.0	0.0	0.0	102.1
=	73.6	0.0	0.0	102.1
=	74.2	0.0	0.0	102.1
=	74.8	0.0	0.0	102.1
=	75.4	0.0	0.0	102.2
=	76.0	0.0	0.0	102.2
=	76.7	0.0	0.0	102.2
=	77.3	0.0	0.0	102.2
=	77.8	0.0	0.0	102.2
=	78.4	0.0	0.0	102.3
=	79.0	0.0	0.0	102.3
=	79.5	0.0	0.0	102.3
=	80.0	0.0	0.0	102.3
=	80.5	0.0	0.0	102.3
=	81.1	0.0	0.0	102.3
=	81.6	0.0	0.0	102.4
=	82.1	0.0	0.0	102.4
=	82.5	0.0	0.0	102.4
=	83.1	0.0	0.0	102.4
=	83.7	0.0	0.0	102.5
=	84.2	0.0	0.0	102.5
=	84.7	0.0	0.0	102.5
=	85.1	0.0	0.0	102.5
=	85.6	0.0	0.0	102.5
=	86.0	0.0	0.0	102.5
=	86.5	0.0	0.0	102.5
=	86.9	0.0	0.0	102.5
=	87.4	0.0	0.0	102.5
=	87.9	0.0	0.0	102.5
=	88.3	0.0	0.0	102.5
=	88.7	0.0	0.0	102.5
=	89.1	0.0	0.0	102.6
=	89.5	0.0	0.0	102.6
=	89.9	0.0	0.0	102.6
=	90.3	0.0	0.0	102.6
=	90.7	0.0	0.0	102.6
=	91.1	0.0	0.0	102.6
=	91.5	0.0	0.0	102.7
=	91.9	0.0	0.0	102.7
=	92.4	0.0	0.0	102.7
=	92.9	0.0	0.0	102.7
=	93.5	0.0	0.0	102.7
=	94.0	0.0	0.0	102.7
=	94.5	0.0	0.0	102.7
=	95.1	0.0	0.0	102.7
=	95.6	0.0	0.0	102.7
=	96.2	0.0	0.0	102.7
=	96.7	0.0	0.0	102.7
=	97.3	0.0	0.0	102.7
=	97.8	0.0	0.0	102.6
=	98.4	0.0	0.0	102.6
=	99.0	0.0	0.0	102.6
=	99.6	0.0	0.0	102.6
=	100.2	0.0	0.0	102.6
=	100.8	0.0	0.0	102.6
=	101.4	0.0	0.0	102.6
=	102.0	0.0	0.0	102.5
=	102.6	0.0	0.0	102.5
=	103.2	0.0	0.0	102.5
=	103.6	0.0	0.0	102.5
=	104.2	0.0	0.0	102.4
=	104.8	0.0	0.0	102.4
=	105.2	0.0	0.0	102.4
=	105.6	0.0	0.0	102.4
=	106.0	0.0	0.0	102.4
=	106.6	0.0	0.0	102.3
=	107.2	0.0	0.0	102.3
=	107.9	0.0	0.0	102.3
=	108.5	0.0	0.0	102.3
=	109.1	0.0	0.0	102.2
=	109.7	0.0	0.0	102.2
=	110.3	0.0	0.0	102.1
=	110.9	0.0	0.0	102.1
=	111.5	0.0	0.0	102.1
=	112.1	0.0	0.0	102.0
=	112.7	0.0	0.0	101.9
=	113.3	0.0	0.0	101.9
=	113.9	0.0	0.0	101.8
=	114.5	0.0	0.0	101.8
=	115.2	0.0	0.0	101.7
=	115.7	0.0	0.0	101.6
=	116.4	0.0	0.0	101.6
=	117.0	0.0	0.0	101.5
=	117.6	0.0	0.0	101.4
=	118.2	0.0	0.0	101.3
=	118.8	0.0	0.0	101.2
=	119.4	0.0	0.0	101.2
=	120.0	0.0	0.0	101.1
=	120.8	0.0	0.0	101.0
=	121.4	0.0	0.0	100.9
=	122.0	0.0	0.0	100.8
=	122.6	0.0	0.0	100.7
=	123.3	0.0	0.0	100.6
=	124.0	0.0	0.0	100.5
=	124.6	0.0	0.0	100.4
=	125.3	0.0	0.0	100.2
=	125.9	0.0	0.0	100.1
=	126.8	0.0	0.0	100.0
=	127.5	0.0	0.0	99.8
=	128.2	0.0	0.0	99.7
=	128.9	0.0	0.0	99.6
=	129.8	0.0	0.0	99.4
=	130.9	0.0	0.0	99.1
=	131.7	0.0	0.0	98.9
=	132.8	0.0	0.0	98.7
=	133.4	0.0	0.0	98.6
=	134.0	0.0	0.0	98.4
=	134.7	0.0	0.0	98.2
=	135.2	0.0	0.0	98.1
=	135.7	0.0	0.0	97.9
=	136.2	0.0	0.0	97.8
=	136.9	0.0	0.0	97.6
=	137.5	0.0	0.0	97.5
=	138.2	0.0	0.0	97.2
=	138.9	0.0	0.0	97.0
=	139.5	0.0	0.0	96.8
=	140.1	0.0	0.0	96.7
=	140.7	0.0	0.0	96.5
=	141.2	0.0	0.0	96.3
=	141.8	0.0	0.0	96.1
=	142.5	0.0	0.0	95.8
=	143.1	0.0	0.0	95.6
=	143.5	0.0	0.0	95.5
=	143.9	0.0	0.0	95.4
=	144.4	0.0	0.0	95.2
=	145.1	0.0	0.0	94.9
=	145.7	0.0	0.0	94.7
=	146.3	0.0	0.0	94.5
=	146.8	0.0	0.0	94.3
=	147.3	0.0	0.0	94.2
=	147.8	0.0	0.0	94.0
=	148.2	0.0	0.0	93.8
=	148.8	0.0	0.0	93.5
=	149.3	0.0	0.0	93.3
=	149.8	0.0	0.0	93.1
=	150.4	0.0	0.0	92.9
=	151.0	0.0	0.0	92.7
=	151.6	0.0	0.0	92.4
=	152.2	0.0	0.0	92.1
=	152.8	0.0	0.0	91.8
=	153.4	0.0	0.0	91.6
=	154.0	0.0	0.0	91.3
=	154.6	0.0	0.0	91.0
=	155.3	0.0	0.0	90.7
=	155.9	0.0	0.0	90.4
=	156.5	0.0	0.0	90.2
=	157.1	0.0	0.0	89.8
=	158.1	0.0	0.0	89.3
=	158.7	0.0	0.0	89.0
=	159.2	0.0	0.0	88.7
=	159.8	0.0	0.0	88.4
=	160.5	0.0	0.0	88.1
=	161.2	0.0	0.0	87.7
=	162.1	0.0	0.0	87.2
=	163.0	0.0	0.0	86.7
=	163.7	0.0	0.0	86.3
=	164.3	0.0	0.0	85.9
=	164.9	0.0	0.0	85.5
=	165.5	0.0	0.0	85.2
=	166.1	0.0	0.0	84.9
=	166.7	0.0	0.0	84.5
=	167.4	0.0	0.0	84.1
=	168.0	0.0	0.0	83.6
=	168.6	0.0	0.0	83.3
=	169.2	0.0	0.0	83.0
=	169.8	0.0	0.0	82.6
=	170.4	0.0	0.0	82.1
=	171.0	0.0	0.0	81.7
=	171.6	0.0	0.0	81.3
=	172.2	0.0	0.0	80.9
=	172.8	0.0	0.0	80.5
=	173.4	0.0	0.0	80.0
=	174.0	0.0	0.0	79.6
=	174.6	0.0	0.0	79.1
=	175.2	0.0	0.0	78.7
=	175.8	0.0	0.0	78.3
=	176.4	0.0	0.0	77.8
=	177.0	0.0	0.0	77.4
=	177.6	0.0	0.0	76.9
=	178.2	0.0	0.0	76.3
=	178.8	0.0	0.0	75.8
=	179.4	0.0	0.0	75.3
=	180.0	0.0	0.0	74.8
=	180.6	0.0	0.0	74.2
=	181.2	0.0	0.0	73.8
=	181.8	0.0	0.0	73.3
=	182.4	0.0	0.0	72.7
=	183.0	0.0	0.0	72.1
=	183.6	0.0	0.0	71.5
=	184.3	0.0	0.0	70.9
=	184.9	0.0	0.0	70.4
=	185.5	0.0	0.0	69.7
=	186.1	0.0	0.0	69.1
=	187.2	0.0	0.0	67.8
=	188.5	0.0	0.0	66.5
=	189.7	0.0	0.0	65.0
=	190.9	0.0	0.0	63.5
=	192.1	0.0	0.0	62.0
=	193.2	0.0	0.0	60.4
=	194.0	0.0	0.0	59.3
=	194.9	0.0	0.0	57.9
=	196.1	0.0	0.0	56.1
=	197.3	0.0	0.0	54.3
=	198.0	0.0	0.0	53.1
=	198.7	0.0	0.0	52.0
=	199.2	0.0	0.0	51.1
=	199.9	0.0	0.0	49.9
=	200.5	0.0	0.0	48.9
=	201.0	0.0	0.0	47.9
=	201.6	0.0	0.0	46.8
=	202.1	0.0	0.0	45.8
=	202.8	0.0	0.0	44.7
=	203.4	0.0	0.0	43.5
=	204.0	0.0	0.0	42.4
=	204.6	0.0	0.0	41.3
=	205.2	0.0	0.0	40.1
=	205.9	0.0	0.0	38.9
=	206.6	0.0	0.0	37.5
=	207.2	0.0	0.0	36.3
=	207.7	0.0	0.0	35.3
=	208.3	0.0	0.0	34.3
=	208.9	0.0	0.0	33.0
=	209.7	0.0	0.0	31.6
=	210.4	0.0	0.0	30.4
=	211.2	0.0	0.0	28.9
=	212.0	0.0	0.0	27.4
=	212.5	0.0	0.0	26.6
=	213.1	0.0	0.0	25.6
=	213.7	0.0	0.0	24.6
=	214.3	0.0	0.0	23.6
=	214.9	0.0	0.0	22.6
=	215.5	0.0	0.0	21.7
=	216.1	0.0	0.0	20.8
=	216.7	0.0	0.0	20.0
=	217.5	0.0	0.0	18.8
=	218.7	0.0	0.0	17.2
=	219.5	0.0	0.0	16.2
=	220.1	0.0	0.0	15.5
=	221.1	0.0	0.0	14.3
=	221.9	0.0	0.0	13.5
=	222.7	0.0	0.0	12.6
=	223.5	0.0	0.0	12.0
=	224.1	0.0	0.0	11.4
=	224.8	0.0	0.0	10.8
=	225.4	0.0	0.0	10.4
=	226.0	0.0	0.0	9.9
=	226.6	0.0	0.0	9.5
=	227.6	0.0	0.0	8.8
=	228.8	0.0	0.0	8.1
=	230.0	0.0	0.0	7.5
=	230.8	0.0	0.0	7.1
=	232.0	0.0	0.0	6.6
=	232.7	0.0	0.0	6.3
=	233.3	0.0	0.0	6.1
=	233.7	0.0	0.0	6.0
=	234.3	0.0	0.0	5.8
=	234.9	0.0	0.0	5.6
=	235.4	0.0	0.0	5.4
=	236.3	0.0	0.0	5.2
:EOM # End of Measurement

:EOF # End of File