:MSR 	1	 # No. of measurement in file
:SYS BDS 0   # Beam Data Scanner System
#
# RFA300 ASCII Measurement Dump ( BDS format )
#
# Measurement number 	1
#
%VNR 1.0
%MOD 	RAT
%TYP 	SCN
%SCN 	DPT
%FLD 	ION
%DAT 	10-05-2011
%TIM 	12:00:00
%FSZ 	250	250
%BMT 	ELE	   12.0
%SSD 	1000
%BUP 	0
%BRD 	1000
%FSH 	1
%ASC 	0
%WEG 	0
%GPO 	0
%CPO 	0
%MEA 	1
%PRD 	0,0
%PTS 	881
%STS 	    0.0	  0.0	   0.0 # Start Scan values in mm ( X , Y , Z )
%EDS 	    0.0	   0.0	   168.5 # End Scan values in mm ( X , Y , Z )
#
#	  X      Y      Z     Dose
#
=	0.0	0.0	0.0	87.5
=	0.0	0.0	0.1	87.5
=	0.0	0.0	0.3	87.6
=	0.0	0.0	0.5	87.8
=	0.0	0.0	0.6	87.8
=	0.0	0.0	0.9	88.0
=	0.0	0.0	1.2	88.2
=	0.0	0.0	1.4	88.3
=	0.0	0.0	1.5	88.5
=	0.0	0.0	1.7	88.7
=	0.0	0.0	1.8	88.8
=	0.0	0.0	2.1	89.1
=	0.0	0.0	2.4	89.4
=	0.0	0.0	2.5	89.5
=	0.0	0.0	2.7	89.7
=	0.0	0.0	3.0	89.8
=	0.0	0.0	3.3	90.2
=	0.0	0.0	3.6	90.3
=	0.0	0.0	3.8	90.5
=	0.0	0.0	4.0	90.7
=	0.0	0.0	4.2	90.9
=	0.0	0.0	4.5	91.0
=	0.0	0.0	4.8	91.3
=	0.0	0.0	5.0	91.5
=	0.0	0.0	5.1	91.5
=	0.0	0.0	5.4	91.8
=	0.0	0.0	5.7	91.9
=	0.0	0.0	5.9	92.0
=	0.0	0.0	6.1	92.1
=	0.0	0.0	6.3	92.2
=	0.0	0.0	6.6	92.4
=	0.0	0.0	6.7	92.4
=	0.0	0.0	6.9	92.5
=	0.0	0.0	7.1	92.6
=	0.0	0.0	7.3	92.7
=	0.0	0.0	7.4	92.8
=	0.0	0.0	7.6	92.9
=	0.0	0.0	7.8	93.0
=	0.0	0.0	8.1	93.2
=	0.0	0.0	8.2	93.2
=	0.0	0.0	8.4	93.3
=	0.0	0.0	8.7	93.4
=	0.0	0.0	8.8	93.5
=	0.0	0.0	9.0	93.6
=	0.0	0.0	9.1	93.6
=	0.0	0.0	9.4	93.8
=	0.0	0.0	9.7	93.9
=	0.0	0.0	9.9	94.0
=	0.0	0.0	10.0	94.0
=	0.0	0.0	10.3	94.2
=	0.0	0.0	10.6	94.2
=	0.0	0.0	10.8	94.3
=	0.0	0.0	10.9	94.4
=	0.0	0.0	11.2	94.5
=	0.0	0.0	11.5	94.6
=	0.0	0.0	11.8	94.7
=	0.0	0.0	11.9	94.8
=	0.0	0.0	12.1	94.9
=	0.0	0.0	12.4	95.0
=	0.0	0.0	12.7	95.1
=	0.0	0.0	13.0	95.3
=	0.0	0.0	13.2	95.3
=	0.0	0.0	13.3	95.4
=	0.0	0.0	13.6	95.5
=	0.0	0.0	13.7	95.5
=	0.0	0.0	14.0	95.7
=	0.0	0.0	14.3	95.8
=	0.0	0.0	14.4	95.8
=	0.0	0.0	14.6	95.9
=	0.0	0.0	14.8	96.0
=	0.0	0.0	15.1	96.1
=	0.0	0.0	15.5	96.3
=	0.0	0.0	15.6	96.3
=	0.0	0.0	15.8	96.4
=	0.0	0.0	16.0	96.5
=	0.0	0.0	16.1	96.5
=	0.0	0.0	16.4	96.6
=	0.0	0.0	16.7	96.7
=	0.0	0.0	17.0	96.9
=	0.0	0.0	17.1	96.9
=	0.0	0.0	17.3	97.0
=	0.0	0.0	17.5	97.1
=	0.0	0.0	17.9	97.2
=	0.0	0.0	18.2	97.3
=	0.0	0.0	18.4	97.4
=	0.0	0.0	18.5	97.4
=	0.0	0.0	18.8	97.6
=	0.0	0.0	19.1	97.8
=	0.0	0.0	19.2	97.8
=	0.0	0.0	19.4	97.9
=	0.0	0.0	19.6	98.0
=	0.0	0.0	19.7	98.0
=	0.0	0.0	20.0	98.1
=	0.0	0.0	20.4	98.2
=	0.0	0.0	20.6	98.3
=	0.0	0.0	20.9	98.4
=	0.0	0.0	21.2	98.5
=	0.0	0.0	21.6	98.7
=	0.0	0.0	21.7	98.7
=	0.0	0.0	21.9	98.8
=	0.0	0.0	22.1	98.8
=	0.0	0.0	22.5	98.9
=	0.0	0.0	22.8	99.1
=	0.0	0.0	22.9	99.1
=	0.0	0.0	23.1	99.1
=	0.0	0.0	23.3	99.2
=	0.0	0.0	23.7	99.3
=	0.0	0.0	24.0	99.4
=	0.0	0.0	24.1	99.5
=	0.0	0.0	24.3	99.5
=	0.0	0.0	24.6	99.6
=	0.0	0.0	24.9	99.6
=	0.0	0.0	25.2	99.7
=	0.0	0.0	25.3	99.7
=	0.0	0.0	25.5	99.7
=	0.0	0.0	25.8	99.8
=	0.0	0.0	26.1	99.8
=	0.0	0.0	26.3	99.8
=	0.0	0.0	26.4	99.8
=	0.0	0.0	26.6	99.9
=	0.0	0.0	26.7	99.9
=	0.0	0.0	27.0	99.9
=	0.0	0.0	27.3	99.9
=	0.0	0.0	27.7	100.0
=	0.0	0.0	27.8	100.0
=	0.0	0.0	28.0	100.0
=	0.0	0.0	28.2	100.0
=	0.0	0.0	28.5	100.0
=	0.0	0.0	28.7	100.0
=	0.0	0.0	28.9	100.0
=	0.0	0.0	29.0	99.9
=	0.0	0.0	29.2	99.9
=	0.0	0.0	29.4	99.9
=	0.0	0.0	29.8	99.8
=	0.0	0.0	29.9	99.8
=	0.0	0.0	30.1	99.7
=	0.0	0.0	30.2	99.7
=	0.0	0.0	30.3	99.7
=	0.0	0.0	30.5	99.6
=	0.0	0.0	30.7	99.6
=	0.0	0.0	30.8	99.5
=	0.0	0.0	31.0	99.4
=	0.0	0.0	31.1	99.4
=	0.0	0.0	31.3	99.3
=	0.0	0.0	31.4	99.2
=	0.0	0.0	31.6	99.1
=	0.0	0.0	31.7	99.0
=	0.0	0.0	31.9	99.0
=	0.0	0.0	32.1	98.9
=	0.0	0.0	32.2	98.8
=	0.0	0.0	32.3	98.8
=	0.0	0.0	32.5	98.7
=	0.0	0.0	32.6	98.6
=	0.0	0.0	32.8	98.4
=	0.0	0.0	32.9	98.3
=	0.0	0.0	33.1	98.2
=	0.0	0.0	33.2	98.1
=	0.0	0.0	33.4	98.0
=	0.0	0.0	33.5	97.9
=	0.0	0.0	33.7	97.7
=	0.0	0.0	33.8	97.5
=	0.0	0.0	34.0	97.4
=	0.0	0.0	34.1	97.2
=	0.0	0.0	34.3	97.0
=	0.0	0.0	34.5	96.9
=	0.0	0.0	34.6	96.8
=	0.0	0.0	34.8	96.6
=	0.0	0.0	34.9	96.4
=	0.0	0.0	35.0	96.3
=	0.0	0.0	35.2	96.2
=	0.0	0.0	35.4	96.0
=	0.0	0.0	35.6	95.7
=	0.0	0.0	35.7	95.5
=	0.0	0.0	35.9	95.2
=	0.0	0.0	36.0	95.1
=	0.0	0.0	36.2	94.8
=	0.0	0.0	36.3	94.7
=	0.0	0.0	36.4	94.4
=	0.0	0.0	36.6	94.2
=	0.0	0.0	36.8	93.9
=	0.0	0.0	36.9	93.7
=	0.0	0.0	37.1	93.4
=	0.0	0.0	37.2	93.2
=	0.0	0.0	37.4	92.8
=	0.0	0.0	37.5	92.6
=	0.0	0.0	37.6	92.4
=	0.0	0.0	37.8	92.0
=	0.0	0.0	38.0	91.7
=	0.0	0.0	38.1	91.4
=	0.0	0.0	38.3	91.1
=	0.0	0.0	38.4	90.8
=	0.0	0.0	38.6	90.4
=	0.0	0.0	38.7	90.2
=	0.0	0.0	38.9	89.8
=	0.0	0.0	39.2	89.1
=	0.0	0.0	39.3	88.9
=	0.0	0.0	39.5	88.3
=	0.0	0.0	39.6	88.1
=	0.0	0.0	39.8	87.7
=	0.0	0.0	39.9	87.4
=	0.0	0.0	40.1	87.0
=	0.0	0.0	40.2	86.6
=	0.0	0.0	40.4	86.1
=	0.0	0.0	40.7	85.4
=	0.0	0.0	40.8	85.0
=	0.0	0.0	41.0	84.6
=	0.0	0.0	41.1	84.3
=	0.0	0.0	41.3	83.7
=	0.0	0.0	41.4	83.4
=	0.0	0.0	41.6	82.7
=	0.0	0.0	41.7	82.4
=	0.0	0.0	41.9	81.8
=	0.0	0.0	42.1	81.4
=	0.0	0.0	42.2	81.0
=	0.0	0.0	42.4	80.5
=	0.0	0.0	42.5	79.9
=	0.0	0.0	42.6	79.5
=	0.0	0.0	42.8	78.9
=	0.0	0.0	42.9	78.5
=	0.0	0.0	43.1	78.0
=	0.0	0.0	43.2	77.5
=	0.0	0.0	43.4	76.9
=	0.0	0.0	43.5	76.5
=	0.0	0.0	43.7	75.9
=	0.0	0.0	43.9	75.3
=	0.0	0.0	44.1	74.5
=	0.0	0.0	44.4	73.5
=	0.0	0.0	44.5	73.1
=	0.0	0.0	44.6	72.6
=	0.0	0.0	44.8	72.0
=	0.0	0.0	44.9	71.5
=	0.0	0.0	45.1	70.8
=	0.0	0.0	45.2	70.2
=	0.0	0.0	45.4	69.6
=	0.0	0.0	45.6	68.6
=	0.0	0.0	45.8	67.7
=	0.0	0.0	46.0	67.1
=	0.0	0.0	46.2	66.3
=	0.0	0.0	46.3	66.0
=	0.0	0.0	46.5	65.1
=	0.0	0.0	46.8	64.1
=	0.0	0.0	47.0	63.4
=	0.0	0.0	47.1	62.9
=	0.0	0.0	47.4	61.5
=	0.0	0.0	47.7	60.2
=	0.0	0.0	47.8	59.7
=	0.0	0.0	48.0	58.8
=	0.0	0.0	48.1	58.3
=	0.0	0.0	48.3	57.7
=	0.0	0.0	48.4	56.9
=	0.0	0.0	48.6	56.0
=	0.0	0.0	48.7	55.5
=	0.0	0.0	48.9	54.8
=	0.0	0.0	49.0	54.3
=	0.0	0.0	49.2	53.5
=	0.0	0.0	49.3	53.0
=	0.0	0.0	49.5	52.1
=	0.0	0.0	49.6	51.5
=	0.0	0.0	49.8	50.6
=	0.0	0.0	49.9	50.0
=	0.0	0.0	50.1	49.2
=	0.0	0.0	50.2	48.6
=	0.0	0.0	50.4	47.7
=	0.0	0.0	50.6	46.8
=	0.0	0.0	50.8	46.0
=	0.0	0.0	51.0	45.2
=	0.0	0.0	51.2	44.5
=	0.0	0.0	51.4	43.5
=	0.0	0.0	51.7	41.9
=	0.0	0.0	52.0	40.6
=	0.0	0.0	52.2	39.7
=	0.0	0.0	52.3	39.1
=	0.0	0.0	52.6	37.8
=	0.0	0.0	52.9	36.6
=	0.0	0.0	53.1	36.0
=	0.0	0.0	53.2	35.2
=	0.0	0.0	53.5	34.2
=	0.0	0.0	53.8	32.7
=	0.0	0.0	54.1	31.4
=	0.0	0.0	54.3	30.8
=	0.0	0.0	54.4	30.1
=	0.0	0.0	54.7	29.1
=	0.0	0.0	55.0	27.7
=	0.0	0.0	55.3	26.4
=	0.0	0.0	55.7	25.1
=	0.0	0.0	55.8	24.6
=	0.0	0.0	56.0	24.0
=	0.0	0.0	56.3	22.7
=	0.0	0.0	56.6	21.6
=	0.0	0.0	56.7	21.2
=	0.0	0.0	56.9	20.5
=	0.0	0.0	57.1	19.9
=	0.0	0.0	57.2	19.3
=	0.0	0.0	57.5	18.2
=	0.0	0.0	57.8	17.2
=	0.0	0.0	57.9	16.9
=	0.0	0.0	58.1	16.3
=	0.0	0.0	58.3	15.6
=	0.0	0.0	58.4	15.2
=	0.0	0.0	58.7	14.6
=	0.0	0.0	59.0	13.8
=	0.0	0.0	59.1	13.5
=	0.0	0.0	59.3	13.0
=	0.0	0.0	59.5	12.3
=	0.0	0.0	59.6	12.1
=	0.0	0.0	59.9	11.3
=	0.0	0.0	60.2	10.6
=	0.0	0.0	60.6	10.0
=	0.0	0.0	60.8	9.5
=	0.0	0.0	60.9	9.2
=	0.0	0.0	61.1	8.8
=	0.0	0.0	61.5	8.1
=	0.0	0.0	61.6	7.9
=	0.0	0.0	61.8	7.6
=	0.0	0.0	61.9	7.3
=	0.0	0.0	62.1	7.0
=	0.0	0.0	62.3	6.7
=	0.0	0.0	62.5	6.4
=	0.0	0.0	62.7	6.2
=	0.0	0.0	63.0	5.7
=	0.0	0.0	63.2	5.4
=	0.0	0.0	63.4	5.2
=	0.0	0.0	63.6	5.0
=	0.0	0.0	63.9	4.7
=	0.0	0.0	64.1	4.5
=	0.0	0.0	64.2	4.4
=	0.0	0.0	64.5	4.2
=	0.0	0.0	64.6	4.1
=	0.0	0.0	64.8	3.9
=	0.0	0.0	64.9	3.9
=	0.0	0.0	65.1	3.8
=	0.0	0.0	65.3	3.7
=	0.0	0.0	65.4	3.6
=	0.0	0.0	65.5	3.5
=	0.0	0.0	65.7	3.4
=	0.0	0.0	65.9	3.4
=	0.0	0.0	66.0	3.2
=	0.0	0.0	66.2	3.1
=	0.0	0.0	66.3	3.1
=	0.0	0.0	66.5	3.0
=	0.0	0.0	66.6	3.0
=	0.0	0.0	66.8	2.9
=	0.0	0.0	67.0	2.9
=	0.0	0.0	67.1	2.8
=	0.0	0.0	67.2	2.8
=	0.0	0.0	67.4	2.7
=	0.0	0.0	67.5	2.7
=	0.0	0.0	67.7	2.7
=	0.0	0.0	67.8	2.6
=	0.0	0.0	68.0	2.6
=	0.0	0.0	68.1	2.6
=	0.0	0.0	68.3	2.5
=	0.0	0.0	68.4	2.5
=	0.0	0.0	68.6	2.5
=	0.0	0.0	68.8	2.5
=	0.0	0.0	68.9	2.5
=	0.0	0.0	69.1	2.4
=	0.0	0.0	69.2	2.4
=	0.0	0.0	69.4	2.4
=	0.0	0.0	69.5	2.4
=	0.0	0.0	69.6	2.4
=	0.0	0.0	69.8	2.4
=	0.0	0.0	70.0	2.3
=	0.0	0.0	70.2	2.3
=	0.0	0.0	70.5	2.3
=	0.0	0.0	70.6	2.3
=	0.0	0.0	70.9	2.3
=	0.0	0.0	71.0	2.3
=	0.0	0.0	71.2	2.3
=	0.0	0.0	71.4	2.3
=	0.0	0.0	71.8	2.3
=	0.0	0.0	72.1	2.2
=	0.0	0.0	72.2	2.2
=	0.0	0.0	72.4	2.2
=	0.0	0.0	72.7	2.2
=	0.0	0.0	73.0	2.2
=	0.0	0.0	73.3	2.2
=	0.0	0.0	73.5	2.2
=	0.0	0.0	73.6	2.2
=	0.0	0.0	73.9	2.2
=	0.0	0.0	74.2	2.2
=	0.0	0.0	74.4	2.2
=	0.0	0.0	74.5	2.2
=	0.0	0.0	74.8	2.2
=	0.0	0.0	75.1	2.2
=	0.0	0.0	75.5	2.2
=	0.0	0.0	75.8	2.2
=	0.0	0.0	75.9	2.2
=	0.0	0.0	76.0	2.2
=	0.0	0.0	76.3	2.2
=	0.0	0.0	76.7	2.2
=	0.0	0.0	76.8	2.2
=	0.0	0.0	77.0	2.2
=	0.0	0.0	77.2	2.2
=	0.0	0.0	77.3	2.2
=	0.0	0.0	77.6	2.2
=	0.0	0.0	77.7	2.2
=	0.0	0.0	77.9	2.2
=	0.0	0.0	78.0	2.2
=	0.0	0.0	78.2	2.2
=	0.0	0.0	78.3	2.2
=	0.0	0.0	78.5	2.2
=	0.0	0.0	78.6	2.2
=	0.0	0.0	78.8	2.2
=	0.0	0.0	78.9	2.2
=	0.0	0.0	79.1	2.2
=	0.0	0.0	79.4	2.2
=	0.0	0.0	79.5	2.2
=	0.0	0.0	79.6	2.2
=	0.0	0.0	79.8	2.2
=	0.0	0.0	80.0	2.2
=	0.0	0.0	80.1	2.2
=	0.0	0.0	80.3	2.2
=	0.0	0.0	80.6	2.2
=	0.0	0.0	80.7	2.2
=	0.0	0.0	80.9	2.2
=	0.0	0.0	81.0	2.2
=	0.0	0.0	81.2	2.2
=	0.0	0.0	81.3	2.2
=	0.0	0.0	81.5	2.2
=	0.0	0.0	81.7	2.2
=	0.0	0.0	81.8	2.2
=	0.0	0.0	82.0	2.2
=	0.0	0.0	82.1	2.2
=	0.0	0.0	82.3	2.2
=	0.0	0.0	82.5	2.2
=	0.0	0.0	82.8	2.2
=	0.0	0.0	82.9	2.2
=	0.0	0.0	83.1	2.2
=	0.0	0.0	83.2	2.2
=	0.0	0.0	83.4	2.2
=	0.0	0.0	83.5	2.2
=	0.0	0.0	83.7	2.2
=	0.0	0.0	83.8	2.2
=	0.0	0.0	84.0	2.2
=	0.0	0.0	84.1	2.2
=	0.0	0.0	84.3	2.2
=	0.0	0.0	84.4	2.2
=	0.0	0.0	84.5	2.2
=	0.0	0.0	84.7	2.2
=	0.0	0.0	84.9	2.2
=	0.0	0.0	85.1	2.2
=	0.0	0.0	85.2	2.2
=	0.0	0.0	85.3	2.2
=	0.0	0.0	85.5	2.2
=	0.0	0.0	85.7	2.2
=	0.0	0.0	86.0	2.2
=	0.0	0.0	86.1	2.2
=	0.0	0.0	86.3	2.2
=	0.0	0.0	86.5	2.2
=	0.0	0.0	86.6	2.2
=	0.0	0.0	86.9	2.2
=	0.0	0.0	87.3	2.2
=	0.0	0.0	87.6	2.2
=	0.0	0.0	87.8	2.2
=	0.0	0.0	87.9	2.2
=	0.0	0.0	88.2	2.2
=	0.0	0.0	88.5	2.2
=	0.0	0.0	88.8	2.2
=	0.0	0.0	89.0	2.2
=	0.0	0.0	89.4	2.2
=	0.0	0.0	89.7	2.2
=	0.0	0.0	89.8	2.2
=	0.0	0.0	90.0	2.2
=	0.0	0.0	90.2	2.2
=	0.0	0.0	90.6	2.2
=	0.0	0.0	90.9	2.2
=	0.0	0.0	91.1	2.2
=	0.0	0.0	91.2	2.2
=	0.0	0.0	91.5	2.2
=	0.0	0.0	91.8	2.2
=	0.0	0.0	91.9	2.2
=	0.0	0.0	92.1	2.2
=	0.0	0.0	92.3	2.2
=	0.0	0.0	92.5	2.2
=	0.0	0.0	92.7	2.2
=	0.0	0.0	92.8	2.2
=	0.0	0.0	93.1	2.2
=	0.0	0.0	93.3	2.2
=	0.0	0.0	93.6	2.2
=	0.0	0.0	93.7	2.2
=	0.0	0.0	93.8	2.2
=	0.0	0.0	93.9	2.2
=	0.0	0.0	94.1	2.2
=	0.0	0.0	94.3	2.2
=	0.0	0.0	94.4	2.1
=	0.0	0.0	94.5	2.1
=	0.0	0.0	94.7	2.1
=	0.0	0.0	94.9	2.1
=	0.0	0.0	95.0	2.1
=	0.0	0.0	95.2	2.1
=	0.0	0.0	95.3	2.1
=	0.0	0.0	95.5	2.1
=	0.0	0.0	95.6	2.1
=	0.0	0.0	95.8	2.1
=	0.0	0.0	95.9	2.1
=	0.0	0.0	96.1	2.1
=	0.0	0.0	96.2	2.1
=	0.0	0.0	96.4	2.1
=	0.0	0.0	96.5	2.1
=	0.0	0.0	96.7	2.1
=	0.0	0.0	96.8	2.1
=	0.0	0.0	97.0	2.1
=	0.0	0.0	97.1	2.1
=	0.0	0.0	97.3	2.1
=	0.0	0.0	97.4	2.2
=	0.0	0.0	97.6	2.1
=	0.0	0.0	97.7	2.1
=	0.0	0.0	97.9	2.1
=	0.0	0.0	98.0	2.1
=	0.0	0.0	98.2	2.1
=	0.0	0.0	98.3	2.1
=	0.0	0.0	98.5	2.1
=	0.0	0.0	98.7	2.1
=	0.0	0.0	98.8	2.1
=	0.0	0.0	99.0	2.1
=	0.0	0.0	99.2	2.1
=	0.0	0.0	99.4	2.1
=	0.0	0.0	99.6	2.1
=	0.0	0.0	99.7	2.1
=	0.0	0.0	99.9	2.1
=	0.0	0.0	100.1	2.1
=	0.0	0.0	100.2	2.1
=	0.0	0.0	100.4	2.1
=	0.0	0.0	100.6	2.1
=	0.0	0.0	100.8	2.1
=	0.0	0.0	101.2	2.1
=	0.0	0.0	101.3	2.1
=	0.0	0.0	101.5	2.1
=	0.0	0.0	101.6	2.1
=	0.0	0.0	101.8	2.1
=	0.0	0.0	102.0	2.1
=	0.0	0.0	102.1	2.1
=	0.0	0.0	102.4	2.1
=	0.0	0.0	102.7	2.1
=	0.0	0.0	102.9	2.1
=	0.0	0.0	103.0	2.1
=	0.0	0.0	103.3	2.1
=	0.0	0.0	103.4	2.1
=	0.0	0.0	103.6	2.1
=	0.0	0.0	103.9	2.1
=	0.0	0.0	104.1	2.1
=	0.0	0.0	104.2	2.1
=	0.0	0.0	104.6	2.1
=	0.0	0.0	104.8	2.1
=	0.0	0.0	105.2	2.0
=	0.0	0.0	105.5	2.0
=	0.0	0.0	105.8	2.0
=	0.0	0.0	106.0	2.0
=	0.0	0.0	106.2	2.0
=	0.0	0.0	106.4	2.0
=	0.0	0.0	106.5	2.0
=	0.0	0.0	106.7	2.0
=	0.0	0.0	107.0	2.0
=	0.0	0.0	107.1	2.0
=	0.0	0.0	107.3	2.0
=	0.0	0.0	107.4	2.0
=	0.0	0.0	107.6	2.0
=	0.0	0.0	107.7	2.0
=	0.0	0.0	107.9	2.0
=	0.0	0.0	108.0	2.0
=	0.0	0.0	108.2	2.0
=	0.0	0.0	108.3	2.0
=	0.0	0.0	108.5	2.0
=	0.0	0.0	108.6	2.0
=	0.0	0.0	108.8	2.0
=	0.0	0.0	109.0	2.0
=	0.0	0.0	109.1	2.0
=	0.0	0.0	109.3	2.0
=	0.0	0.0	109.4	2.0
=	0.0	0.0	109.5	2.0
=	0.0	0.0	109.7	2.0
=	0.0	0.0	109.9	2.0
=	0.0	0.0	110.0	2.0
=	0.0	0.0	110.2	2.0
=	0.0	0.0	110.3	2.0
=	0.0	0.0	110.5	2.0
=	0.0	0.0	110.6	2.0
=	0.0	0.0	110.8	2.0
=	0.0	0.0	110.9	2.0
=	0.0	0.0	111.1	2.0
=	0.0	0.0	111.2	2.0
=	0.0	0.0	111.5	2.0
=	0.0	0.0	111.7	2.0
=	0.0	0.0	111.9	2.0
=	0.0	0.0	112.1	2.0
=	0.0	0.0	112.4	2.0
=	0.0	0.0	112.7	2.0
=	0.0	0.0	112.8	2.0
=	0.0	0.0	113.0	2.0
=	0.0	0.0	113.2	2.0
=	0.0	0.0	113.3	2.0
=	0.0	0.0	113.6	2.0
=	0.0	0.0	113.9	2.0
=	0.0	0.0	114.0	2.0
=	0.0	0.0	114.2	1.9
=	0.0	0.0	114.4	1.9
=	0.0	0.0	114.5	1.9
=	0.0	0.0	114.8	1.9
=	0.0	0.0	115.1	1.9
=	0.0	0.0	115.3	1.9
=	0.0	0.0	115.4	1.9
=	0.0	0.0	115.7	1.9
=	0.0	0.0	115.8	1.9
=	0.0	0.0	116.0	1.9
=	0.0	0.0	116.4	1.9
=	0.0	0.0	116.5	1.9
=	0.0	0.0	116.7	1.9
=	0.0	0.0	116.9	1.9
=	0.0	0.0	117.3	1.9
=	0.0	0.0	117.6	1.9
=	0.0	0.0	117.9	1.9
=	0.0	0.0	118.1	1.9
=	0.0	0.0	118.2	1.9
=	0.0	0.0	118.5	1.9
=	0.0	0.0	118.8	1.9
=	0.0	0.0	118.9	1.9
=	0.0	0.0	119.1	1.9
=	0.0	0.0	119.3	1.9
=	0.0	0.0	119.5	1.9
=	0.0	0.0	119.7	1.9
=	0.0	0.0	120.0	1.9
=	0.0	0.0	120.1	1.9
=	0.0	0.0	120.2	1.9
=	0.0	0.0	120.4	1.9
=	0.0	0.0	120.6	1.9
=	0.0	0.0	120.9	1.9
=	0.0	0.0	121.2	1.9
=	0.0	0.0	121.4	1.9
=	0.0	0.0	121.5	1.9
=	0.0	0.0	121.8	1.9
=	0.0	0.0	122.1	1.9
=	0.0	0.0	122.2	1.9
=	0.0	0.0	122.4	1.9
=	0.0	0.0	122.6	1.9
=	0.0	0.0	122.7	1.9
=	0.0	0.0	123.0	1.9
=	0.0	0.0	123.4	1.9
=	0.0	0.0	123.7	1.9
=	0.0	0.0	123.8	1.9
=	0.0	0.0	123.9	1.9
=	0.0	0.0	124.0	1.9
=	0.0	0.0	124.2	1.9
=	0.0	0.0	124.3	1.9
=	0.0	0.0	124.5	1.9
=	0.0	0.0	124.7	1.9
=	0.0	0.0	124.9	1.9
=	0.0	0.0	125.1	1.9
=	0.0	0.0	125.2	1.9
=	0.0	0.0	125.3	1.9
=	0.0	0.0	125.5	1.9
=	0.0	0.0	125.6	1.9
=	0.0	0.0	125.8	1.9
=	0.0	0.0	126.1	1.9
=	0.0	0.0	126.2	1.9
=	0.0	0.0	126.4	1.8
=	0.0	0.0	126.5	1.8
=	0.0	0.0	126.7	1.8
=	0.0	0.0	126.8	1.8
=	0.0	0.0	127.0	1.8
=	0.0	0.0	127.1	1.8
=	0.0	0.0	127.3	1.8
=	0.0	0.0	127.4	1.8
=	0.0	0.0	127.6	1.8
=	0.0	0.0	127.7	1.8
=	0.0	0.0	127.9	1.8
=	0.0	0.0	128.0	1.8
=	0.0	0.0	128.2	1.8
=	0.0	0.0	128.4	1.8
=	0.0	0.0	128.5	1.8
=	0.0	0.0	128.7	1.8
=	0.0	0.0	128.8	1.8
=	0.0	0.0	129.0	1.8
=	0.0	0.0	129.2	1.8
=	0.0	0.0	129.3	1.8
=	0.0	0.0	129.4	1.8
=	0.0	0.0	129.6	1.8
=	0.0	0.0	129.8	1.8
=	0.0	0.0	129.9	1.8
=	0.0	0.0	130.0	1.8
=	0.0	0.0	130.2	1.8
=	0.0	0.0	130.3	1.8
=	0.0	0.0	130.5	1.8
=	0.0	0.0	130.6	1.8
=	0.0	0.0	130.8	1.8
=	0.0	0.0	131.0	1.8
=	0.0	0.0	131.1	1.8
=	0.0	0.0	131.3	1.8
=	0.0	0.0	131.4	1.8
=	0.0	0.0	131.6	1.8
=	0.0	0.0	131.7	1.8
=	0.0	0.0	131.8	1.8
=	0.0	0.0	132.0	1.8
=	0.0	0.0	132.2	1.8
=	0.0	0.0	132.3	1.8
=	0.0	0.0	132.5	1.8
=	0.0	0.0	132.6	1.8
=	0.0	0.0	132.8	1.8
=	0.0	0.0	132.9	1.8
=	0.0	0.0	133.1	1.8
=	0.0	0.0	133.2	1.8
=	0.0	0.0	133.4	1.8
=	0.0	0.0	133.5	1.8
=	0.0	0.0	133.7	1.8
=	0.0	0.0	133.8	1.8
=	0.0	0.0	134.0	1.8
=	0.0	0.0	134.2	1.8
=	0.0	0.0	134.3	1.8
=	0.0	0.0	134.5	1.8
=	0.0	0.0	134.6	1.8
=	0.0	0.0	134.8	1.8
=	0.0	0.0	134.9	1.8
=	0.0	0.0	135.1	1.8
=	0.0	0.0	135.4	1.8
=	0.0	0.0	135.5	1.8
=	0.0	0.0	135.7	1.8
=	0.0	0.0	136.1	1.8
=	0.0	0.0	136.2	1.7
=	0.0	0.0	136.3	1.7
=	0.0	0.0	136.5	1.7
=	0.0	0.0	136.6	1.7
=	0.0	0.0	136.7	1.7
=	0.0	0.0	137.0	1.7
=	0.0	0.0	137.3	1.7
=	0.0	0.0	137.4	1.7
=	0.0	0.0	137.6	1.7
=	0.0	0.0	137.8	1.7
=	0.0	0.0	138.0	1.7
=	0.0	0.0	138.2	1.7
=	0.0	0.0	138.5	1.7
=	0.0	0.0	138.7	1.7
=	0.0	0.0	138.8	1.7
=	0.0	0.0	139.0	1.7
=	0.0	0.0	139.1	1.7
=	0.0	0.0	139.4	1.7
=	0.0	0.0	139.7	1.7
=	0.0	0.0	139.9	1.7
=	0.0	0.0	140.0	1.7
=	0.0	0.0	140.3	1.7
=	0.0	0.0	140.6	1.7
=	0.0	0.0	140.9	1.7
=	0.0	0.0	141.1	1.7
=	0.0	0.0	141.2	1.7
=	0.0	0.0	141.5	1.7
=	0.0	0.0	141.6	1.7
=	0.0	0.0	141.8	1.7
=	0.0	0.0	142.1	1.7
=	0.0	0.0	142.3	1.7
=	0.0	0.0	142.4	1.7
=	0.0	0.0	142.7	1.7
=	0.0	0.0	142.8	1.7
=	0.0	0.0	143.1	1.7
=	0.0	0.0	143.4	1.7
=	0.0	0.0	143.5	1.7
=	0.0	0.0	143.7	1.7
=	0.0	0.0	143.9	1.7
=	0.0	0.0	144.3	1.7
=	0.0	0.0	144.6	1.7
=	0.0	0.0	144.7	1.7
=	0.0	0.0	144.9	1.7
=	0.0	0.0	145.1	1.6
=	0.0	0.0	145.5	1.6
=	0.0	0.0	145.8	1.6
=	0.0	0.0	145.9	1.6
=	0.0	0.0	146.1	1.6
=	0.0	0.0	146.3	1.6
=	0.0	0.0	146.4	1.6
=	0.0	0.0	146.7	1.6
=	0.0	0.0	147.0	1.6
=	0.0	0.0	147.1	1.6
=	0.0	0.0	147.4	1.6
=	0.0	0.0	147.6	1.6
=	0.0	0.0	147.7	1.6
=	0.0	0.0	147.9	1.6
=	0.0	0.0	148.3	1.6
=	0.0	0.0	148.6	1.6
=	0.0	0.0	148.8	1.6
=	0.0	0.0	148.9	1.6
=	0.0	0.0	149.1	1.6
=	0.0	0.0	149.5	1.6
=	0.0	0.0	149.8	1.6
=	0.0	0.0	150.0	1.6
=	0.0	0.0	150.1	1.6
=	0.0	0.0	150.3	1.6
=	0.0	0.0	150.7	1.6
=	0.0	0.0	151.0	1.6
=	0.0	0.0	151.2	1.6
=	0.0	0.0	151.3	1.6
=	0.0	0.0	151.6	1.6
=	0.0	0.0	151.7	1.6
=	0.0	0.0	151.9	1.6
=	0.0	0.0	152.2	1.6
=	0.0	0.0	152.3	1.6
=	0.0	0.0	152.5	1.6
=	0.0	0.0	152.6	1.6
=	0.0	0.0	152.8	1.6
=	0.0	0.0	152.9	1.6
=	0.0	0.0	153.1	1.6
=	0.0	0.0	153.2	1.6
=	0.0	0.0	153.4	1.6
=	0.0	0.0	153.5	1.6
=	0.0	0.0	153.7	1.6
=	0.0	0.0	153.9	1.6
=	0.0	0.0	154.0	1.6
=	0.0	0.0	154.2	1.6
=	0.0	0.0	154.3	1.6
=	0.0	0.0	154.5	1.6
=	0.0	0.0	154.6	1.6
=	0.0	0.0	154.8	1.6
=	0.0	0.0	155.1	1.6
=	0.0	0.0	155.2	1.6
=	0.0	0.0	155.4	1.6
=	0.0	0.0	155.7	1.6
=	0.0	0.0	155.8	1.6
=	0.0	0.0	156.0	1.6
=	0.0	0.0	156.1	1.6
=	0.0	0.0	156.3	1.6
=	0.0	0.0	156.4	1.6
=	0.0	0.0	156.6	1.6
=	0.0	0.0	156.7	1.6
=	0.0	0.0	156.9	1.6
=	0.0	0.0	157.0	1.6
=	0.0	0.0	157.2	1.6
=	0.0	0.0	157.3	1.6
=	0.0	0.0	157.5	1.6
=	0.0	0.0	157.7	1.6
=	0.0	0.0	157.9	1.6
=	0.0	0.0	158.1	1.6
=	0.0	0.0	158.2	1.6
=	0.0	0.0	158.4	1.6
=	0.0	0.0	158.5	1.6
=	0.0	0.0	158.8	1.6
=	0.0	0.0	159.1	1.6
=	0.0	0.0	159.5	1.6
=	0.0	0.0	159.6	1.6
=	0.0	0.0	159.8	1.6
=	0.0	0.0	160.0	1.6
=	0.0	0.0	160.1	1.6
=	0.0	0.0	160.4	1.6
=	0.0	0.0	160.5	1.6
=	0.0	0.0	160.7	1.6
=	0.0	0.0	160.8	1.6
=	0.0	0.0	160.9	1.6
=	0.0	0.0	161.1	1.5
=	0.0	0.0	161.3	1.5
=	0.0	0.0	161.4	1.5
=	0.0	0.0	161.6	1.5
=	0.0	0.0	161.7	1.5
=	0.0	0.0	161.9	1.5
=	0.0	0.0	162.1	1.5
=	0.0	0.0	162.2	1.5
=	0.0	0.0	162.5	1.5
=	0.0	0.0	162.8	1.5
=	0.0	0.0	162.9	1.5
=	0.0	0.0	163.0	1.5
=	0.0	0.0	163.3	1.5
=	0.0	0.0	163.4	1.5
=	0.0	0.0	163.6	1.5
=	0.0	0.0	163.9	1.5
=	0.0	0.0	164.1	1.5
=	0.0	0.0	164.3	1.5
=	0.0	0.0	164.5	1.5
=	0.0	0.0	164.6	1.5
=	0.0	0.0	164.9	1.5
=	0.0	0.0	165.2	1.5
=	0.0	0.0	165.3	1.5
=	0.0	0.0	165.5	1.5
=	0.0	0.0	165.7	1.5
=	0.0	0.0	165.8	1.5
=	0.0	0.0	166.1	1.5
=	0.0	0.0	166.5	1.5
=	0.0	0.0	166.7	1.5
=	0.0	0.0	166.9	1.5
=	0.0	0.0	167.0	1.5
=	0.0	0.0	167.2	1.5
=	0.0	0.0	167.4	1.5
=	0.0	0.0	167.6	1.5
=	0.0	0.0	167.8	1.5
=	0.0	0.0	167.9	1.5
=	0.0	0.0	168.4	1.5
=	0.0	0.0	168.5	1.5
:EOM # End of Measurement

:EOF # End of File