:MSR 	1	 # No. of measurement in file
:SYS BDS 0   # Beam Data Scanner System
#
# RFA300 ASCII Measurement Dump ( BDS format )
#
# Measurement number 	1
#
%VNR 1.0
%MOD 	RAT
%TYP 	SCN
%SCN 	DPT
%FLD 	ION
%DAT 	02-08-2012
%TIM 	12:00:00
%FSZ 	100	060
%BMT 	ELE	   12.0
%SSD 	1000
%BUP 	0
%BRD 	1000
%FSH 	1
%ASC 	0
%WEG 	0
%GPO 	0
%CPO 	0
%MEA 	1
%PRD 	0,0
%PTS 	767
%STS 	    0.0	  0.0	   0.0 # Start Scan values in mm ( X , Y , Z )
%EDS 	    0.0	   0.0	   168.5 # End Scan values in mm ( X , Y , Z )
#
#	  X      Y      Z     Dose
#
=	0.0	0.0	0.0	86.1
=	0.0	0.0	0.2	86.2
=	0.0	0.0	0.4	86.4
=	0.0	0.0	0.6	86.5
=	0.0	0.0	0.8	86.7
=	0.0	0.0	1.0	86.8
=	0.0	0.0	1.2	87.0
=	0.0	0.0	1.4	87.1
=	0.0	0.0	1.6	87.3
=	0.0	0.0	1.8	87.5
=	0.0	0.0	2.0	87.7
=	0.0	0.0	2.2	87.9
=	0.0	0.0	2.4	88.2
=	0.0	0.0	2.6	88.4
=	0.0	0.0	2.7	88.5
=	0.0	0.0	2.9	88.7
=	0.0	0.0	3.0	88.8
=	0.0	0.0	3.1	89.0
=	0.0	0.0	3.4	89.3
=	0.0	0.0	3.6	89.4
=	0.0	0.0	3.8	89.5
=	0.0	0.0	3.9	89.6
=	0.0	0.0	4.2	89.8
=	0.0	0.0	4.5	90.1
=	0.0	0.0	4.6	90.2
=	0.0	0.0	4.8	90.4
=	0.0	0.0	4.9	90.5
=	0.0	0.0	5.0	90.5
=	0.0	0.0	5.1	90.6
=	0.0	0.0	5.3	90.7
=	0.0	0.0	5.5	90.8
=	0.0	0.0	5.7	90.9
=	0.0	0.0	5.9	91.0
=	0.0	0.0	6.1	91.2
=	0.0	0.0	6.3	91.3
=	0.0	0.0	6.4	91.4
=	0.0	0.0	6.6	91.5
=	0.0	0.0	6.8	91.6
=	0.0	0.0	7.0	91.7
=	0.0	0.0	7.2	91.8
=	0.0	0.0	7.3	91.9
=	0.0	0.0	7.5	92.1
=	0.0	0.0	7.6	92.1
=	0.0	0.0	7.7	92.2
=	0.0	0.0	7.9	92.3
=	0.0	0.0	8.1	92.4
=	0.0	0.0	8.3	92.5
=	0.0	0.0	8.5	92.6
=	0.0	0.0	8.7	92.7
=	0.0	0.0	8.9	92.8
=	0.0	0.0	9.1	92.9
=	0.0	0.0	9.3	93.0
=	0.0	0.0	9.5	93.1
=	0.0	0.0	9.7	93.1
=	0.0	0.0	9.9	93.2
=	0.0	0.0	10.0	93.3
=	0.0	0.0	10.1	93.4
=	0.0	0.0	10.3	93.5
=	0.0	0.0	10.4	93.6
=	0.0	0.0	10.6	93.6
=	0.0	0.0	10.7	93.7
=	0.0	0.0	10.8	93.7
=	0.0	0.0	11.0	93.8
=	0.0	0.0	11.1	93.8
=	0.0	0.0	11.3	93.9
=	0.0	0.0	11.5	94.0
=	0.0	0.0	11.7	94.1
=	0.0	0.0	11.9	94.2
=	0.0	0.0	12.1	94.3
=	0.0	0.0	12.3	94.4
=	0.0	0.0	12.5	94.5
=	0.0	0.0	12.7	94.6
=	0.0	0.0	12.9	94.6
=	0.0	0.0	13.1	94.7
=	0.0	0.0	13.3	94.8
=	0.0	0.0	13.6	94.9
=	0.0	0.0	13.7	95.0
=	0.0	0.0	14.0	95.1
=	0.0	0.0	14.1	95.2
=	0.0	0.0	14.4	95.3
=	0.0	0.0	14.5	95.4
=	0.0	0.0	14.7	95.5
=	0.0	0.0	14.9	95.6
=	0.0	0.0	15.1	95.7
=	0.0	0.0	15.3	95.8
=	0.0	0.0	15.6	95.9
=	0.0	0.0	15.7	96.0
=	0.0	0.0	16.0	96.1
=	0.0	0.0	16.2	96.2
=	0.0	0.0	16.4	96.3
=	0.0	0.0	16.6	96.4
=	0.0	0.0	16.8	96.5
=	0.0	0.0	17.0	96.6
=	0.0	0.0	17.2	96.6
=	0.0	0.0	17.4	96.7
=	0.0	0.0	17.6	96.8
=	0.0	0.0	17.8	96.9
=	0.0	0.0	18.0	97.0
=	0.0	0.0	18.2	97.2
=	0.0	0.0	18.4	97.2
=	0.0	0.0	18.6	97.3
=	0.0	0.0	18.8	97.4
=	0.0	0.0	19.0	97.5
=	0.0	0.0	19.2	97.6
=	0.0	0.0	19.4	97.6
=	0.0	0.0	19.6	97.7
=	0.0	0.0	19.8	97.8
=	0.0	0.0	20.2	98.0
=	0.0	0.0	20.6	98.1
=	0.0	0.0	21.0	98.3
=	0.0	0.0	21.4	98.5
=	0.0	0.0	21.9	98.7
=	0.0	0.0	22.3	98.8
=	0.0	0.0	22.6	98.9
=	0.0	0.0	23.1	99.0
=	0.0	0.0	23.5	99.2
=	0.0	0.0	23.9	99.3
=	0.0	0.0	24.0	99.4
=	0.0	0.0	24.3	99.5
=	0.0	0.0	24.4	99.5
=	0.0	0.0	24.7	99.6
=	0.0	0.0	24.8	99.6
=	0.0	0.0	25.1	99.6
=	0.0	0.0	25.2	99.6
=	0.0	0.0	25.5	99.7
=	0.0	0.0	25.6	99.7
=	0.0	0.0	25.9	99.8
=	0.0	0.0	26.0	99.8
=	0.0	0.0	26.3	99.8
=	0.0	0.0	26.7	99.8
=	0.0	0.0	27.1	99.9
=	0.0	0.0	27.5	100.0
=	0.0	0.0	27.9	100.0
=	0.0	0.0	28.3	100.0
=	0.0	0.0	28.5	100.0
=	0.0	0.0	28.7	100.0
=	0.0	0.0	28.9	99.9
=	0.0	0.0	29.2	99.8
=	0.0	0.0	29.6	99.8
=	0.0	0.0	30.0	99.7
=	0.0	0.0	30.4	99.5
=	0.0	0.0	30.8	99.3
=	0.0	0.0	31.2	99.1
=	0.0	0.0	31.3	99.0
=	0.0	0.0	31.6	98.9
=	0.0	0.0	31.7	98.9
=	0.0	0.0	32.0	98.8
=	0.0	0.0	32.1	98.7
=	0.0	0.0	32.4	98.5
=	0.0	0.0	32.8	98.2
=	0.0	0.0	33.2	97.8
=	0.0	0.0	33.6	97.4
=	0.0	0.0	34.0	97.1
=	0.0	0.0	34.4	96.7
=	0.0	0.0	34.8	96.2
=	0.0	0.0	35.2	95.6
=	0.0	0.0	35.6	95.0
=	0.0	0.0	36.0	94.5
=	0.0	0.0	36.4	93.9
=	0.0	0.0	36.8	93.2
=	0.0	0.0	37.2	92.4
=	0.0	0.0	37.7	91.7
=	0.0	0.0	38.0	91.2
=	0.0	0.0	38.4	90.2
=	0.0	0.0	38.8	89.1
=	0.0	0.0	39.2	88.1
=	0.0	0.0	39.7	87.2
=	0.0	0.0	40.1	86.3
=	0.0	0.0	40.5	85.2
=	0.0	0.0	40.9	84.0
=	0.0	0.0	41.3	82.8
=	0.0	0.0	41.4	82.4
=	0.0	0.0	41.7	81.6
=	0.0	0.0	41.9	81.1
=	0.0	0.0	42.1	80.5
=	0.0	0.0	42.3	79.8
=	0.0	0.0	42.5	79.2
=	0.0	0.0	42.7	78.5
=	0.0	0.0	42.9	77.8
=	0.0	0.0	43.2	77.0
=	0.0	0.0	43.3	76.4
=	0.0	0.0	43.6	75.4
=	0.0	0.0	43.7	75.0
=	0.0	0.0	44.0	74.0
=	0.0	0.0	44.1	73.5
=	0.0	0.0	44.4	72.4
=	0.0	0.0	44.5	71.9
=	0.0	0.0	44.8	70.9
=	0.0	0.0	45.0	70.4
=	0.0	0.0	45.2	69.4
=	0.0	0.0	45.3	69.0
=	0.0	0.0	45.6	68.0
=	0.0	0.0	45.7	67.4
=	0.0	0.0	46.0	66.3
=	0.0	0.0	46.1	65.8
=	0.0	0.0	46.4	64.6
=	0.0	0.0	46.6	64.0
=	0.0	0.0	46.9	62.9
=	0.0	0.0	47.0	62.4
=	0.0	0.0	47.3	61.1
=	0.0	0.0	47.4	60.6
=	0.0	0.0	47.7	59.1
=	0.0	0.0	47.8	58.5
=	0.0	0.0	48.1	57.4
=	0.0	0.0	48.2	56.9
=	0.0	0.0	48.5	55.8
=	0.0	0.0	48.6	55.4
=	0.0	0.0	48.9	54.0
=	0.0	0.0	49.0	53.5
=	0.0	0.0	49.3	52.3
=	0.0	0.0	49.4	51.7
=	0.0	0.0	49.7	50.4
=	0.0	0.0	49.8	49.8
=	0.0	0.0	50.1	48.3
=	0.0	0.0	50.3	47.7
=	0.0	0.0	50.5	46.5
=	0.0	0.0	50.7	45.9
=	0.0	0.0	50.9	44.7
=	0.0	0.0	51.0	44.2
=	0.0	0.0	51.3	42.8
=	0.0	0.0	51.7	41.0
=	0.0	0.0	51.9	40.5
=	0.0	0.0	52.2	39.0
=	0.0	0.0	52.6	37.0
=	0.0	0.0	53.1	35.0
=	0.0	0.0	53.5	33.3
=	0.0	0.0	53.9	31.6
=	0.0	0.0	54.3	29.8
=	0.0	0.0	54.7	28.1
=	0.0	0.0	55.1	26.5
=	0.0	0.0	55.2	26.1
=	0.0	0.0	55.5	24.8
=	0.0	0.0	55.6	24.4
=	0.0	0.0	55.9	23.3
=	0.0	0.0	56.0	22.8
=	0.0	0.0	56.3	21.8
=	0.0	0.0	56.4	21.2
=	0.0	0.0	56.7	20.3
=	0.0	0.0	56.8	19.7
=	0.0	0.0	57.1	18.9
=	0.0	0.0	57.2	18.4
=	0.0	0.0	57.6	17.3
=	0.0	0.0	57.9	16.2
=	0.0	0.0	58.1	15.8
=	0.0	0.0	58.3	15.1
=	0.0	0.0	58.5	14.6
=	0.0	0.0	58.7	13.8
=	0.0	0.0	58.8	13.5
=	0.0	0.0	59.1	12.7
=	0.0	0.0	59.5	11.7
=	0.0	0.0	59.9	10.7
=	0.0	0.0	60.1	10.4
=	0.0	0.0	60.3	9.8
=	0.0	0.0	60.5	9.3
=	0.0	0.0	60.7	9.0
=	0.0	0.0	61.0	8.5
=	0.0	0.0	61.2	8.1
=	0.0	0.0	61.4	7.7
=	0.0	0.0	61.6	7.3
=	0.0	0.0	61.8	7.0
=	0.0	0.0	62.0	6.7
=	0.0	0.0	62.2	6.4
=	0.0	0.0	62.4	6.1
=	0.0	0.0	62.6	5.8
=	0.0	0.0	62.8	5.6
=	0.0	0.0	63.0	5.3
=	0.0	0.0	63.2	5.1
=	0.0	0.0	63.4	4.8
=	0.0	0.0	63.6	4.7
=	0.0	0.0	63.8	4.5
=	0.0	0.0	64.0	4.3
=	0.0	0.0	64.3	4.0
=	0.0	0.0	64.4	4.0
=	0.0	0.0	64.7	3.7
=	0.0	0.0	64.8	3.6
=	0.0	0.0	65.1	3.4
=	0.0	0.0	65.3	3.4
=	0.0	0.0	65.5	3.2
=	0.0	0.0	65.6	3.2
=	0.0	0.0	65.9	3.1
=	0.0	0.0	66.0	3.0
=	0.0	0.0	66.3	2.9
=	0.0	0.0	66.4	2.8
=	0.0	0.0	66.7	2.7
=	0.0	0.0	66.9	2.7
=	0.0	0.0	67.1	2.6
=	0.0	0.0	67.2	2.6
=	0.0	0.0	67.5	2.5
=	0.0	0.0	67.6	2.5
=	0.0	0.0	67.8	2.4
=	0.0	0.0	68.1	2.4
=	0.0	0.0	68.3	2.3
=	0.0	0.0	68.4	2.3
=	0.0	0.0	68.6	2.3
=	0.0	0.0	68.8	2.3
=	0.0	0.0	69.0	2.2
=	0.0	0.0	69.3	2.2
=	0.0	0.0	69.4	2.2
=	0.0	0.0	69.7	2.2
=	0.0	0.0	69.8	2.2
=	0.0	0.0	69.9	2.2
=	0.0	0.0	70.1	2.2
=	0.0	0.0	70.2	2.2
=	0.0	0.0	70.3	2.2
=	0.0	0.0	70.5	2.1
=	0.0	0.0	70.6	2.1
=	0.0	0.0	70.7	2.1
=	0.0	0.0	70.9	2.1
=	0.0	0.0	71.0	2.1
=	0.0	0.0	71.2	2.1
=	0.0	0.0	71.3	2.1
=	0.0	0.0	71.4	2.1
=	0.0	0.0	71.7	2.1
=	0.0	0.0	72.0	2.1
=	0.0	0.0	72.2	2.1
=	0.0	0.0	72.4	2.1
=	0.0	0.0	72.6	2.1
=	0.0	0.0	72.8	2.1
=	0.0	0.0	73.0	2.1
=	0.0	0.0	73.3	2.1
=	0.0	0.0	73.4	2.1
=	0.0	0.0	73.7	2.1
=	0.0	0.0	73.8	2.1
=	0.0	0.0	74.1	2.1
=	0.0	0.0	74.2	2.1
=	0.0	0.0	74.5	2.1
=	0.0	0.0	74.6	2.0
=	0.0	0.0	74.9	2.0
=	0.0	0.0	75.0	2.0
=	0.0	0.0	75.3	2.0
=	0.0	0.0	75.5	2.0
=	0.0	0.0	75.7	2.0
=	0.0	0.0	75.8	2.0
=	0.0	0.0	76.1	2.0
=	0.0	0.0	76.2	2.0
=	0.0	0.0	76.5	2.0
=	0.0	0.0	76.6	2.0
=	0.0	0.0	76.9	2.0
=	0.0	0.0	77.1	2.0
=	0.0	0.0	77.3	2.0
=	0.0	0.0	77.5	2.0
=	0.0	0.0	77.7	2.0
=	0.0	0.0	77.9	2.0
=	0.0	0.0	78.1	2.0
=	0.0	0.0	78.3	2.0
=	0.0	0.0	78.6	2.0
=	0.0	0.0	78.7	2.0
=	0.0	0.0	79.0	2.0
=	0.0	0.0	79.1	2.0
=	0.0	0.0	79.4	2.0
=	0.0	0.0	79.5	2.0
=	0.0	0.0	79.8	2.0
=	0.0	0.0	80.2	2.0
=	0.0	0.0	80.6	2.0
=	0.0	0.0	81.0	2.0
=	0.0	0.0	81.1	2.0
=	0.0	0.0	81.4	2.0
=	0.0	0.0	81.8	2.0
=	0.0	0.0	81.9	2.0
=	0.0	0.0	82.2	2.0
=	0.0	0.0	82.4	2.0
=	0.0	0.0	82.6	2.0
=	0.0	0.0	82.8	2.0
=	0.0	0.0	83.0	2.0
=	0.0	0.0	83.1	2.0
=	0.0	0.0	83.4	2.0
=	0.0	0.0	83.5	2.0
=	0.0	0.0	83.8	2.0
=	0.0	0.0	83.9	2.0
=	0.0	0.0	84.2	2.0
=	0.0	0.0	84.3	2.0
=	0.0	0.0	84.4	2.0
=	0.0	0.0	84.6	2.0
=	0.0	0.0	84.7	2.0
=	0.0	0.0	85.0	2.0
=	0.0	0.0	85.1	2.0
=	0.0	0.0	85.4	2.0
=	0.0	0.0	85.5	2.0
=	0.0	0.0	85.8	2.0
=	0.0	0.0	86.0	2.0
=	0.0	0.0	86.2	2.0
=	0.0	0.0	86.4	2.0
=	0.0	0.0	86.6	2.0
=	0.0	0.0	86.8	2.0
=	0.0	0.0	87.1	2.0
=	0.0	0.0	87.2	2.0
=	0.0	0.0	87.4	2.0
=	0.0	0.0	87.6	2.0
=	0.0	0.0	87.9	1.9
=	0.0	0.0	88.0	1.9
=	0.0	0.0	88.3	1.9
=	0.0	0.0	88.4	1.9
=	0.0	0.0	88.6	1.9
=	0.0	0.0	88.8	1.9
=	0.0	0.0	89.1	1.9
=	0.0	0.0	89.2	1.9
=	0.0	0.0	89.5	1.9
=	0.0	0.0	89.6	1.9
=	0.0	0.0	89.9	1.9
=	0.0	0.0	90.0	1.9
=	0.0	0.0	90.3	1.9
=	0.0	0.0	90.4	1.9
=	0.0	0.0	90.7	1.9
=	0.0	0.0	90.8	1.9
=	0.0	0.0	91.1	1.9
=	0.0	0.0	91.2	1.9
=	0.0	0.0	91.5	1.9
=	0.0	0.0	91.7	1.9
=	0.0	0.0	91.9	1.9
=	0.0	0.0	92.0	1.9
=	0.0	0.0	92.3	1.9
=	0.0	0.0	92.4	1.9
=	0.0	0.0	92.7	1.9
=	0.0	0.0	92.8	1.9
=	0.0	0.0	93.0	1.9
=	0.0	0.0	93.1	1.9
=	0.0	0.0	93.3	1.9
=	0.0	0.0	93.5	1.9
=	0.0	0.0	93.6	1.9
=	0.0	0.0	93.7	1.9
=	0.0	0.0	93.9	1.9
=	0.0	0.0	94.0	1.9
=	0.0	0.0	94.2	1.9
=	0.0	0.0	94.3	1.9
=	0.0	0.0	94.5	1.9
=	0.0	0.0	94.6	1.9
=	0.0	0.0	94.7	1.9
=	0.0	0.0	94.9	1.9
=	0.0	0.0	95.0	1.9
=	0.0	0.0	95.1	1.9
=	0.0	0.0	95.3	1.9
=	0.0	0.0	95.5	1.9
=	0.0	0.0	95.7	1.9
=	0.0	0.0	95.9	1.9
=	0.0	0.0	96.1	1.9
=	0.0	0.0	96.2	1.9
=	0.0	0.0	96.3	1.9
=	0.0	0.0	96.5	1.9
=	0.0	0.0	96.7	1.9
=	0.0	0.0	96.9	1.9
=	0.0	0.0	97.1	1.9
=	0.0	0.0	97.3	1.9
=	0.0	0.0	97.5	1.9
=	0.0	0.0	97.7	1.9
=	0.0	0.0	98.0	1.9
=	0.0	0.0	98.1	1.9
=	0.0	0.0	98.4	1.9
=	0.0	0.0	98.5	1.9
=	0.0	0.0	98.7	1.9
=	0.0	0.0	98.9	1.9
=	0.0	0.0	99.2	1.9
=	0.0	0.0	99.3	1.9
=	0.0	0.0	99.5	1.9
=	0.0	0.0	99.7	1.9
=	0.0	0.0	99.9	1.9
=	0.0	0.0	100.1	1.9
=	0.0	0.0	100.2	1.9
=	0.0	0.0	100.4	1.9
=	0.0	0.0	100.5	1.9
=	0.0	0.0	100.8	1.9
=	0.0	0.0	101.0	1.9
=	0.0	0.0	101.2	1.9
=	0.0	0.0	101.4	1.9
=	0.0	0.0	101.6	1.9
=	0.0	0.0	101.7	1.9
=	0.0	0.0	101.9	1.9
=	0.0	0.0	102.1	1.9
=	0.0	0.0	102.3	1.9
=	0.0	0.0	102.4	1.9
=	0.0	0.0	102.6	1.9
=	0.0	0.0	102.7	1.9
=	0.0	0.0	103.0	1.9
=	0.0	0.0	103.2	1.9
=	0.0	0.0	103.4	1.9
=	0.0	0.0	103.6	1.8
=	0.0	0.0	103.8	1.8
=	0.0	0.0	104.0	1.8
=	0.0	0.0	104.2	1.8
=	0.0	0.0	104.3	1.8
=	0.0	0.0	104.6	1.8
=	0.0	0.0	104.8	1.8
=	0.0	0.0	105.0	1.8
=	0.0	0.0	105.2	1.8
=	0.0	0.0	105.4	1.8
=	0.0	0.0	105.6	1.8
=	0.0	0.0	105.8	1.8
=	0.0	0.0	106.0	1.8
=	0.0	0.0	106.2	1.8
=	0.0	0.0	106.4	1.8
=	0.0	0.0	106.6	1.8
=	0.0	0.0	106.8	1.8
=	0.0	0.0	107.1	1.8
=	0.0	0.0	107.2	1.8
=	0.0	0.0	107.4	1.8
=	0.0	0.0	107.5	1.8
=	0.0	0.0	107.8	1.8
=	0.0	0.0	108.0	1.8
=	0.0	0.0	108.3	1.8
=	0.0	0.0	108.4	1.8
=	0.0	0.0	108.7	1.8
=	0.0	0.0	108.8	1.8
=	0.0	0.0	109.1	1.8
=	0.0	0.0	109.2	1.8
=	0.0	0.0	109.5	1.8
=	0.0	0.0	109.6	1.8
=	0.0	0.0	109.9	1.8
=	0.0	0.0	110.1	1.8
=	0.0	0.0	110.3	1.8
=	0.0	0.0	110.5	1.8
=	0.0	0.0	110.7	1.8
=	0.0	0.0	110.8	1.8
=	0.0	0.0	111.1	1.8
=	0.0	0.0	111.2	1.8
=	0.0	0.0	111.5	1.8
=	0.0	0.0	111.6	1.8
=	0.0	0.0	111.9	1.8
=	0.0	0.0	112.0	1.8
=	0.0	0.0	112.3	1.7
=	0.0	0.0	112.5	1.7
=	0.0	0.0	112.7	1.7
=	0.0	0.0	112.9	1.7
=	0.0	0.0	113.1	1.7
=	0.0	0.0	113.3	1.7
=	0.0	0.0	113.5	1.7
=	0.0	0.0	113.6	1.7
=	0.0	0.0	113.9	1.7
=	0.0	0.0	114.0	1.7
=	0.0	0.0	114.3	1.7
=	0.0	0.0	114.4	1.7
=	0.0	0.0	114.7	1.7
=	0.0	0.0	114.8	1.7
=	0.0	0.0	115.1	1.7
=	0.0	0.0	115.3	1.7
=	0.0	0.0	115.6	1.7
=	0.0	0.0	115.7	1.7
=	0.0	0.0	116.0	1.7
=	0.0	0.0	116.1	1.7
=	0.0	0.0	116.4	1.7
=	0.0	0.0	116.5	1.7
=	0.0	0.0	116.8	1.7
=	0.0	0.0	116.9	1.7
=	0.0	0.0	117.2	1.7
=	0.0	0.0	117.3	1.7
=	0.0	0.0	117.6	1.7
=	0.0	0.0	118.0	1.7
=	0.0	0.0	118.4	1.7
=	0.0	0.0	118.5	1.7
=	0.0	0.0	118.8	1.7
=	0.0	0.0	119.2	1.6
=	0.0	0.0	119.6	1.6
=	0.0	0.0	119.7	1.6
=	0.0	0.0	120.0	1.6
=	0.0	0.0	120.1	1.6
=	0.0	0.0	120.4	1.6
=	0.0	0.0	120.5	1.6
=	0.0	0.0	120.8	1.6
=	0.0	0.0	120.9	1.6
=	0.0	0.0	121.2	1.6
=	0.0	0.0	121.6	1.6
=	0.0	0.0	122.1	1.6
=	0.0	0.0	122.5	1.6
=	0.0	0.0	122.9	1.6
=	0.0	0.0	123.2	1.6
=	0.0	0.0	123.3	1.6
=	0.0	0.0	123.6	1.6
=	0.0	0.0	123.7	1.6
=	0.0	0.0	124.0	1.6
=	0.0	0.0	124.1	1.6
=	0.0	0.0	124.4	1.6
=	0.0	0.0	124.5	1.6
=	0.0	0.0	124.8	1.6
=	0.0	0.0	125.0	1.6
=	0.0	0.0	125.2	1.6
=	0.0	0.0	125.3	1.6
=	0.0	0.0	125.6	1.6
=	0.0	0.0	125.7	1.6
=	0.0	0.0	126.0	1.6
=	0.0	0.0	126.2	1.6
=	0.0	0.0	126.4	1.6
=	0.0	0.0	126.6	1.6
=	0.0	0.0	126.8	1.6
=	0.0	0.0	127.0	1.6
=	0.0	0.0	127.2	1.6
=	0.0	0.0	127.3	1.6
=	0.0	0.0	127.6	1.6
=	0.0	0.0	127.7	1.6
=	0.0	0.0	128.0	1.6
=	0.0	0.0	128.1	1.6
=	0.0	0.0	128.4	1.6
=	0.0	0.0	128.6	1.6
=	0.0	0.0	128.9	1.6
=	0.0	0.0	129.2	1.6
=	0.0	0.0	129.3	1.6
=	0.0	0.0	129.6	1.5
=	0.0	0.0	129.8	1.5
=	0.0	0.0	130.1	1.5
=	0.0	0.0	130.2	1.5
=	0.0	0.0	130.5	1.5
=	0.0	0.0	130.6	1.5
=	0.0	0.0	130.9	1.5
=	0.0	0.0	131.0	1.5
=	0.0	0.0	131.3	1.5
=	0.0	0.0	131.7	1.5
=	0.0	0.0	132.2	1.5
=	0.0	0.0	132.6	1.5
=	0.0	0.0	133.0	1.5
=	0.0	0.0	133.4	1.5
=	0.0	0.0	133.8	1.5
=	0.0	0.0	133.9	1.5
=	0.0	0.0	134.1	1.5
=	0.0	0.0	134.2	1.5
=	0.0	0.0	134.5	1.5
=	0.0	0.0	134.6	1.5
=	0.0	0.0	134.9	1.5
=	0.0	0.0	135.1	1.5
=	0.0	0.0	135.3	1.5
=	0.0	0.0	135.4	1.5
=	0.0	0.0	135.6	1.5
=	0.0	0.0	135.9	1.5
=	0.0	0.0	136.1	1.5
=	0.0	0.0	136.2	1.5
=	0.0	0.0	136.5	1.5
=	0.0	0.0	136.6	1.5
=	0.0	0.0	136.9	1.5
=	0.0	0.0	137.1	1.5
=	0.0	0.0	137.3	1.5
=	0.0	0.0	137.5	1.5
=	0.0	0.0	137.8	1.5
=	0.0	0.0	137.9	1.5
=	0.0	0.0	138.2	1.5
=	0.0	0.0	138.6	1.5
=	0.0	0.0	138.7	1.5
=	0.0	0.0	139.0	1.5
=	0.0	0.0	139.1	1.5
=	0.0	0.0	139.4	1.5
=	0.0	0.0	139.5	1.4
=	0.0	0.0	139.8	1.4
=	0.0	0.0	139.9	1.4
=	0.0	0.0	140.2	1.4
=	0.0	0.0	140.4	1.4
=	0.0	0.0	140.6	1.4
=	0.0	0.0	140.7	1.4
=	0.0	0.0	141.0	1.4
=	0.0	0.0	141.1	1.4
=	0.0	0.0	141.4	1.4
=	0.0	0.0	141.5	1.4
=	0.0	0.0	141.8	1.4
=	0.0	0.0	141.9	1.4
=	0.0	0.0	142.2	1.4
=	0.0	0.0	142.4	1.4
=	0.0	0.0	142.7	1.4
=	0.0	0.0	142.8	1.4
=	0.0	0.0	143.1	1.4
=	0.0	0.0	143.2	1.4
=	0.0	0.0	143.5	1.4
=	0.0	0.0	143.6	1.4
=	0.0	0.0	143.9	1.4
=	0.0	0.0	144.0	1.4
=	0.0	0.0	144.3	1.4
=	0.0	0.0	144.4	1.4
=	0.0	0.0	144.7	1.4
=	0.0	0.0	145.1	1.4
=	0.0	0.0	145.5	1.4
=	0.0	0.0	145.9	1.4
=	0.0	0.0	146.0	1.4
=	0.0	0.0	146.3	1.4
=	0.0	0.0	146.4	1.4
=	0.0	0.0	146.7	1.4
=	0.0	0.0	146.8	1.4
=	0.0	0.0	147.1	1.4
=	0.0	0.0	147.2	1.4
=	0.0	0.0	147.5	1.4
=	0.0	0.0	147.9	1.4
=	0.0	0.0	148.0	1.4
=	0.0	0.0	148.3	1.4
=	0.0	0.0	148.4	1.4
=	0.0	0.0	148.7	1.4
=	0.0	0.0	148.9	1.4
=	0.0	0.0	149.1	1.4
=	0.0	0.0	149.3	1.4
=	0.0	0.0	149.5	1.4
=	0.0	0.0	149.7	1.4
=	0.0	0.0	149.9	1.4
=	0.0	0.0	150.4	1.4
=	0.0	0.0	150.8	1.4
=	0.0	0.0	151.1	1.4
=	0.0	0.0	151.2	1.4
=	0.0	0.0	151.5	1.4
=	0.0	0.0	151.7	1.4
=	0.0	0.0	152.0	1.4
=	0.0	0.0	152.4	1.3
=	0.0	0.0	152.5	1.3
=	0.0	0.0	152.8	1.3
=	0.0	0.0	152.9	1.3
=	0.0	0.0	153.1	1.3
=	0.0	0.0	153.3	1.3
=	0.0	0.0	153.5	1.3
=	0.0	0.0	153.7	1.3
=	0.0	0.0	153.9	1.3
=	0.0	0.0	154.1	1.3
=	0.0	0.0	154.3	1.3
=	0.0	0.0	154.5	1.3
=	0.0	0.0	154.8	1.3
=	0.0	0.0	154.9	1.3
=	0.0	0.0	155.2	1.3
=	0.0	0.0	155.6	1.3
=	0.0	0.0	155.7	1.3
=	0.0	0.0	156.0	1.3
=	0.0	0.0	156.1	1.3
=	0.0	0.0	156.4	1.3
=	0.0	0.0	156.5	1.3
=	0.0	0.0	156.8	1.3
=	0.0	0.0	156.9	1.3
=	0.0	0.0	157.2	1.3
=	0.0	0.0	157.3	1.3
=	0.0	0.0	157.6	1.3
=	0.0	0.0	157.8	1.3
=	0.0	0.0	158.0	1.3
=	0.0	0.0	158.2	1.3
=	0.0	0.0	158.4	1.3
=	0.0	0.0	158.5	1.3
=	0.0	0.0	158.8	1.3
=	0.0	0.0	158.9	1.3
=	0.0	0.0	159.2	1.3
=	0.0	0.0	159.4	1.3
=	0.0	0.0	159.6	1.3
=	0.0	0.0	159.8	1.3
=	0.0	0.0	160.0	1.3
=	0.0	0.0	160.2	1.3
=	0.0	0.0	160.4	1.3
=	0.0	0.0	160.6	1.3
=	0.0	0.0	160.8	1.3
=	0.0	0.0	161.0	1.3
=	0.0	0.0	161.2	1.3
=	0.0	0.0	161.4	1.3
=	0.0	0.0	161.6	1.3
=	0.0	0.0	161.8	1.3
=	0.0	0.0	162.0	1.3
=	0.0	0.0	162.2	1.3
=	0.0	0.0	162.4	1.3
=	0.0	0.0	162.6	1.3
=	0.0	0.0	162.9	1.2
=	0.0	0.0	163.0	1.2
=	0.0	0.0	163.3	1.2
=	0.0	0.0	163.4	1.2
=	0.0	0.0	163.7	1.2
=	0.0	0.0	163.8	1.2
=	0.0	0.0	164.1	1.2
=	0.0	0.0	164.3	1.2
=	0.0	0.0	164.5	1.2
=	0.0	0.0	164.8	1.2
=	0.0	0.0	164.9	1.2
=	0.0	0.0	165.2	1.2
=	0.0	0.0	165.3	1.2
=	0.0	0.0	165.5	1.2
=	0.0	0.0	165.6	1.2
=	0.0	0.0	165.8	1.2
=	0.0	0.0	166.1	1.2
=	0.0	0.0	166.5	1.2
=	0.0	0.0	166.9	1.2
=	0.0	0.0	167.2	1.2
=	0.0	0.0	167.3	1.2
=	0.0	0.0	167.5	1.2
=	0.0	0.0	167.6	1.2
=	0.0	0.0	167.7	1.2
=	0.0	0.0	168.2	1.2
=	0.0	0.0	168.5	1.2
:EOM # End of Measurement

:EOF # End of File