:MSR 	5	 # No. of measurement in file
:SYS BDS 0   # Beam Data Scanner System
#
# RFA300 ASCII Measurement Dump ( BDS format )
#
# Measurement number 	1
#
%VNR 1.0
%MOD 	RAT
%TYP 	SCN
%SCN 	PRO
%FLD 	ION
%DAT 	02-03-2012
%TIM 	12:00:00
%FSZ 	400	200
%BMT 	PHO	   4.0
%SSD 	1000
%BUP 	0
%BRD 	1000
%FSH 	1
%ASC 	0
%WEG 	45
%GPO 	0
%CPO 	0
%MEA 	6
%PRD 	12,0
%PTS 	719
%STS 	    0.0	  -272.2	   12.0 # Start Scan values in mm ( X , Y , Z )
%EDS 	    0.0	   271.8	   12.0 # End Scan values in mm ( X , Y , Z )
#
#	  X      Y      Z     Dose
#
=	0.0	-272.2	12.0	6.9
=	0.0	-271.6	12.0	6.9
=	0.0	-270.7	12.0	6.9
=	0.0	-270.0	12.0	7.0
=	0.0	-269.5	12.0	7.0
=	0.0	-269.1	12.0	7.0
=	0.0	-268.4	12.0	7.0
=	0.0	-267.8	12.0	7.0
=	0.0	-267.0	12.0	7.1
=	0.0	-266.3	12.0	7.1
=	0.0	-265.5	12.0	7.1
=	0.0	-264.7	12.0	7.1
=	0.0	-264.1	12.0	7.1
=	0.0	-263.5	12.0	7.2
=	0.0	-262.8	12.0	7.2
=	0.0	-261.9	12.0	7.2
=	0.0	-261.2	12.0	7.3
=	0.0	-260.4	12.0	7.3
=	0.0	-259.6	12.0	7.3
=	0.0	-258.9	12.0	7.3
=	0.0	-258.1	12.0	7.4
=	0.0	-257.3	12.0	7.4
=	0.0	-256.2	12.0	7.5
=	0.0	-254.9	12.0	7.5
=	0.0	-254.1	12.0	7.6
=	0.0	-253.3	12.0	7.6
=	0.0	-252.4	12.0	7.7
=	0.0	-251.7	12.0	7.7
=	0.0	-250.9	12.0	7.7
=	0.0	-250.2	12.0	7.8
=	0.0	-249.4	12.0	7.8
=	0.0	-248.7	12.0	7.8
=	0.0	-247.9	12.0	7.9
=	0.0	-247.2	12.0	7.9
=	0.0	-246.4	12.0	8.0
=	0.0	-245.7	12.0	8.0
=	0.0	-244.9	12.0	8.1
=	0.0	-244.2	12.0	8.1
=	0.0	-243.4	12.0	8.1
=	0.0	-242.6	12.0	8.2
=	0.0	-242.1	12.0	8.2
=	0.0	-241.5	12.0	8.3
=	0.0	-240.8	12.0	8.3
=	0.0	-240.0	12.0	8.4
=	0.0	-239.3	12.0	8.4
=	0.0	-238.5	12.0	8.5
=	0.0	-237.8	12.0	8.5
=	0.0	-237.0	12.0	8.5
=	0.0	-236.3	12.0	8.6
=	0.0	-235.5	12.0	8.6
=	0.0	-234.8	12.0	8.7
=	0.0	-234.0	12.0	8.7
=	0.0	-233.3	12.0	8.8
=	0.0	-232.5	12.0	8.9
=	0.0	-231.8	12.0	8.9
=	0.0	-231.0	12.0	9.0
=	0.0	-230.2	12.0	9.1
=	0.0	-229.4	12.0	9.1
=	0.0	-228.7	12.0	9.2
=	0.0	-227.9	12.0	9.3
=	0.0	-227.2	12.0	9.4
=	0.0	-226.5	12.0	9.4
=	0.0	-225.7	12.0	9.5
=	0.0	-224.9	12.0	9.6
=	0.0	-224.2	12.0	9.7
=	0.0	-223.4	12.0	9.9
=	0.0	-222.7	12.0	9.9
=	0.0	-222.0	12.0	10.0
=	0.0	-221.2	12.0	10.2
=	0.0	-220.5	12.0	10.3
=	0.0	-219.7	12.0	10.3
=	0.0	-219.0	12.0	10.4
=	0.0	-218.2	12.0	10.5
=	0.0	-217.4	12.0	10.6
=	0.0	-216.7	12.0	10.8
=	0.0	-215.9	12.0	10.9
=	0.0	-215.2	12.0	11.1
=	0.0	-214.4	12.0	11.2
=	0.0	-213.7	12.0	11.3
=	0.0	-212.9	12.0	11.5
=	0.0	-212.2	12.0	11.7
=	0.0	-211.4	12.0	12.0
=	0.0	-210.6	12.0	12.3
=	0.0	-209.9	12.0	12.8
=	0.0	-209.1	12.0	13.4
=	0.0	-208.4	12.0	14.3
=	0.0	-207.6	12.0	15.8
=	0.0	-206.9	12.0	17.7
=	0.0	-206.1	12.0	20.6
=	0.0	-205.4	12.0	24.1
=	0.0	-204.6	12.0	28.8
=	0.0	-203.9	12.0	33.9
=	0.0	-203.1	12.0	40.4
=	0.0	-202.4	12.0	46.9
=	0.0	-201.6	12.0	54.2
=	0.0	-200.9	12.0	61.1
=	0.0	-200.1	12.0	68.1
=	0.0	-199.4	12.0	74.0
=	0.0	-198.6	12.0	79.4
=	0.0	-197.9	12.0	83.4
=	0.0	-197.1	12.0	86.3
=	0.0	-196.4	12.0	88.2
=	0.0	-195.6	12.0	89.8
=	0.0	-194.9	12.0	90.6
=	0.0	-194.1	12.0	91.2
=	0.0	-193.3	12.0	91.6
=	0.0	-192.6	12.0	91.9
=	0.0	-191.8	12.0	92.0
=	0.0	-191.1	12.0	92.2
=	0.0	-190.4	12.0	92.5
=	0.0	-189.6	12.0	92.6
=	0.0	-188.9	12.0	92.7
=	0.0	-188.1	12.0	92.9
=	0.0	-187.2	12.0	93.1
=	0.0	-186.3	12.0	93.2
=	0.0	-185.5	12.0	93.3
=	0.0	-184.8	12.0	93.4
=	0.0	-184.0	12.0	93.5
=	0.0	-183.3	12.0	93.6
=	0.0	-182.5	12.0	93.7
=	0.0	-181.8	12.0	93.9
=	0.0	-181.0	12.0	94.0
=	0.0	-180.3	12.0	94.1
=	0.0	-179.5	12.0	94.2
=	0.0	-178.7	12.0	94.3
=	0.0	-178.0	12.0	94.3
=	0.0	-177.2	12.0	94.4
=	0.0	-176.5	12.0	94.6
=	0.0	-175.7	12.0	94.7
=	0.0	-175.0	12.0	94.8
=	0.0	-174.2	12.0	94.9
=	0.0	-173.5	12.0	95.0
=	0.0	-172.7	12.0	95.0
=	0.0	-171.9	12.0	95.1
=	0.0	-171.2	12.0	95.2
=	0.0	-170.4	12.0	95.3
=	0.0	-169.7	12.0	95.4
=	0.0	-168.9	12.0	95.5
=	0.0	-168.2	12.0	95.6
=	0.0	-167.4	12.0	95.7
=	0.0	-166.7	12.0	95.7
=	0.0	-165.9	12.0	95.8
=	0.0	-164.9	12.0	96.0
=	0.0	-164.2	12.0	96.0
=	0.0	-163.4	12.0	96.1
=	0.0	-162.7	12.0	96.2
=	0.0	-161.9	12.0	96.4
=	0.0	-161.2	12.0	96.5
=	0.0	-160.4	12.0	96.6
=	0.0	-159.8	12.0	96.7
=	0.0	-159.1	12.0	96.7
=	0.0	-158.4	12.0	96.8
=	0.0	-157.7	12.0	96.8
=	0.0	-156.9	12.0	96.9
=	0.0	-156.1	12.0	96.9
=	0.0	-155.4	12.0	97.0
=	0.0	-154.6	12.0	97.2
=	0.0	-153.9	12.0	97.2
=	0.0	-153.1	12.0	97.3
=	0.0	-152.3	12.0	97.3
=	0.0	-151.6	12.0	97.4
=	0.0	-150.8	12.0	97.5
=	0.0	-150.1	12.0	97.6
=	0.0	-149.3	12.0	97.6
=	0.0	-148.6	12.0	97.7
=	0.0	-147.8	12.0	97.8
=	0.0	-147.1	12.0	97.8
=	0.0	-146.3	12.0	97.9
=	0.0	-145.6	12.0	97.9
=	0.0	-144.8	12.0	98.0
=	0.0	-144.1	12.0	98.0
=	0.0	-143.3	12.0	98.1
=	0.0	-142.5	12.0	98.2
=	0.0	-141.8	12.0	98.2
=	0.0	-141.0	12.0	98.3
=	0.0	-140.3	12.0	98.3
=	0.0	-139.5	12.0	98.3
=	0.0	-138.8	12.0	98.3
=	0.0	-138.0	12.0	98.4
=	0.0	-137.2	12.0	98.4
=	0.0	-136.5	12.0	98.4
=	0.0	-136.0	12.0	98.4
=	0.0	-135.2	12.0	98.5
=	0.0	-134.5	12.0	98.5
=	0.0	-133.7	12.0	98.5
=	0.0	-133.1	12.0	98.6
=	0.0	-132.5	12.0	98.6
=	0.0	-131.7	12.0	98.7
=	0.0	-131.0	12.0	98.7
=	0.0	-130.2	12.0	98.8
=	0.0	-129.4	12.0	98.8
=	0.0	-128.7	12.0	98.8
=	0.0	-127.9	12.0	98.8
=	0.0	-127.2	12.0	98.8
=	0.0	-126.4	12.0	98.8
=	0.0	-125.7	12.0	98.9
=	0.0	-124.9	12.0	98.9
=	0.0	-124.2	12.0	99.0
=	0.0	-123.4	12.0	99.0
=	0.0	-122.6	12.0	99.0
=	0.0	-121.9	12.0	99.1
=	0.0	-121.1	12.0	99.1
=	0.0	-120.4	12.0	99.2
=	0.0	-119.6	12.0	99.3
=	0.0	-118.9	12.0	99.3
=	0.0	-118.1	12.0	99.3
=	0.0	-117.4	12.0	99.4
=	0.0	-116.6	12.0	99.4
=	0.0	-115.8	12.0	99.5
=	0.0	-115.1	12.0	99.5
=	0.0	-114.3	12.0	99.5
=	0.0	-113.6	12.0	99.6
=	0.0	-112.8	12.0	99.6
=	0.0	-112.1	12.0	99.6
=	0.0	-111.6	12.0	99.7
=	0.0	-111.0	12.0	99.7
=	0.0	-110.3	12.0	99.7
=	0.0	-109.5	12.0	99.7
=	0.0	-108.8	12.0	99.8
=	0.0	-108.0	12.0	99.8
=	0.0	-107.3	12.0	99.9
=	0.0	-106.8	12.0	99.9
=	0.0	-106.1	12.0	99.9
=	0.0	-104.9	12.0	100.0
=	0.0	-103.9	12.0	100.0
=	0.0	-102.9	12.0	100.0
=	0.0	-101.4	12.0	100.1
=	0.0	-100.2	12.0	100.1
=	0.0	-99.3	12.0	100.1
=	0.0	-98.3	12.0	100.2
=	0.0	-97.1	12.0	100.2
=	0.0	-96.4	12.0	100.2
=	0.0	-95.6	12.0	100.2
=	0.0	-94.9	12.0	100.3
=	0.0	-93.9	12.0	100.3
=	0.0	-93.1	12.0	100.3
=	0.0	-92.4	12.0	100.3
=	0.0	-91.6	12.0	100.3
=	0.0	-90.6	12.0	100.3
=	0.0	-89.9	12.0	100.3
=	0.0	-89.1	12.0	100.4
=	0.0	-88.3	12.0	100.4
=	0.0	-87.5	12.0	100.4
=	0.0	-86.8	12.0	100.5
=	0.0	-85.7	12.0	100.5
=	0.0	-84.8	12.0	100.5
=	0.0	-83.9	12.0	100.6
=	0.0	-82.7	12.0	100.6
=	0.0	-81.3	12.0	100.6
=	0.0	-80.5	12.0	100.6
=	0.0	-79.3	12.0	100.6
=	0.0	-78.5	12.0	100.7
=	0.0	-77.7	12.0	100.7
=	0.0	-77.0	12.0	100.7
=	0.0	-76.2	12.0	100.7
=	0.0	-75.4	12.0	100.8
=	0.0	-74.7	12.0	100.8
=	0.0	-73.9	12.0	100.8
=	0.0	-73.2	12.0	100.8
=	0.0	-72.4	12.0	100.8
=	0.0	-71.7	12.0	100.9
=	0.0	-70.9	12.0	101.0
=	0.0	-70.2	12.0	101.0
=	0.0	-69.4	12.0	101.0
=	0.0	-68.7	12.0	101.0
=	0.0	-67.9	12.0	101.0
=	0.0	-67.2	12.0	101.0
=	0.0	-66.4	12.0	101.0
=	0.0	-65.6	12.0	101.0
=	0.0	-64.9	12.0	101.0
=	0.0	-64.1	12.0	101.1
=	0.0	-63.5	12.0	101.1
=	0.0	-62.9	12.0	101.1
=	0.0	-62.3	12.0	101.1
=	0.0	-61.5	12.0	101.1
=	0.0	-60.7	12.0	101.1
=	0.0	-59.9	12.0	101.2
=	0.0	-59.2	12.0	101.2
=	0.0	-58.4	12.0	101.2
=	0.0	-57.7	12.0	101.2
=	0.0	-56.9	12.0	101.2
=	0.0	-56.2	12.0	101.2
=	0.0	-55.4	12.0	101.2
=	0.0	-54.6	12.0	101.2
=	0.0	-53.9	12.0	101.2
=	0.0	-53.1	12.0	101.2
=	0.0	-52.3	12.0	101.2
=	0.0	-51.6	12.0	101.2
=	0.0	-50.8	12.0	101.2
=	0.0	-50.1	12.0	101.2
=	0.0	-49.3	12.0	101.2
=	0.0	-48.6	12.0	101.2
=	0.0	-47.8	12.0	101.2
=	0.0	-47.1	12.0	101.2
=	0.0	-46.6	12.0	101.2
=	0.0	-45.8	12.0	101.2
=	0.0	-45.1	12.0	101.2
=	0.0	-44.2	12.0	101.2
=	0.0	-43.5	12.0	101.2
=	0.0	-42.7	12.0	101.2
=	0.0	-42.0	12.0	101.2
=	0.0	-41.2	12.0	101.1
=	0.0	-40.5	12.0	101.1
=	0.0	-39.7	12.0	101.1
=	0.0	-39.0	12.0	101.0
=	0.0	-38.2	12.0	101.0
=	0.0	-37.5	12.0	101.0
=	0.0	-36.7	12.0	101.0
=	0.0	-36.0	12.0	100.9
=	0.0	-35.2	12.0	100.9
=	0.0	-34.5	12.0	100.9
=	0.0	-33.7	12.0	100.9
=	0.0	-33.0	12.0	100.9
=	0.0	-32.2	12.0	100.9
=	0.0	-31.4	12.0	100.9
=	0.0	-30.7	12.0	100.9
=	0.0	-29.9	12.0	100.8
=	0.0	-29.1	12.0	100.8
=	0.0	-28.4	12.0	100.7
=	0.0	-27.6	12.0	100.7
=	0.0	-26.9	12.0	100.7
=	0.0	-26.4	12.0	100.7
=	0.0	-25.7	12.0	100.7
=	0.0	-25.2	12.0	100.7
=	0.0	-24.6	12.0	100.7
=	0.0	-23.9	12.0	100.6
=	0.0	-23.1	12.0	100.6
=	0.0	-22.4	12.0	100.6
=	0.0	-21.9	12.0	100.6
=	0.0	-21.4	12.0	100.6
=	0.0	-20.6	12.0	100.6
=	0.0	-19.9	12.0	100.5
=	0.0	-19.1	12.0	100.5
=	0.0	-18.4	12.0	100.5
=	0.0	-17.6	12.0	100.5
=	0.0	-16.8	12.0	100.5
=	0.0	-16.1	12.0	100.4
=	0.0	-15.5	12.0	100.4
=	0.0	-14.8	12.0	100.4
=	0.0	-14.0	12.0	100.4
=	0.0	-13.3	12.0	100.4
=	0.0	-12.5	12.0	100.3
=	0.0	-11.8	12.0	100.2
=	0.0	-11.0	12.0	100.2
=	0.0	-10.3	12.0	100.2
=	0.0	-9.5	12.0	100.2
=	0.0	-8.8	12.0	100.2
=	0.0	-8.1	12.0	100.1
=	0.0	-7.5	12.0	100.1
=	0.0	-7.0	12.0	100.1
=	0.0	-6.2	12.0	100.1
=	0.0	-5.5	12.0	100.0
=	0.0	-4.7	12.0	100.0
=	0.0	-4.0	12.0	100.0
=	0.0	-3.2	12.0	100.0
=	0.0	-2.5	12.0	100.0
=	0.0	-1.8	12.0	100.0
=	0.0	-1.3	12.0	100.0
=	0.0	-0.7	12.0	100.0
=	0.0	0.0	12.0	100.0
=	0.0	0.1	12.0	100.0
=	0.0	1.0	12.0	100.0
=	0.0	1.5	12.0	100.0
=	0.0	2.0	12.0	100.0
=	0.0	2.7	12.0	100.0
=	0.0	3.5	12.0	100.0
=	0.0	4.2	12.0	100.0
=	0.0	5.0	12.0	100.0
=	0.0	5.7	12.0	100.0
=	0.0	6.5	12.0	100.1
=	0.0	7.2	12.0	100.1
=	0.0	7.7	12.0	100.1
=	0.0	8.3	12.0	100.1
=	0.0	9.0	12.0	100.2
=	0.0	9.8	12.0	100.2
=	0.0	10.5	12.0	100.2
=	0.0	11.3	12.0	100.2
=	0.0	12.0	12.0	100.3
=	0.0	12.8	12.0	100.3
=	0.0	13.5	12.0	100.4
=	0.0	14.3	12.0	100.4
=	0.0	15.0	12.0	100.4
=	0.0	15.8	12.0	100.4
=	0.0	16.3	12.0	100.4
=	0.0	17.1	12.0	100.5
=	0.0	17.8	12.0	100.5
=	0.0	18.6	12.0	100.5
=	0.0	19.4	12.0	100.5
=	0.0	20.1	12.0	100.5
=	0.0	20.9	12.0	100.6
=	0.0	21.5	12.0	100.6
=	0.0	22.0	12.0	100.6
=	0.0	22.6	12.0	100.6
=	0.0	23.4	12.0	100.6
=	0.0	24.1	12.0	100.7
=	0.0	24.9	12.0	100.7
=	0.0	25.4	12.0	100.7
=	0.0	25.9	12.0	100.7
=	0.0	26.5	12.0	100.7
=	0.0	27.1	12.0	100.7
=	0.0	27.9	12.0	100.7
=	0.0	28.6	12.0	100.8
=	0.0	29.4	12.0	100.8
=	0.0	30.1	12.0	100.9
=	0.0	30.9	12.0	100.9
=	0.0	31.7	12.0	100.9
=	0.0	32.4	12.0	100.9
=	0.0	33.2	12.0	100.9
=	0.0	34.0	12.0	100.9
=	0.0	34.7	12.0	100.9
=	0.0	35.5	12.0	100.9
=	0.0	36.2	12.0	101.0
=	0.0	37.0	12.0	101.0
=	0.0	37.7	12.0	101.0
=	0.0	38.5	12.0	101.0
=	0.0	39.2	12.0	101.0
=	0.0	40.0	12.0	101.1
=	0.0	40.7	12.0	101.1
=	0.0	41.5	12.0	101.1
=	0.0	42.3	12.0	101.2
=	0.0	43.0	12.0	101.2
=	0.0	43.8	12.0	101.2
=	0.0	44.5	12.0	101.2
=	0.0	45.3	12.0	101.2
=	0.0	46.1	12.0	101.2
=	0.0	46.8	12.0	101.2
=	0.0	47.3	12.0	101.2
=	0.0	48.1	12.0	101.2
=	0.0	48.8	12.0	101.2
=	0.0	49.6	12.0	101.2
=	0.0	50.3	12.0	101.2
=	0.0	51.1	12.0	101.2
=	0.0	51.8	12.0	101.2
=	0.0	52.6	12.0	101.2
=	0.0	53.4	12.0	101.2
=	0.0	54.1	12.0	101.2
=	0.0	54.9	12.0	101.2
=	0.0	55.7	12.0	101.2
=	0.0	56.4	12.0	101.2
=	0.0	57.2	12.0	101.2
=	0.0	57.9	12.0	101.2
=	0.0	58.7	12.0	101.2
=	0.0	59.4	12.0	101.2
=	0.0	60.2	12.0	101.1
=	0.0	61.0	12.0	101.1
=	0.0	61.8	12.0	101.1
=	0.0	62.5	12.0	101.1
=	0.0	63.1	12.0	101.1
=	0.0	63.6	12.0	101.1
=	0.0	64.3	12.0	101.1
=	0.0	65.1	12.0	101.0
=	0.0	65.9	12.0	101.0
=	0.0	66.6	12.0	101.0
=	0.0	67.4	12.0	101.0
=	0.0	68.2	12.0	101.0
=	0.0	68.9	12.0	101.0
=	0.0	69.7	12.0	101.0
=	0.0	70.4	12.0	101.0
=	0.0	71.2	12.0	101.0
=	0.0	71.9	12.0	100.9
=	0.0	72.7	12.0	100.8
=	0.0	73.4	12.0	100.8
=	0.0	74.2	12.0	100.8
=	0.0	74.9	12.0	100.8
=	0.0	75.7	12.0	100.8
=	0.0	76.5	12.0	100.7
=	0.0	77.2	12.0	100.7
=	0.0	78.0	12.0	100.7
=	0.0	78.8	12.0	100.7
=	0.0	79.7	12.0	100.6
=	0.0	80.8	12.0	100.6
=	0.0	81.7	12.0	100.6
=	0.0	83.2	12.0	100.6
=	0.0	84.2	12.0	100.6
=	0.0	85.1	12.0	100.5
=	0.0	86.2	12.0	100.5
=	0.0	87.1	12.0	100.5
=	0.0	87.8	12.0	100.4
=	0.0	88.6	12.0	100.4
=	0.0	89.4	12.0	100.3
=	0.0	90.1	12.0	100.3
=	0.0	90.9	12.0	100.3
=	0.0	91.9	12.0	100.3
=	0.0	92.6	12.0	100.3
=	0.0	93.4	12.0	100.3
=	0.0	94.3	12.0	100.3
=	0.0	95.1	12.0	100.3
=	0.0	95.9	12.0	100.2
=	0.0	96.7	12.0	100.2
=	0.0	97.5	12.0	100.2
=	0.0	98.7	12.0	100.1
=	0.0	99.7	12.0	100.1
=	0.0	100.5	12.0	100.1
=	0.0	101.9	12.0	100.0
=	0.0	103.2	12.0	100.0
=	0.0	104.2	12.0	100.0
=	0.0	105.4	12.0	100.0
=	0.0	106.3	12.0	99.9
=	0.0	107.0	12.0	99.9
=	0.0	107.5	12.0	99.9
=	0.0	108.2	12.0	99.8
=	0.0	109.1	12.0	99.8
=	0.0	109.7	12.0	99.7
=	0.0	110.6	12.0	99.7
=	0.0	111.2	12.0	99.7
=	0.0	111.7	12.0	99.7
=	0.0	112.3	12.0	99.6
=	0.0	113.1	12.0	99.6
=	0.0	113.8	12.0	99.5
=	0.0	114.6	12.0	99.5
=	0.0	115.3	12.0	99.5
=	0.0	116.1	12.0	99.5
=	0.0	116.8	12.0	99.4
=	0.0	117.6	12.0	99.4
=	0.0	118.4	12.0	99.3
=	0.0	119.2	12.0	99.3
=	0.0	119.9	12.0	99.2
=	0.0	120.6	12.0	99.2
=	0.0	121.4	12.0	99.1
=	0.0	122.2	12.0	99.1
=	0.0	122.9	12.0	99.0
=	0.0	123.7	12.0	99.0
=	0.0	124.4	12.0	99.0
=	0.0	125.2	12.0	98.9
=	0.0	125.9	12.0	98.9
=	0.0	126.7	12.0	98.8
=	0.0	127.4	12.0	98.8
=	0.0	128.2	12.0	98.8
=	0.0	128.9	12.0	98.8
=	0.0	129.7	12.0	98.8
=	0.0	130.4	12.0	98.8
=	0.0	131.2	12.0	98.7
=	0.0	132.0	12.0	98.6
=	0.0	132.7	12.0	98.6
=	0.0	133.3	12.0	98.6
=	0.0	134.0	12.0	98.5
=	0.0	134.7	12.0	98.5
=	0.0	135.5	12.0	98.5
=	0.0	136.1	12.0	98.4
=	0.0	136.8	12.0	98.4
=	0.0	137.5	12.0	98.4
=	0.0	138.3	12.0	98.3
=	0.0	139.0	12.0	98.3
=	0.0	139.8	12.0	98.3
=	0.0	140.5	12.0	98.3
=	0.0	141.3	12.0	98.2
=	0.0	142.0	12.0	98.2
=	0.0	142.8	12.0	98.1
=	0.0	143.6	12.0	98.1
=	0.0	144.3	12.0	98.0
=	0.0	145.0	12.0	98.0
=	0.0	145.8	12.0	97.9
=	0.0	146.5	12.0	97.9
=	0.0	147.3	12.0	97.8
=	0.0	148.1	12.0	97.8
=	0.0	148.8	12.0	97.7
=	0.0	149.6	12.0	97.6
=	0.0	150.3	12.0	97.6
=	0.0	151.1	12.0	97.5
=	0.0	151.8	12.0	97.4
=	0.0	152.6	12.0	97.3
=	0.0	153.4	12.0	97.3
=	0.0	154.1	12.0	97.2
=	0.0	154.9	12.0	97.1
=	0.0	155.6	12.0	97.0
=	0.0	156.4	12.0	96.9
=	0.0	157.2	12.0	96.9
=	0.0	157.9	12.0	96.8
=	0.0	158.6	12.0	96.8
=	0.0	159.4	12.0	96.7
=	0.0	160.0	12.0	96.7
=	0.0	160.7	12.0	96.6
=	0.0	161.4	12.0	96.5
=	0.0	162.2	12.0	96.3
=	0.0	162.9	12.0	96.2
=	0.0	163.7	12.0	96.1
=	0.0	164.4	12.0	96.0
=	0.0	165.3	12.0	95.9
=	0.0	166.2	12.0	95.8
=	0.0	166.9	12.0	95.7
=	0.0	167.7	12.0	95.6
=	0.0	168.5	12.0	95.5
=	0.0	169.2	12.0	95.4
=	0.0	169.9	12.0	95.3
=	0.0	170.7	12.0	95.2
=	0.0	171.4	12.0	95.1
=	0.0	172.2	12.0	95.1
=	0.0	173.0	12.0	95.0
=	0.0	173.7	12.0	94.9
=	0.0	174.5	12.0	94.8
=	0.0	175.2	12.0	94.7
=	0.0	176.0	12.0	94.7
=	0.0	176.7	12.0	94.5
=	0.0	177.5	12.0	94.4
=	0.0	178.2	12.0	94.3
=	0.0	179.0	12.0	94.3
=	0.0	179.8	12.0	94.2
=	0.0	180.5	12.0	94.1
=	0.0	181.3	12.0	94.0
=	0.0	182.0	12.0	93.8
=	0.0	182.8	12.0	93.7
=	0.0	183.5	12.0	93.5
=	0.0	184.3	12.0	93.5
=	0.0	185.0	12.0	93.4
=	0.0	185.8	12.0	93.3
=	0.0	186.5	12.0	93.2
=	0.0	187.6	12.0	93.1
=	0.0	188.4	12.0	92.8
=	0.0	189.1	12.0	92.7
=	0.0	189.9	12.0	92.6
=	0.0	190.6	12.0	92.4
=	0.0	191.4	12.0	92.1
=	0.0	192.1	12.0	92.0
=	0.0	192.8	12.0	91.8
=	0.0	193.6	12.0	91.5
=	0.0	194.3	12.0	91.0
=	0.0	195.1	12.0	90.4
=	0.0	195.9	12.0	89.3
=	0.0	196.6	12.0	87.6
=	0.0	197.4	12.0	85.4
=	0.0	198.1	12.0	82.2
=	0.0	198.9	12.0	77.6
=	0.0	199.6	12.0	72.2
=	0.0	200.4	12.0	65.7
=	0.0	201.1	12.0	58.9
=	0.0	201.9	12.0	51.6
=	0.0	202.6	12.0	44.9
=	0.0	203.4	12.0	38.0
=	0.0	204.1	12.0	32.2
=	0.0	204.9	12.0	27.1
=	0.0	205.6	12.0	22.9
=	0.0	206.4	12.0	19.5
=	0.0	207.2	12.0	17.0
=	0.0	207.9	12.0	15.2
=	0.0	208.7	12.0	14.0
=	0.0	209.4	12.0	13.2
=	0.0	210.1	12.0	12.6
=	0.0	210.9	12.0	12.2
=	0.0	211.7	12.0	11.8
=	0.0	212.4	12.0	11.6
=	0.0	213.2	12.0	11.4
=	0.0	213.9	12.0	11.3
=	0.0	214.7	12.0	11.1
=	0.0	215.4	12.0	11.0
=	0.0	216.2	12.0	10.9
=	0.0	216.9	12.0	10.7
=	0.0	217.7	12.0	10.6
=	0.0	218.5	12.0	10.5
=	0.0	219.2	12.0	10.4
=	0.0	219.9	12.0	10.3
=	0.0	220.7	12.0	10.2
=	0.0	221.5	12.0	10.1
=	0.0	222.2	12.0	10.0
=	0.0	222.9	12.0	9.9
=	0.0	223.7	12.0	9.8
=	0.0	224.4	12.0	9.7
=	0.0	225.2	12.0	9.6
=	0.0	225.9	12.0	9.5
=	0.0	226.7	12.0	9.4
=	0.0	227.4	12.0	9.3
=	0.0	228.2	12.0	9.3
=	0.0	228.9	12.0	9.2
=	0.0	229.7	12.0	9.1
=	0.0	230.5	12.0	9.0
=	0.0	231.2	12.0	9.0
=	0.0	232.0	12.0	8.9
=	0.0	232.8	12.0	8.8
=	0.0	233.5	12.0	8.7
=	0.0	234.3	12.0	8.7
=	0.0	235.0	12.0	8.6
=	0.0	235.8	12.0	8.6
=	0.0	236.5	12.0	8.5
=	0.0	237.3	12.0	8.5
=	0.0	238.0	12.0	8.5
=	0.0	238.8	12.0	8.4
=	0.0	239.5	12.0	8.4
=	0.0	240.3	12.0	8.3
=	0.0	241.0	12.0	8.3
=	0.0	241.7	12.0	8.3
=	0.0	242.2	12.0	8.2
=	0.0	242.9	12.0	8.2
=	0.0	243.7	12.0	8.1
=	0.0	244.4	12.0	8.1
=	0.0	245.2	12.0	8.1
=	0.0	245.9	12.0	8.0
=	0.0	246.7	12.0	8.0
=	0.0	247.4	12.0	7.9
=	0.0	248.2	12.0	7.9
=	0.0	248.9	12.0	7.8
=	0.0	249.7	12.0	7.8
=	0.0	250.4	12.0	7.8
=	0.0	251.2	12.0	7.7
=	0.0	251.9	12.0	7.7
=	0.0	252.7	12.0	7.7
=	0.0	253.5	12.0	7.6
=	0.0	254.4	12.0	7.5
=	0.0	255.3	12.0	7.5
=	0.0	256.6	12.0	7.5
=	0.0	257.5	12.0	7.4
=	0.0	258.4	12.0	7.4
=	0.0	259.1	12.0	7.3
=	0.0	259.9	12.0	7.3
=	0.0	260.7	12.0	7.3
=	0.0	261.4	12.0	7.3
=	0.0	262.2	12.0	7.2
=	0.0	263.0	12.0	7.2
=	0.0	263.7	12.0	7.2
=	0.0	264.3	12.0	7.1
=	0.0	265.0	12.0	7.1
=	0.0	265.7	12.0	7.1
=	0.0	266.5	12.0	7.1
=	0.0	267.3	12.0	7.1
=	0.0	268.0	12.0	7.0
=	0.0	268.6	12.0	7.0
=	0.0	269.2	12.0	7.0
=	0.0	269.7	12.0	7.0
=	0.0	270.2	12.0	6.9
=	0.0	271.0	12.0	6.9
=	0.0	271.8	12.0	6.9
:EOM # End of Measurement
#
# RFA300 ASCII Measurement Dump ( BDS format )
#
# Measurement number 	2
#
%VNR 1.0
%MOD 	RAT
%TYP 	SCN
%SCN 	PRO
%FLD 	ION
%DAT 	02-03-2012
%TIM 	12:00:00
%FSZ 	400	200
%BMT 	PHO	   4.0
%SSD 	1000
%BUP 	0
%BRD 	1000
%FSH 	1
%ASC 	0
%WEG 	45
%GPO 	0
%CPO 	0
%MEA 	6
%PRD 	50,0
%PTS 	742
%STS 	    0.0	  -283.1	   50.0 # Start Scan values in mm ( X , Y , Z )
%EDS 	    0.0	   282.6	   50.0 # End Scan values in mm ( X , Y , Z )
#
#	  X      Y      Z     Dose
#
=	0.0	-283.1	50.0	7.1
=	0.0	-282.3	50.0	7.2
=	0.0	-281.5	50.0	7.2
=	0.0	-280.8	50.0	7.2
=	0.0	-280.1	50.0	7.3
=	0.0	-279.3	50.0	7.3
=	0.0	-278.5	50.0	7.3
=	0.0	-277.7	50.0	7.3
=	0.0	-277.1	50.0	7.4
=	0.0	-276.5	50.0	7.4
=	0.0	-275.7	50.0	7.5
=	0.0	-275.0	50.0	7.5
=	0.0	-274.2	50.0	7.5
=	0.0	-273.6	50.0	7.6
=	0.0	-273.1	50.0	7.6
=	0.0	-272.4	50.0	7.6
=	0.0	-271.7	50.0	7.7
=	0.0	-271.1	50.0	7.7
=	0.0	-270.4	50.0	7.7
=	0.0	-269.9	50.0	7.8
=	0.0	-269.1	50.0	7.8
=	0.0	-268.4	50.0	7.8
=	0.0	-267.6	50.0	7.9
=	0.0	-266.9	50.0	7.9
=	0.0	-266.1	50.0	8.0
=	0.0	-265.5	50.0	8.0
=	0.0	-265.0	50.0	8.0
=	0.0	-264.3	50.0	8.1
=	0.0	-263.6	50.0	8.1
=	0.0	-262.9	50.0	8.2
=	0.0	-262.3	50.0	8.2
=	0.0	-261.6	50.0	8.3
=	0.0	-261.0	50.0	8.3
=	0.0	-260.5	50.0	8.3
=	0.0	-259.8	50.0	8.4
=	0.0	-259.2	50.0	8.4
=	0.0	-258.5	50.0	8.5
=	0.0	-257.8	50.0	8.5
=	0.0	-257.0	50.0	8.6
=	0.0	-256.2	50.0	8.6
=	0.0	-255.5	50.0	8.7
=	0.0	-254.8	50.0	8.7
=	0.0	-254.0	50.0	8.8
=	0.0	-253.3	50.0	8.9
=	0.0	-252.5	50.0	8.9
=	0.0	-251.7	50.0	9.0
=	0.0	-251.0	50.0	9.1
=	0.0	-250.2	50.0	9.1
=	0.0	-249.4	50.0	9.2
=	0.0	-248.7	50.0	9.3
=	0.0	-247.9	50.0	9.3
=	0.0	-247.2	50.0	9.4
=	0.0	-246.4	50.0	9.5
=	0.0	-245.7	50.0	9.6
=	0.0	-244.9	50.0	9.6
=	0.0	-244.2	50.0	9.7
=	0.0	-243.4	50.0	9.8
=	0.0	-242.7	50.0	9.8
=	0.0	-241.9	50.0	10.0
=	0.0	-241.2	50.0	10.0
=	0.0	-240.4	50.0	10.1
=	0.0	-239.7	50.0	10.2
=	0.0	-238.9	50.0	10.3
=	0.0	-238.2	50.0	10.4
=	0.0	-237.4	50.0	10.5
=	0.0	-236.7	50.0	10.6
=	0.0	-235.9	50.0	10.8
=	0.0	-235.2	50.0	10.9
=	0.0	-234.4	50.0	11.0
=	0.0	-233.7	50.0	11.1
=	0.0	-232.9	50.0	11.2
=	0.0	-232.2	50.0	11.3
=	0.0	-231.4	50.0	11.5
=	0.0	-230.7	50.0	11.6
=	0.0	-229.9	50.0	11.7
=	0.0	-229.2	50.0	11.9
=	0.0	-228.4	50.0	12.0
=	0.0	-227.6	50.0	12.2
=	0.0	-226.9	50.0	12.4
=	0.0	-226.1	50.0	12.5
=	0.0	-225.4	50.0	12.7
=	0.0	-224.6	50.0	12.9
=	0.0	-223.8	50.0	13.1
=	0.0	-223.1	50.0	13.3
=	0.0	-222.3	50.0	13.5
=	0.0	-221.6	50.0	13.7
=	0.0	-220.8	50.0	13.9
=	0.0	-220.1	50.0	14.2
=	0.0	-219.3	50.0	14.5
=	0.0	-218.6	50.0	14.9
=	0.0	-217.8	50.0	15.4
=	0.0	-217.1	50.0	16.0
=	0.0	-216.3	50.0	16.9
=	0.0	-215.5	50.0	18.1
=	0.0	-214.7	50.0	19.9
=	0.0	-214.0	50.0	22.0
=	0.0	-213.2	50.0	25.1
=	0.0	-212.5	50.0	28.6
=	0.0	-211.7	50.0	33.4
=	0.0	-210.8	50.0	39.4
=	0.0	-209.7	50.0	48.3
=	0.0	-209.0	50.0	54.2
=	0.0	-208.2	50.0	60.8
=	0.0	-207.5	50.0	66.2
=	0.0	-206.7	50.0	71.6
=	0.0	-206.0	50.0	76.2
=	0.0	-205.2	50.0	80.1
=	0.0	-204.4	50.0	82.7
=	0.0	-203.5	50.0	85.2
=	0.0	-202.6	50.0	86.4
=	0.0	-201.9	50.0	87.2
=	0.0	-201.1	50.0	88.0
=	0.0	-200.1	50.0	88.6
=	0.0	-199.2	50.0	89.0
=	0.0	-197.8	50.0	89.7
=	0.0	-196.6	50.0	90.0
=	0.0	-195.9	50.0	90.2
=	0.0	-195.1	50.0	90.4
=	0.0	-194.3	50.0	90.6
=	0.0	-193.4	50.0	90.8
=	0.0	-192.6	50.0	91.1
=	0.0	-191.9	50.0	91.3
=	0.0	-191.1	50.0	91.4
=	0.0	-190.2	50.0	91.6
=	0.0	-189.4	50.0	91.8
=	0.0	-188.6	50.0	92.0
=	0.0	-187.9	50.0	92.2
=	0.0	-187.1	50.0	92.3
=	0.0	-186.4	50.0	92.4
=	0.0	-185.6	50.0	92.5
=	0.0	-184.9	50.0	92.7
=	0.0	-184.1	50.0	92.9
=	0.0	-183.3	50.0	93.0
=	0.0	-182.6	50.0	93.1
=	0.0	-181.8	50.0	93.2
=	0.0	-181.0	50.0	93.3
=	0.0	-180.2	50.0	93.5
=	0.0	-179.3	50.0	93.5
=	0.0	-178.5	50.0	93.6
=	0.0	-177.8	50.0	93.7
=	0.0	-177.0	50.0	93.9
=	0.0	-176.3	50.0	94.0
=	0.0	-175.5	50.0	94.2
=	0.0	-174.3	50.0	94.4
=	0.0	-173.3	50.0	94.6
=	0.0	-172.5	50.0	94.6
=	0.0	-171.8	50.0	94.7
=	0.0	-170.6	50.0	94.9
=	0.0	-169.3	50.0	95.1
=	0.0	-168.5	50.0	95.1
=	0.0	-167.8	50.0	95.3
=	0.0	-167.0	50.0	95.4
=	0.0	-166.3	50.0	95.5
=	0.0	-165.5	50.0	95.6
=	0.0	-164.8	50.0	95.7
=	0.0	-164.0	50.0	95.8
=	0.0	-163.3	50.0	95.9
=	0.0	-162.5	50.0	96.1
=	0.0	-161.7	50.0	96.1
=	0.0	-160.9	50.0	96.2
=	0.0	-160.2	50.0	96.3
=	0.0	-159.4	50.0	96.4
=	0.0	-158.7	50.0	96.4
=	0.0	-157.9	50.0	96.5
=	0.0	-157.2	50.0	96.5
=	0.0	-156.4	50.0	96.6
=	0.0	-155.7	50.0	96.7
=	0.0	-154.9	50.0	96.8
=	0.0	-154.1	50.0	96.9
=	0.0	-153.4	50.0	97.0
=	0.0	-152.7	50.0	97.0
=	0.0	-151.9	50.0	97.2
=	0.0	-151.1	50.0	97.2
=	0.0	-150.4	50.0	97.2
=	0.0	-149.6	50.0	97.3
=	0.0	-148.8	50.0	97.4
=	0.0	-148.1	50.0	97.4
=	0.0	-147.3	50.0	97.5
=	0.0	-146.6	50.0	97.5
=	0.0	-145.8	50.0	97.6
=	0.0	-145.1	50.0	97.6
=	0.0	-144.3	50.0	97.6
=	0.0	-143.3	50.0	97.7
=	0.0	-142.6	50.0	97.7
=	0.0	-141.8	50.0	97.8
=	0.0	-141.1	50.0	97.8
=	0.0	-140.3	50.0	97.9
=	0.0	-139.6	50.0	98.0
=	0.0	-138.8	50.0	98.0
=	0.0	-138.1	50.0	98.0
=	0.0	-137.3	50.0	98.1
=	0.0	-136.5	50.0	98.1
=	0.0	-135.7	50.0	98.1
=	0.0	-135.0	50.0	98.2
=	0.0	-134.3	50.0	98.3
=	0.0	-133.5	50.0	98.4
=	0.0	-132.8	50.0	98.4
=	0.0	-132.0	50.0	98.4
=	0.0	-131.2	50.0	98.4
=	0.0	-130.6	50.0	98.5
=	0.0	-130.0	50.0	98.5
=	0.0	-129.2	50.0	98.5
=	0.0	-128.5	50.0	98.5
=	0.0	-127.7	50.0	98.5
=	0.0	-127.0	50.0	98.6
=	0.0	-126.2	50.0	98.6
=	0.0	-125.5	50.0	98.6
=	0.0	-124.6	50.0	98.7
=	0.0	-123.9	50.0	98.8
=	0.0	-123.2	50.0	98.8
=	0.0	-122.4	50.0	98.9
=	0.0	-121.6	50.0	98.9
=	0.0	-120.9	50.0	98.9
=	0.0	-120.2	50.0	99.0
=	0.0	-119.4	50.0	99.0
=	0.0	-118.6	50.0	99.0
=	0.0	-117.9	50.0	99.1
=	0.0	-117.1	50.0	99.1
=	0.0	-116.4	50.0	99.1
=	0.0	-115.6	50.0	99.2
=	0.0	-114.3	50.0	99.2
=	0.0	-113.1	50.0	99.4
=	0.0	-112.4	50.0	99.4
=	0.0	-111.6	50.0	99.4
=	0.0	-110.2	50.0	99.5
=	0.0	-108.7	50.0	99.5
=	0.0	-107.4	50.0	99.5
=	0.0	-106.2	50.0	99.6
=	0.0	-104.7	50.0	99.7
=	0.0	-103.1	50.0	99.8
=	0.0	-101.6	50.0	99.9
=	0.0	-100.1	50.0	99.9
=	0.0	-98.6	50.0	100.0
=	0.0	-97.1	50.0	100.0
=	0.0	-95.6	50.0	100.0
=	0.0	-94.1	50.0	100.0
=	0.0	-92.6	50.0	100.1
=	0.0	-91.2	50.0	100.2
=	0.0	-90.0	50.0	100.3
=	0.0	-88.8	50.0	100.3
=	0.0	-88.1	50.0	100.3
=	0.0	-87.3	50.0	100.3
=	0.0	-86.6	50.0	100.3
=	0.0	-85.8	50.0	100.3
=	0.0	-85.0	50.0	100.4
=	0.0	-84.3	50.0	100.4
=	0.0	-83.7	50.0	100.4
=	0.0	-83.0	50.0	100.4
=	0.0	-82.2	50.0	100.5
=	0.0	-81.4	50.0	100.6
=	0.0	-80.8	50.0	100.6
=	0.0	-80.2	50.0	100.6
=	0.0	-79.4	50.0	100.6
=	0.0	-78.8	50.0	100.6
=	0.0	-78.1	50.0	100.6
=	0.0	-77.5	50.0	100.6
=	0.0	-76.8	50.0	100.7
=	0.0	-76.1	50.0	100.7
=	0.0	-75.4	50.0	100.7
=	0.0	-74.6	50.0	100.7
=	0.0	-73.7	50.0	100.7
=	0.0	-72.5	50.0	100.7
=	0.0	-71.4	50.0	100.8
=	0.0	-69.9	50.0	100.8
=	0.0	-69.0	50.0	100.8
=	0.0	-68.2	50.0	100.8
=	0.0	-67.4	50.0	100.8
=	0.0	-66.6	50.0	100.8
=	0.0	-65.9	50.0	100.8
=	0.0	-65.3	50.0	100.8
=	0.0	-64.6	50.0	100.9
=	0.0	-63.9	50.0	100.9
=	0.0	-63.1	50.0	100.9
=	0.0	-62.4	50.0	101.0
=	0.0	-61.6	50.0	101.0
=	0.0	-60.9	50.0	101.0
=	0.0	-60.4	50.0	101.0
=	0.0	-59.9	50.0	101.0
=	0.0	-59.4	50.0	101.0
=	0.0	-58.9	50.0	101.0
=	0.0	-58.4	50.0	101.0
=	0.0	-57.8	50.0	101.0
=	0.0	-57.2	50.0	101.1
=	0.0	-56.7	50.0	101.1
=	0.0	-56.2	50.0	101.1
=	0.0	-55.7	50.0	101.1
=	0.0	-55.2	50.0	101.1
=	0.0	-54.7	50.0	101.1
=	0.0	-54.2	50.0	101.1
=	0.0	-53.7	50.0	101.0
=	0.0	-53.2	50.0	101.1
=	0.0	-52.6	50.0	101.1
=	0.0	-52.1	50.0	101.1
=	0.0	-51.6	50.0	101.1
=	0.0	-50.9	50.0	101.1
=	0.0	-50.1	50.0	101.1
=	0.0	-49.5	50.0	101.1
=	0.0	-48.9	50.0	101.1
=	0.0	-48.1	50.0	101.1
=	0.0	-47.4	50.0	101.0
=	0.0	-46.6	50.0	101.0
=	0.0	-45.8	50.0	101.0
=	0.0	-45.1	50.0	100.9
=	0.0	-44.3	50.0	100.9
=	0.0	-43.5	50.0	100.9
=	0.0	-42.8	50.0	100.9
=	0.0	-42.1	50.0	100.9
=	0.0	-41.3	50.0	100.9
=	0.0	-40.5	50.0	100.9
=	0.0	-39.8	50.0	100.9
=	0.0	-39.0	50.0	100.9
=	0.0	-38.3	50.0	100.9
=	0.0	-37.5	50.0	100.9
=	0.0	-36.8	50.0	100.9
=	0.0	-36.0	50.0	100.9
=	0.0	-35.2	50.0	100.9
=	0.0	-34.5	50.0	100.8
=	0.0	-33.7	50.0	100.8
=	0.0	-33.0	50.0	100.8
=	0.0	-32.2	50.0	100.8
=	0.0	-31.5	50.0	100.8
=	0.0	-30.7	50.0	100.8
=	0.0	-29.9	50.0	100.8
=	0.0	-29.2	50.0	100.8
=	0.0	-28.4	50.0	100.8
=	0.0	-27.7	50.0	100.8
=	0.0	-26.9	50.0	100.7
=	0.0	-26.1	50.0	100.7
=	0.0	-25.4	50.0	100.6
=	0.0	-24.6	50.0	100.6
=	0.0	-23.9	50.0	100.6
=	0.0	-23.1	50.0	100.5
=	0.0	-22.5	50.0	100.5
=	0.0	-21.9	50.0	100.5
=	0.0	-21.1	50.0	100.5
=	0.0	-20.3	50.0	100.5
=	0.0	-19.6	50.0	100.5
=	0.0	-18.8	50.0	100.5
=	0.0	-18.1	50.0	100.5
=	0.0	-17.6	50.0	100.5
=	0.0	-17.1	50.0	100.4
=	0.0	-16.6	50.0	100.4
=	0.0	-16.1	50.0	100.4
=	0.0	-15.6	50.0	100.4
=	0.0	-15.1	50.0	100.4
=	0.0	-14.6	50.0	100.4
=	0.0	-14.1	50.0	100.4
=	0.0	-13.6	50.0	100.4
=	0.0	-13.1	50.0	100.4
=	0.0	-12.6	50.0	100.4
=	0.0	-12.1	50.0	100.3
=	0.0	-11.5	50.0	100.3
=	0.0	-10.9	50.0	100.3
=	0.0	-10.4	50.0	100.3
=	0.0	-9.9	50.0	100.3
=	0.0	-9.4	50.0	100.3
=	0.0	-8.9	50.0	100.2
=	0.0	-8.4	50.0	100.2
=	0.0	-7.9	50.0	100.2
=	0.0	-7.3	50.0	100.1
=	0.0	-6.8	50.0	100.1
=	0.0	-6.1	50.0	100.1
=	0.0	-5.5	50.0	100.1
=	0.0	-5.0	50.0	100.0
=	0.0	-4.3	50.0	100.0
=	0.0	-3.6	50.0	100.0
=	0.0	-2.8	50.0	100.1
=	0.0	-2.3	50.0	100.1
=	0.0	-1.5	50.0	100.0
=	0.0	-0.9	50.0	100.0
=	0.0	-0.4	50.0	100.0
=	0.0	0.1	50.0	100.0
=	0.0	0.6	50.0	100.0
=	0.0	1.1	50.0	100.0
=	0.0	1.8	50.0	100.0
=	0.0	2.5	50.0	100.1
=	0.0	3.0	50.0	100.1
=	0.0	3.8	50.0	100.0
=	0.0	4.6	50.0	100.0
=	0.0	5.1	50.0	100.1
=	0.0	5.7	50.0	100.1
=	0.0	6.3	50.0	100.1
=	0.0	7.0	50.0	100.1
=	0.0	7.5	50.0	100.1
=	0.0	8.0	50.0	100.2
=	0.0	8.6	50.0	100.2
=	0.0	9.0	50.0	100.2
=	0.0	9.5	50.0	100.3
=	0.0	10.0	50.0	100.3
=	0.0	10.5	50.0	100.3
=	0.0	11.1	50.0	100.3
=	0.0	11.7	50.0	100.3
=	0.0	12.2	50.0	100.3
=	0.0	12.7	50.0	100.4
=	0.0	13.2	50.0	100.4
=	0.0	13.7	50.0	100.4
=	0.0	14.2	50.0	100.4
=	0.0	14.7	50.0	100.4
=	0.0	15.3	50.0	100.4
=	0.0	15.8	50.0	100.4
=	0.0	16.3	50.0	100.4
=	0.0	16.8	50.0	100.4
=	0.0	17.3	50.0	100.4
=	0.0	17.8	50.0	100.5
=	0.0	18.3	50.0	100.5
=	0.0	19.1	50.0	100.5
=	0.0	19.8	50.0	100.5
=	0.0	20.6	50.0	100.5
=	0.0	21.3	50.0	100.5
=	0.0	22.1	50.0	100.5
=	0.0	22.7	50.0	100.5
=	0.0	23.4	50.0	100.5
=	0.0	24.1	50.0	100.6
=	0.0	24.9	50.0	100.6
=	0.0	25.6	50.0	100.6
=	0.0	26.4	50.0	100.7
=	0.0	27.2	50.0	100.7
=	0.0	27.9	50.0	100.8
=	0.0	28.7	50.0	100.8
=	0.0	29.4	50.0	100.8
=	0.0	30.2	50.0	100.8
=	0.0	30.9	50.0	100.8
=	0.0	31.7	50.0	100.8
=	0.0	32.5	50.0	100.8
=	0.0	33.2	50.0	100.8
=	0.0	34.0	50.0	100.8
=	0.0	34.7	50.0	100.8
=	0.0	35.5	50.0	100.9
=	0.0	36.3	50.0	100.9
=	0.0	37.0	50.0	100.9
=	0.0	37.8	50.0	100.9
=	0.0	38.5	50.0	100.9
=	0.0	39.3	50.0	100.9
=	0.0	40.0	50.0	100.9
=	0.0	40.8	50.0	100.9
=	0.0	41.6	50.0	100.9
=	0.0	42.3	50.0	100.9
=	0.0	43.1	50.0	100.9
=	0.0	43.8	50.0	100.9
=	0.0	44.6	50.0	100.9
=	0.0	45.3	50.0	100.9
=	0.0	46.1	50.0	101.0
=	0.0	46.9	50.0	101.0
=	0.0	47.6	50.0	101.0
=	0.0	48.3	50.0	101.1
=	0.0	49.1	50.0	101.1
=	0.0	49.6	50.0	101.1
=	0.0	50.4	50.0	101.1
=	0.0	51.1	50.0	101.1
=	0.0	51.8	50.0	101.1
=	0.0	52.3	50.0	101.1
=	0.0	52.8	50.0	101.1
=	0.0	53.3	50.0	101.1
=	0.0	53.8	50.0	101.0
=	0.0	54.3	50.0	101.1
=	0.0	54.8	50.0	101.1
=	0.0	55.4	50.0	101.1
=	0.0	55.9	50.0	101.1
=	0.0	56.4	50.0	101.1
=	0.0	56.9	50.0	101.1
=	0.0	57.4	50.0	101.1
=	0.0	58.1	50.0	101.0
=	0.0	58.6	50.0	101.0
=	0.0	59.1	50.0	101.0
=	0.0	59.6	50.0	101.0
=	0.0	60.1	50.0	101.0
=	0.0	60.6	50.0	101.0
=	0.0	61.1	50.0	101.0
=	0.0	61.9	50.0	101.0
=	0.0	62.6	50.0	100.9
=	0.0	63.4	50.0	100.9
=	0.0	64.1	50.0	100.9
=	0.0	64.9	50.0	100.9
=	0.0	65.5	50.0	100.8
=	0.0	66.2	50.0	100.8
=	0.0	66.9	50.0	100.8
=	0.0	67.7	50.0	100.8
=	0.0	68.5	50.0	100.8
=	0.0	69.2	50.0	100.8
=	0.0	70.4	50.0	100.9
=	0.0	71.7	50.0	100.8
=	0.0	72.9	50.0	100.7
=	0.0	74.0	50.0	100.7
=	0.0	74.8	50.0	100.7
=	0.0	75.7	50.0	100.7
=	0.0	76.3	50.0	100.7
=	0.0	77.1	50.0	100.7
=	0.0	77.6	50.0	100.6
=	0.0	78.3	50.0	100.6
=	0.0	79.0	50.0	100.6
=	0.0	79.7	50.0	100.6
=	0.0	80.4	50.0	100.6
=	0.0	81.0	50.0	100.6
=	0.0	81.7	50.0	100.5
=	0.0	82.5	50.0	100.5
=	0.0	83.3	50.0	100.4
=	0.0	83.9	50.0	100.4
=	0.0	84.5	50.0	100.4
=	0.0	85.3	50.0	100.4
=	0.0	86.1	50.0	100.3
=	0.0	86.8	50.0	100.3
=	0.0	87.6	50.0	100.3
=	0.0	88.3	50.0	100.3
=	0.0	89.1	50.0	100.3
=	0.0	90.5	50.0	100.3
=	0.0	91.5	50.0	100.2
=	0.0	93.1	50.0	100.1
=	0.0	94.6	50.0	100.0
=	0.0	96.1	50.0	100.0
=	0.0	97.6	50.0	100.0
=	0.0	99.1	50.0	99.9
=	0.0	100.6	50.0	99.9
=	0.0	102.1	50.0	99.8
=	0.0	103.6	50.0	99.7
=	0.0	105.2	50.0	99.7
=	0.0	106.7	50.0	99.5
=	0.0	107.7	50.0	99.5
=	0.0	109.2	50.0	99.5
=	0.0	110.7	50.0	99.4
=	0.0	111.9	50.0	99.4
=	0.0	112.6	50.0	99.4
=	0.0	113.4	50.0	99.3
=	0.0	114.8	50.0	99.2
=	0.0	115.9	50.0	99.2
=	0.0	116.6	50.0	99.1
=	0.0	117.4	50.0	99.1
=	0.0	118.1	50.0	99.1
=	0.0	118.9	50.0	99.0
=	0.0	119.6	50.0	99.0
=	0.0	120.4	50.0	98.9
=	0.0	121.1	50.0	98.9
=	0.0	121.9	50.0	98.9
=	0.0	122.7	50.0	98.9
=	0.0	123.5	50.0	98.8
=	0.0	124.2	50.0	98.8
=	0.0	124.9	50.0	98.7
=	0.0	125.7	50.0	98.6
=	0.0	126.5	50.0	98.6
=	0.0	127.2	50.0	98.6
=	0.0	128.0	50.0	98.5
=	0.0	128.7	50.0	98.5
=	0.0	129.5	50.0	98.5
=	0.0	130.2	50.0	98.5
=	0.0	130.8	50.0	98.5
=	0.0	131.5	50.0	98.4
=	0.0	132.3	50.0	98.4
=	0.0	133.0	50.0	98.4
=	0.0	133.8	50.0	98.4
=	0.0	134.5	50.0	98.3
=	0.0	135.2	50.0	98.2
=	0.0	136.0	50.0	98.1
=	0.0	136.7	50.0	98.1
=	0.0	137.5	50.0	98.1
=	0.0	138.3	50.0	98.0
=	0.0	139.1	50.0	98.0
=	0.0	139.8	50.0	97.9
=	0.0	140.6	50.0	97.9
=	0.0	141.3	50.0	97.8
=	0.0	142.1	50.0	97.8
=	0.0	142.8	50.0	97.7
=	0.0	143.6	50.0	97.7
=	0.0	144.6	50.0	97.6
=	0.0	145.3	50.0	97.6
=	0.0	146.1	50.0	97.6
=	0.0	146.8	50.0	97.5
=	0.0	147.6	50.0	97.4
=	0.0	148.3	50.0	97.4
=	0.0	149.1	50.0	97.4
=	0.0	149.8	50.0	97.3
=	0.0	150.6	50.0	97.2
=	0.0	151.4	50.0	97.2
=	0.0	152.1	50.0	97.1
=	0.0	152.9	50.0	97.0
=	0.0	153.7	50.0	96.9
=	0.0	154.4	50.0	96.9
