:MSR 	5	 # No. of measurement in file
:SYS BDS 0   # Beam Data Scanner System
#
# RFA300 ASCII Measurement Dump ( BDS format )
#
# Measurement number 	1
#
%VNR 1.0
%MOD 	RAT
%TYP 	SCN
%SCN 	PRO
%FLD 	ION
%DAT 	02-03-2012
%TIM 	12:00:00
%FSZ 	400	200
%BMT 	PHO	   4.0
%SSD 	1000
%BUP 	0
%BRD 	1000
%FSH 	1
%ASC 	0
%WEG 	45
%GPO 	0
%CPO 	0
%MEA 	6
%PRD 	12,0
%PTS 	719
%STS 	    -272.2	  0.0	   12.0 # Start Scan values in mm ( X , Y , Z )
%EDS 	    271.8	   0.0	   12.0 # End Scan values in mm ( X , Y , Z )
#
#	  X      Y      Z     Dose
#
=	-272.2	0.0	12.0	6.9
=	-271.6	0.0	12.0	6.9
=	-270.7	0.0	12.0	6.9
=	-270.0	0.0	12.0	7.0
=	-269.5	0.0	12.0	7.0
=	-269.1	0.0	12.0	7.0
=	-268.4	0.0	12.0	7.0
=	-267.8	0.0	12.0	7.0
=	-267.0	0.0	12.0	7.1
=	-266.3	0.0	12.0	7.1
=	-265.5	0.0	12.0	7.1
=	-264.7	0.0	12.0	7.1
=	-264.1	0.0	12.0	7.1
=	-263.5	0.0	12.0	7.2
=	-262.8	0.0	12.0	7.2
=	-261.9	0.0	12.0	7.2
=	-261.2	0.0	12.0	7.3
=	-260.4	0.0	12.0	7.3
=	-259.6	0.0	12.0	7.3
=	-258.9	0.0	12.0	7.3
=	-258.1	0.0	12.0	7.4
=	-257.3	0.0	12.0	7.4
=	-256.2	0.0	12.0	7.5
=	-254.9	0.0	12.0	7.5
=	-254.1	0.0	12.0	7.6
=	-253.3	0.0	12.0	7.6
=	-252.4	0.0	12.0	7.7
=	-251.7	0.0	12.0	7.7
=	-250.9	0.0	12.0	7.7
=	-250.2	0.0	12.0	7.8
=	-249.4	0.0	12.0	7.8
=	-248.7	0.0	12.0	7.8
=	-247.9	0.0	12.0	7.9
=	-247.2	0.0	12.0	7.9
=	-246.4	0.0	12.0	8.0
=	-245.7	0.0	12.0	8.0
=	-244.9	0.0	12.0	8.1
=	-244.2	0.0	12.0	8.1
=	-243.4	0.0	12.0	8.1
=	-242.6	0.0	12.0	8.2
=	-242.1	0.0	12.0	8.2
=	-241.5	0.0	12.0	8.3
=	-240.8	0.0	12.0	8.3
=	-240.0	0.0	12.0	8.4
=	-239.3	0.0	12.0	8.4
=	-238.5	0.0	12.0	8.5
=	-237.8	0.0	12.0	8.5
=	-237.0	0.0	12.0	8.5
=	-236.3	0.0	12.0	8.6
=	-235.5	0.0	12.0	8.6
=	-234.8	0.0	12.0	8.7
=	-234.0	0.0	12.0	8.7
=	-233.3	0.0	12.0	8.8
=	-232.5	0.0	12.0	8.9
=	-231.8	0.0	12.0	8.9
=	-231.0	0.0	12.0	9.0
=	-230.2	0.0	12.0	9.1
=	-229.4	0.0	12.0	9.1
=	-228.7	0.0	12.0	9.2
=	-227.9	0.0	12.0	9.3
=	-227.2	0.0	12.0	9.4
=	-226.5	0.0	12.0	9.4
=	-225.7	0.0	12.0	9.5
=	-224.9	0.0	12.0	9.6
=	-224.2	0.0	12.0	9.7
=	-223.4	0.0	12.0	9.9
=	-222.7	0.0	12.0	9.9
=	-222.0	0.0	12.0	10.0
=	-221.2	0.0	12.0	10.2
=	-220.5	0.0	12.0	10.3
=	-219.7	0.0	12.0	10.3
=	-219.0	0.0	12.0	10.4
=	-218.2	0.0	12.0	10.5
=	-217.4	0.0	12.0	10.6
=	-216.7	0.0	12.0	10.8
=	-215.9	0.0	12.0	10.9
=	-215.2	0.0	12.0	11.1
=	-214.4	0.0	12.0	11.2
=	-213.7	0.0	12.0	11.3
=	-212.9	0.0	12.0	11.5
=	-212.2	0.0	12.0	11.7
=	-211.4	0.0	12.0	12.0
=	-210.6	0.0	12.0	12.3
=	-209.9	0.0	12.0	12.8
=	-209.1	0.0	12.0	13.4
=	-208.4	0.0	12.0	14.3
=	-207.6	0.0	12.0	15.8
=	-206.9	0.0	12.0	17.7
=	-206.1	0.0	12.0	20.6
=	-205.4	0.0	12.0	24.1
=	-204.6	0.0	12.0	28.8
=	-203.9	0.0	12.0	33.9
=	-203.1	0.0	12.0	40.4
=	-202.4	0.0	12.0	46.9
=	-201.6	0.0	12.0	54.2
=	-200.9	0.0	12.0	61.1
=	-200.1	0.0	12.0	68.1
=	-199.4	0.0	12.0	74.0
=	-198.6	0.0	12.0	79.4
=	-197.9	0.0	12.0	83.4
=	-197.1	0.0	12.0	86.3
=	-196.4	0.0	12.0	88.2
=	-195.6	0.0	12.0	89.8
=	-194.9	0.0	12.0	90.6
=	-194.1	0.0	12.0	91.2
=	-193.3	0.0	12.0	91.6
=	-192.6	0.0	12.0	91.9
=	-191.8	0.0	12.0	92.0
=	-191.1	0.0	12.0	92.2
=	-190.4	0.0	12.0	92.5
=	-189.6	0.0	12.0	92.6
=	-188.9	0.0	12.0	92.7
=	-188.1	0.0	12.0	92.9
=	-187.2	0.0	12.0	93.1
=	-186.3	0.0	12.0	93.2
=	-185.5	0.0	12.0	93.3
=	-184.8	0.0	12.0	93.4
=	-184.0	0.0	12.0	93.5
=	-183.3	0.0	12.0	93.6
=	-182.5	0.0	12.0	93.7
=	-181.8	0.0	12.0	93.9
=	-181.0	0.0	12.0	94.0
=	-180.3	0.0	12.0	94.1
=	-179.5	0.0	12.0	94.2
=	-178.7	0.0	12.0	94.3
=	-178.0	0.0	12.0	94.3
=	-177.2	0.0	12.0	94.4
=	-176.5	0.0	12.0	94.6
=	-175.7	0.0	12.0	94.7
=	-175.0	0.0	12.0	94.8
=	-174.2	0.0	12.0	94.9
=	-173.5	0.0	12.0	95.0
=	-172.7	0.0	12.0	95.0
=	-171.9	0.0	12.0	95.1
=	-171.2	0.0	12.0	95.2
=	-170.4	0.0	12.0	95.3
=	-169.7	0.0	12.0	95.4
=	-168.9	0.0	12.0	95.5
=	-168.2	0.0	12.0	95.6
=	-167.4	0.0	12.0	95.7
=	-166.7	0.0	12.0	95.7
=	-165.9	0.0	12.0	95.8
=	-164.9	0.0	12.0	96.0
=	-164.2	0.0	12.0	96.0
=	-163.4	0.0	12.0	96.1
=	-162.7	0.0	12.0	96.2
=	-161.9	0.0	12.0	96.4
=	-161.2	0.0	12.0	96.5
=	-160.4	0.0	12.0	96.6
=	-159.8	0.0	12.0	96.7
=	-159.1	0.0	12.0	96.7
=	-158.4	0.0	12.0	96.8
=	-157.7	0.0	12.0	96.8
=	-156.9	0.0	12.0	96.9
=	-156.1	0.0	12.0	96.9
=	-155.4	0.0	12.0	97.0
=	-154.6	0.0	12.0	97.2
=	-153.9	0.0	12.0	97.2
=	-153.1	0.0	12.0	97.3
=	-152.3	0.0	12.0	97.3
=	-151.6	0.0	12.0	97.4
=	-150.8	0.0	12.0	97.5
=	-150.1	0.0	12.0	97.6
=	-149.3	0.0	12.0	97.6
=	-148.6	0.0	12.0	97.7
=	-147.8	0.0	12.0	97.8
=	-147.1	0.0	12.0	97.8
=	-146.3	0.0	12.0	97.9
=	-145.6	0.0	12.0	97.9
=	-144.8	0.0	12.0	98.0
=	-144.1	0.0	12.0	98.0
=	-143.3	0.0	12.0	98.1
=	-142.5	0.0	12.0	98.2
=	-141.8	0.0	12.0	98.2
=	-141.0	0.0	12.0	98.3
=	-140.3	0.0	12.0	98.3
=	-139.5	0.0	12.0	98.3
=	-138.8	0.0	12.0	98.3
=	-138.0	0.0	12.0	98.4
=	-137.2	0.0	12.0	98.4
=	-136.5	0.0	12.0	98.4
=	-136.0	0.0	12.0	98.4
=	-135.2	0.0	12.0	98.5
=	-134.5	0.0	12.0	98.5
=	-133.7	0.0	12.0	98.5
=	-133.1	0.0	12.0	98.6
=	-132.5	0.0	12.0	98.6
=	-131.7	0.0	12.0	98.7
=	-131.0	0.0	12.0	98.7
=	-130.2	0.0	12.0	98.8
=	-129.4	0.0	12.0	98.8
=	-128.7	0.0	12.0	98.8
=	-127.9	0.0	12.0	98.8
=	-127.2	0.0	12.0	98.8
=	-126.4	0.0	12.0	98.8
=	-125.7	0.0	12.0	98.9
=	-124.9	0.0	12.0	98.9
=	-124.2	0.0	12.0	99.0
=	-123.4	0.0	12.0	99.0
=	-122.6	0.0	12.0	99.0
=	-121.9	0.0	12.0	99.1
=	-121.1	0.0	12.0	99.1
=	-120.4	0.0	12.0	99.2
=	-119.6	0.0	12.0	99.3
=	-118.9	0.0	12.0	99.3
=	-118.1	0.0	12.0	99.3
=	-117.4	0.0	12.0	99.4
=	-116.6	0.0	12.0	99.4
=	-115.8	0.0	12.0	99.5
=	-115.1	0.0	12.0	99.5
=	-114.3	0.0	12.0	99.5
=	-113.6	0.0	12.0	99.6
=	-112.8	0.0	12.0	99.6
=	-112.1	0.0	12.0	99.6
=	-111.6	0.0	12.0	99.7
=	-111.0	0.0	12.0	99.7
=	-110.3	0.0	12.0	99.7
=	-109.5	0.0	12.0	99.7
=	-108.8	0.0	12.0	99.8
=	-108.0	0.0	12.0	99.8
=	-107.3	0.0	12.0	99.9
=	-106.8	0.0	12.0	99.9
=	-106.1	0.0	12.0	99.9
=	-104.9	0.0	12.0	100.0
=	-103.9	0.0	12.0	100.0
=	-102.9	0.0	12.0	100.0
=	-101.4	0.0	12.0	100.1
=	-100.2	0.0	12.0	100.1
=	-99.3	0.0	12.0	100.1
=	-98.3	0.0	12.0	100.2
=	-97.1	0.0	12.0	100.2
=	-96.4	0.0	12.0	100.2
=	-95.6	0.0	12.0	100.2
=	-94.9	0.0	12.0	100.3
=	-93.9	0.0	12.0	100.3
=	-93.1	0.0	12.0	100.3
=	-92.4	0.0	12.0	100.3
=	-91.6	0.0	12.0	100.3
=	-90.6	0.0	12.0	100.3
=	-89.9	0.0	12.0	100.3
=	-89.1	0.0	12.0	100.4
=	-88.3	0.0	12.0	100.4
=	-87.5	0.0	12.0	100.4
=	-86.8	0.0	12.0	100.5
=	-85.7	0.0	12.0	100.5
=	-84.8	0.0	12.0	100.5
=	-83.9	0.0	12.0	100.6
=	-82.7	0.0	12.0	100.6
=	-81.3	0.0	12.0	100.6
=	-80.5	0.0	12.0	100.6
=	-79.3	0.0	12.0	100.6
=	-78.5	0.0	12.0	100.7
=	-77.7	0.0	12.0	100.7
=	-77.0	0.0	12.0	100.7
=	-76.2	0.0	12.0	100.7
=	-75.4	0.0	12.0	100.8
=	-74.7	0.0	12.0	100.8
=	-73.9	0.0	12.0	100.8
=	-73.2	0.0	12.0	100.8
=	-72.4	0.0	12.0	100.8
=	-71.7	0.0	12.0	100.9
=	-70.9	0.0	12.0	101.0
=	-70.2	0.0	12.0	101.0
=	-69.4	0.0	12.0	101.0
=	-68.7	0.0	12.0	101.0
=	-67.9	0.0	12.0	101.0
=	-67.2	0.0	12.0	101.0
=	-66.4	0.0	12.0	101.0
=	-65.6	0.0	12.0	101.0
=	-64.9	0.0	12.0	101.0
=	-64.1	0.0	12.0	101.1
=	-63.5	0.0	12.0	101.1
=	-62.9	0.0	12.0	101.1
=	-62.3	0.0	12.0	101.1
=	-61.5	0.0	12.0	101.1
=	-60.7	0.0	12.0	101.1
=	-59.9	0.0	12.0	101.2
=	-59.2	0.0	12.0	101.2
=	-58.4	0.0	12.0	101.2
=	-57.7	0.0	12.0	101.2
=	-56.9	0.0	12.0	101.2
=	-56.2	0.0	12.0	101.2
=	-55.4	0.0	12.0	101.2
=	-54.6	0.0	12.0	101.2
=	-53.9	0.0	12.0	101.2
=	-53.1	0.0	12.0	101.2
=	-52.3	0.0	12.0	101.2
=	-51.6	0.0	12.0	101.2
=	-50.8	0.0	12.0	101.2
=	-50.1	0.0	12.0	101.2
=	-49.3	0.0	12.0	101.2
=	-48.6	0.0	12.0	101.2
=	-47.8	0.0	12.0	101.2
=	-47.1	0.0	12.0	101.2
=	-46.6	0.0	12.0	101.2
=	-45.8	0.0	12.0	101.2
=	-45.1	0.0	12.0	101.2
=	-44.2	0.0	12.0	101.2
=	-43.5	0.0	12.0	101.2
=	-42.7	0.0	12.0	101.2
=	-42.0	0.0	12.0	101.2
=	-41.2	0.0	12.0	101.1
=	-40.5	0.0	12.0	101.1
=	-39.7	0.0	12.0	101.1
=	-39.0	0.0	12.0	101.0
=	-38.2	0.0	12.0	101.0
=	-37.5	0.0	12.0	101.0
=	-36.7	0.0	12.0	101.0
=	-36.0	0.0	12.0	100.9
=	-35.2	0.0	12.0	100.9
=	-34.5	0.0	12.0	100.9
=	-33.7	0.0	12.0	100.9
=	-33.0	0.0	12.0	100.9
=	-32.2	0.0	12.0	100.9
=	-31.4	0.0	12.0	100.9
=	-30.7	0.0	12.0	100.9
=	-29.9	0.0	12.0	100.8
=	-29.1	0.0	12.0	100.8
=	-28.4	0.0	12.0	100.7
=	-27.6	0.0	12.0	100.7
=	-26.9	0.0	12.0	100.7
=	-26.4	0.0	12.0	100.7
=	-25.7	0.0	12.0	100.7
=	-25.2	0.0	12.0	100.7
=	-24.6	0.0	12.0	100.7
=	-23.9	0.0	12.0	100.6
=	-23.1	0.0	12.0	100.6
=	-22.4	0.0	12.0	100.6
=	-21.9	0.0	12.0	100.6
=	-21.4	0.0	12.0	100.6
=	-20.6	0.0	12.0	100.6
=	-19.9	0.0	12.0	100.5
=	-19.1	0.0	12.0	100.5
=	-18.4	0.0	12.0	100.5
=	-17.6	0.0	12.0	100.5
=	-16.8	0.0	12.0	100.5
=	-16.1	0.0	12.0	100.4
=	-15.5	0.0	12.0	100.4
=	-14.8	0.0	12.0	100.4
=	-14.0	0.0	12.0	100.4
=	-13.3	0.0	12.0	100.4
=	-12.5	0.0	12.0	100.3
=	-11.8	0.0	12.0	100.2
=	-11.0	0.0	12.0	100.2
=	-10.3	0.0	12.0	100.2
=	-9.5	0.0	12.0	100.2
=	-8.8	0.0	12.0	100.2
=	-8.1	0.0	12.0	100.1
=	-7.5	0.0	12.0	100.1
=	-7.0	0.0	12.0	100.1
=	-6.2	0.0	12.0	100.1
=	-5.5	0.0	12.0	100.0
=	-4.7	0.0	12.0	100.0
=	-4.0	0.0	12.0	100.0
=	-3.2	0.0	12.0	100.0
=	-2.5	0.0	12.0	100.0
=	-1.8	0.0	12.0	100.0
=	-1.3	0.0	12.0	100.0
=	-0.7	0.0	12.0	100.0
=	0.0	0.0	12.0	100.0
=	0.1	0.0	12.0	100.0
=	1.0	0.0	12.0	100.0
=	1.5	0.0	12.0	100.0
=	2.0	0.0	12.0	100.0
=	2.7	0.0	12.0	100.0
=	3.5	0.0	12.0	100.0
=	4.2	0.0	12.0	100.0
=	5.0	0.0	12.0	100.0
=	5.7	0.0	12.0	100.0
=	6.5	0.0	12.0	100.1
=	7.2	0.0	12.0	100.1
=	7.7	0.0	12.0	100.1
=	8.3	0.0	12.0	100.1
=	9.0	0.0	12.0	100.2
=	9.8	0.0	12.0	100.2
=	10.5	0.0	12.0	100.2
=	11.3	0.0	12.0	100.2
=	12.0	0.0	12.0	100.3
=	12.8	0.0	12.0	100.3
=	13.5	0.0	12.0	100.4
=	14.3	0.0	12.0	100.4
=	15.0	0.0	12.0	100.4
=	15.8	0.0	12.0	100.4
=	16.3	0.0	12.0	100.4
=	17.1	0.0	12.0	100.5
=	17.8	0.0	12.0	100.5
=	18.6	0.0	12.0	100.5
=	19.4	0.0	12.0	100.5
=	20.1	0.0	12.0	100.5
=	20.9	0.0	12.0	100.6
=	21.5	0.0	12.0	100.6
=	22.0	0.0	12.0	100.6
=	22.6	0.0	12.0	100.6
=	23.4	0.0	12.0	100.6
=	24.1	0.0	12.0	100.7
=	24.9	0.0	12.0	100.7
=	25.4	0.0	12.0	100.7
=	25.9	0.0	12.0	100.7
=	26.5	0.0	12.0	100.7
=	27.1	0.0	12.0	100.7
=	27.9	0.0	12.0	100.7
=	28.6	0.0	12.0	100.8
=	29.4	0.0	12.0	100.8
=	30.1	0.0	12.0	100.9
=	30.9	0.0	12.0	100.9
=	31.7	0.0	12.0	100.9
=	32.4	0.0	12.0	100.9
=	33.2	0.0	12.0	100.9
=	34.0	0.0	12.0	100.9
=	34.7	0.0	12.0	100.9
=	35.5	0.0	12.0	100.9
=	36.2	0.0	12.0	101.0
=	37.0	0.0	12.0	101.0
=	37.7	0.0	12.0	101.0
=	38.5	0.0	12.0	101.0
=	39.2	0.0	12.0	101.0
=	40.0	0.0	12.0	101.1
=	40.7	0.0	12.0	101.1
=	41.5	0.0	12.0	101.1
=	42.3	0.0	12.0	101.2
=	43.0	0.0	12.0	101.2
=	43.8	0.0	12.0	101.2
=	44.5	0.0	12.0	101.2
=	45.3	0.0	12.0	101.2
=	46.1	0.0	12.0	101.2
=	46.8	0.0	12.0	101.2
=	47.3	0.0	12.0	101.2
=	48.1	0.0	12.0	101.2
=	48.8	0.0	12.0	101.2
=	49.6	0.0	12.0	101.2
=	50.3	0.0	12.0	101.2
=	51.1	0.0	12.0	101.2
=	51.8	0.0	12.0	101.2
=	52.6	0.0	12.0	101.2
=	53.4	0.0	12.0	101.2
=	54.1	0.0	12.0	101.2
=	54.9	0.0	12.0	101.2
=	55.7	0.0	12.0	101.2
=	56.4	0.0	12.0	101.2
=	57.2	0.0	12.0	101.2
=	57.9	0.0	12.0	101.2
=	58.7	0.0	12.0	101.2
=	59.4	0.0	12.0	101.2
=	60.2	0.0	12.0	101.1
=	61.0	0.0	12.0	101.1
=	61.8	0.0	12.0	101.1
=	62.5	0.0	12.0	101.1
=	63.1	0.0	12.0	101.1
=	63.6	0.0	12.0	101.1
=	64.3	0.0	12.0	101.1
=	65.1	0.0	12.0	101.0
=	65.9	0.0	12.0	101.0
=	66.6	0.0	12.0	101.0
=	67.4	0.0	12.0	101.0
=	68.2	0.0	12.0	101.0
=	68.9	0.0	12.0	101.0
=	69.7	0.0	12.0	101.0
=	70.4	0.0	12.0	101.0
=	71.2	0.0	12.0	101.0
=	71.9	0.0	12.0	100.9
=	72.7	0.0	12.0	100.8
=	73.4	0.0	12.0	100.8
=	74.2	0.0	12.0	100.8
=	74.9	0.0	12.0	100.8
=	75.7	0.0	12.0	100.8
=	76.5	0.0	12.0	100.7
=	77.2	0.0	12.0	100.7
=	78.0	0.0	12.0	100.7
=	78.8	0.0	12.0	100.7
=	79.7	0.0	12.0	100.6
=	80.8	0.0	12.0	100.6
=	81.7	0.0	12.0	100.6
=	83.2	0.0	12.0	100.6
=	84.2	0.0	12.0	100.6
=	85.1	0.0	12.0	100.5
=	86.2	0.0	12.0	100.5
=	87.1	0.0	12.0	100.5
=	87.8	0.0	12.0	100.4
=	88.6	0.0	12.0	100.4
=	89.4	0.0	12.0	100.3
=	90.1	0.0	12.0	100.3
=	90.9	0.0	12.0	100.3
=	91.9	0.0	12.0	100.3
=	92.6	0.0	12.0	100.3
=	93.4	0.0	12.0	100.3
=	94.3	0.0	12.0	100.3
=	95.1	0.0	12.0	100.3
=	95.9	0.0	12.0	100.2
=	96.7	0.0	12.0	100.2
=	97.5	0.0	12.0	100.2
=	98.7	0.0	12.0	100.1
=	99.7	0.0	12.0	100.1
=	100.5	0.0	12.0	100.1
=	101.9	0.0	12.0	100.0
=	103.2	0.0	12.0	100.0
=	104.2	0.0	12.0	100.0
=	105.4	0.0	12.0	100.0
=	106.3	0.0	12.0	99.9
=	107.0	0.0	12.0	99.9
=	107.5	0.0	12.0	99.9
=	108.2	0.0	12.0	99.8
=	109.1	0.0	12.0	99.8
=	109.7	0.0	12.0	99.7
=	110.6	0.0	12.0	99.7
=	111.2	0.0	12.0	99.7
=	111.7	0.0	12.0	99.7
=	112.3	0.0	12.0	99.6
=	113.1	0.0	12.0	99.6
=	113.8	0.0	12.0	99.5
=	114.6	0.0	12.0	99.5
=	115.3	0.0	12.0	99.5
=	116.1	0.0	12.0	99.5
=	116.8	0.0	12.0	99.4
=	117.6	0.0	12.0	99.4
=	118.4	0.0	12.0	99.3
=	119.2	0.0	12.0	99.3
=	119.9	0.0	12.0	99.2
=	120.6	0.0	12.0	99.2
=	121.4	0.0	12.0	99.1
=	122.2	0.0	12.0	99.1
=	122.9	0.0	12.0	99.0
=	123.7	0.0	12.0	99.0
=	124.4	0.0	12.0	99.0
=	125.2	0.0	12.0	98.9
=	125.9	0.0	12.0	98.9
=	126.7	0.0	12.0	98.8
=	127.4	0.0	12.0	98.8
=	128.2	0.0	12.0	98.8
=	128.9	0.0	12.0	98.8
=	129.7	0.0	12.0	98.8
=	130.4	0.0	12.0	98.8
=	131.2	0.0	12.0	98.7
=	132.0	0.0	12.0	98.6
=	132.7	0.0	12.0	98.6
=	133.3	0.0	12.0	98.6
=	134.0	0.0	12.0	98.5
=	134.7	0.0	12.0	98.5
=	135.5	0.0	12.0	98.5
=	136.1	0.0	12.0	98.4
=	136.8	0.0	12.0	98.4
=	137.5	0.0	12.0	98.4
=	138.3	0.0	12.0	98.3
=	139.0	0.0	12.0	98.3
=	139.8	0.0	12.0	98.3
=	140.5	0.0	12.0	98.3
=	141.3	0.0	12.0	98.2
=	142.0	0.0	12.0	98.2
=	142.8	0.0	12.0	98.1
=	143.6	0.0	12.0	98.1
=	144.3	0.0	12.0	98.0
=	145.0	0.0	12.0	98.0
=	145.8	0.0	12.0	97.9
=	146.5	0.0	12.0	97.9
=	147.3	0.0	12.0	97.8
=	148.1	0.0	12.0	97.8
=	148.8	0.0	12.0	97.7
=	149.6	0.0	12.0	97.6
=	150.3	0.0	12.0	97.6
=	151.1	0.0	12.0	97.5
=	151.8	0.0	12.0	97.4
=	152.6	0.0	12.0	97.3
=	153.4	0.0	12.0	97.3
=	154.1	0.0	12.0	97.2
=	154.9	0.0	12.0	97.1
=	155.6	0.0	12.0	97.0
=	156.4	0.0	12.0	96.9
=	157.2	0.0	12.0	96.9
=	157.9	0.0	12.0	96.8
=	158.6	0.0	12.0	96.8
=	159.4	0.0	12.0	96.7
=	160.0	0.0	12.0	96.7
=	160.7	0.0	12.0	96.6
=	161.4	0.0	12.0	96.5
=	162.2	0.0	12.0	96.3
=	162.9	0.0	12.0	96.2
=	163.7	0.0	12.0	96.1
=	164.4	0.0	12.0	96.0
=	165.3	0.0	12.0	95.9
=	166.2	0.0	12.0	95.8
=	166.9	0.0	12.0	95.7
=	167.7	0.0	12.0	95.6
=	168.5	0.0	12.0	95.5
=	169.2	0.0	12.0	95.4
=	169.9	0.0	12.0	95.3
=	170.7	0.0	12.0	95.2
=	171.4	0.0	12.0	95.1
=	172.2	0.0	12.0	95.1
=	173.0	0.0	12.0	95.0
=	173.7	0.0	12.0	94.9
=	174.5	0.0	12.0	94.8
=	175.2	0.0	12.0	94.7
=	176.0	0.0	12.0	94.7
=	176.7	0.0	12.0	94.5
=	177.5	0.0	12.0	94.4
=	178.2	0.0	12.0	94.3
=	179.0	0.0	12.0	94.3
=	179.8	0.0	12.0	94.2
=	180.5	0.0	12.0	94.1
=	181.3	0.0	12.0	94.0
=	182.0	0.0	12.0	93.8
=	182.8	0.0	12.0	93.7
=	183.5	0.0	12.0	93.5
=	184.3	0.0	12.0	93.5
=	185.0	0.0	12.0	93.4
=	185.8	0.0	12.0	93.3
=	186.5	0.0	12.0	93.2
=	187.6	0.0	12.0	93.1
=	188.4	0.0	12.0	92.8
=	189.1	0.0	12.0	92.7
=	189.9	0.0	12.0	92.6
=	190.6	0.0	12.0	92.4
=	191.4	0.0	12.0	92.1
=	192.1	0.0	12.0	92.0
=	192.8	0.0	12.0	91.8
=	193.6	0.0	12.0	91.5
=	194.3	0.0	12.0	91.0
=	195.1	0.0	12.0	90.4
=	195.9	0.0	12.0	89.3
=	196.6	0.0	12.0	87.6
=	197.4	0.0	12.0	85.4
=	198.1	0.0	12.0	82.2
=	198.9	0.0	12.0	77.6
=	199.6	0.0	12.0	72.2
=	200.4	0.0	12.0	65.7
=	201.1	0.0	12.0	58.9
=	201.9	0.0	12.0	51.6
=	202.6	0.0	12.0	44.9
=	203.4	0.0	12.0	38.0
=	204.1	0.0	12.0	32.2
=	204.9	0.0	12.0	27.1
=	205.6	0.0	12.0	22.9
=	206.4	0.0	12.0	19.5
=	207.2	0.0	12.0	17.0
=	207.9	0.0	12.0	15.2
=	208.7	0.0	12.0	14.0
=	209.4	0.0	12.0	13.2
=	210.1	0.0	12.0	12.6
=	210.9	0.0	12.0	12.2
=	211.7	0.0	12.0	11.8
=	212.4	0.0	12.0	11.6
=	213.2	0.0	12.0	11.4
=	213.9	0.0	12.0	11.3
=	214.7	0.0	12.0	11.1
=	215.4	0.0	12.0	11.0
=	216.2	0.0	12.0	10.9
=	216.9	0.0	12.0	10.7
=	217.7	0.0	12.0	10.6
=	218.5	0.0	12.0	10.5
=	219.2	0.0	12.0	10.4
=	219.9	0.0	12.0	10.3
=	220.7	0.0	12.0	10.2
=	221.5	0.0	12.0	10.1
=	222.2	0.0	12.0	10.0
=	222.9	0.0	12.0	9.9
=	223.7	0.0	12.0	9.8
=	224.4	0.0	12.0	9.7
=	225.2	0.0	12.0	9.6
=	225.9	0.0	12.0	9.5
=	226.7	0.0	12.0	9.4
=	227.4	0.0	12.0	9.3
=	228.2	0.0	12.0	9.3
=	228.9	0.0	12.0	9.2
=	229.7	0.0	12.0	9.1
=	230.5	0.0	12.0	9.0
=	231.2	0.0	12.0	9.0
=	232.0	0.0	12.0	8.9
=	232.8	0.0	12.0	8.8
=	233.5	0.0	12.0	8.7
=	234.3	0.0	12.0	8.7
=	235.0	0.0	12.0	8.6
=	235.8	0.0	12.0	8.6
=	236.5	0.0	12.0	8.5
=	237.3	0.0	12.0	8.5
=	238.0	0.0	12.0	8.5
=	238.8	0.0	12.0	8.4
=	239.5	0.0	12.0	8.4
=	240.3	0.0	12.0	8.3
=	241.0	0.0	12.0	8.3
=	241.7	0.0	12.0	8.3
=	242.2	0.0	12.0	8.2
=	242.9	0.0	12.0	8.2
=	243.7	0.0	12.0	8.1
=	244.4	0.0	12.0	8.1
=	245.2	0.0	12.0	8.1
=	245.9	0.0	12.0	8.0
=	246.7	0.0	12.0	8.0
=	247.4	0.0	12.0	7.9
=	248.2	0.0	12.0	7.9
=	248.9	0.0	12.0	7.8
=	249.7	0.0	12.0	7.8
=	250.4	0.0	12.0	7.8
=	251.2	0.0	12.0	7.7
=	251.9	0.0	12.0	7.7
=	252.7	0.0	12.0	7.7
=	253.5	0.0	12.0	7.6
=	254.4	0.0	12.0	7.5
=	255.3	0.0	12.0	7.5
=	256.6	0.0	12.0	7.5
=	257.5	0.0	12.0	7.4
=	258.4	0.0	12.0	7.4
=	259.1	0.0	12.0	7.3
=	259.9	0.0	12.0	7.3
=	260.7	0.0	12.0	7.3
=	261.4	0.0	12.0	7.3
=	262.2	0.0	12.0	7.2
=	263.0	0.0	12.0	7.2
=	263.7	0.0	12.0	7.2
=	264.3	0.0	12.0	7.1
=	265.0	0.0	12.0	7.1
=	265.7	0.0	12.0	7.1
=	266.5	0.0	12.0	7.1
=	267.3	0.0	12.0	7.1
=	268.0	0.0	12.0	7.0
=	268.6	0.0	12.0	7.0
=	269.2	0.0	12.0	7.0
=	269.7	0.0	12.0	7.0
=	270.2	0.0	12.0	6.9
=	271.0	0.0	12.0	6.9
=	271.8	0.0	12.0	6.9
:EOM # End of Measurement
#
# RFA300 ASCII Measurement Dump ( BDS format )
#
# Measurement number 	2
#
%VNR 1.0
%MOD 	RAT
%TYP 	SCN
%SCN 	PRO
%FLD 	ION
%DAT 	02-03-2012
%TIM 	12:00:00
%FSZ 	400	200
%BMT 	PHO	   4.0
%SSD 	1000
%BUP 	0
%BRD 	1000
%FSH 	1
%ASC 	0
%WEG 	45
%GPO 	0
%CPO 	0
%MEA 	6
%PRD 	50,0
%PTS 	742
%STS 	    -283.1	  0.0	   50.0 # Start Scan values in mm ( X , Y , Z )
%EDS 	    282.6	   0.0	   50.0 # End Scan values in mm ( X , Y , Z )
#
#	  X      Y      Z     Dose
#
=	-283.1	0.0	50.0	7.1
=	-282.3	0.0	50.0	7.2
=	-281.5	0.0	50.0	7.2
=	-280.8	0.0	50.0	7.2
=	-280.1	0.0	50.0	7.3
=	-279.3	0.0	50.0	7.3
=	-278.5	0.0	50.0	7.3
=	-277.7	0.0	50.0	7.3
=	-277.1	0.0	50.0	7.4
=	-276.5	0.0	50.0	7.4
=	-275.7	0.0	50.0	7.5
=	-275.0	0.0	50.0	7.5
=	-274.2	0.0	50.0	7.5
=	-273.6	0.0	50.0	7.6
=	-273.1	0.0	50.0	7.6
=	-272.4	0.0	50.0	7.6
=	-271.7	0.0	50.0	7.7
=	-271.1	0.0	50.0	7.7
=	-270.4	0.0	50.0	7.7
=	-269.9	0.0	50.0	7.8
=	-269.1	0.0	50.0	7.8
=	-268.4	0.0	50.0	7.8
=	-267.6	0.0	50.0	7.9
=	-266.9	0.0	50.0	7.9
=	-266.1	0.0	50.0	8.0
=	-265.5	0.0	50.0	8.0
=	-265.0	0.0	50.0	8.0
=	-264.3	0.0	50.0	8.1
=	-263.6	0.0	50.0	8.1
=	-262.9	0.0	50.0	8.2
=	-262.3	0.0	50.0	8.2
=	-261.6	0.0	50.0	8.3
=	-261.0	0.0	50.0	8.3
=	-260.5	0.0	50.0	8.3
=	-259.8	0.0	50.0	8.4
=	-259.2	0.0	50.0	8.4
=	-258.5	0.0	50.0	8.5
=	-257.8	0.0	50.0	8.5
=	-257.0	0.0	50.0	8.6
=	-256.2	0.0	50.0	8.6
=	-255.5	0.0	50.0	8.7
=	-254.8	0.0	50.0	8.7
=	-254.0	0.0	50.0	8.8
=	-253.3	0.0	50.0	8.9
=	-252.5	0.0	50.0	8.9
=	-251.7	0.0	50.0	9.0
=	-251.0	0.0	50.0	9.1
=	-250.2	0.0	50.0	9.1
=	-249.4	0.0	50.0	9.2
=	-248.7	0.0	50.0	9.3
=	-247.9	0.0	50.0	9.3
=	-247.2	0.0	50.0	9.4
=	-246.4	0.0	50.0	9.5
=	-245.7	0.0	50.0	9.6
=	-244.9	0.0	50.0	9.6
=	-244.2	0.0	50.0	9.7
=	-243.4	0.0	50.0	9.8
=	-242.7	0.0	50.0	9.8
=	-241.9	0.0	50.0	10.0
=	-241.2	0.0	50.0	10.0
=	-240.4	0.0	50.0	10.1
=	-239.7	0.0	50.0	10.2
=	-238.9	0.0	50.0	10.3
=	-238.2	0.0	50.0	10.4
=	-237.4	0.0	50.0	10.5
=	-236.7	0.0	50.0	10.6
=	-235.9	0.0	50.0	10.8
=	-235.2	0.0	50.0	10.9
=	-234.4	0.0	50.0	11.0
=	-233.7	0.0	50.0	11.1
=	-232.9	0.0	50.0	11.2
=	-232.2	0.0	50.0	11.3
=	-231.4	0.0	50.0	11.5
=	-230.7	0.0	50.0	11.6
=	-229.9	0.0	50.0	11.7
=	-229.2	0.0	50.0	11.9
=	-228.4	0.0	50.0	12.0
=	-227.6	0.0	50.0	12.2
=	-226.9	0.0	50.0	12.4
=	-226.1	0.0	50.0	12.5
=	-225.4	0.0	50.0	12.7
=	-224.6	0.0	50.0	12.9
=	-223.8	0.0	50.0	13.1
=	-223.1	0.0	50.0	13.3
=	-222.3	0.0	50.0	13.5
=	-221.6	0.0	50.0	13.7
=	-220.8	0.0	50.0	13.9
=	-220.1	0.0	50.0	14.2
=	-219.3	0.0	50.0	14.5
=	-218.6	0.0	50.0	14.9
=	-217.8	0.0	50.0	15.4
=	-217.1	0.0	50.0	16.0
=	-216.3	0.0	50.0	16.9
=	-215.5	0.0	50.0	18.1
=	-214.7	0.0	50.0	19.9
=	-214.0	0.0	50.0	22.0
=	-213.2	0.0	50.0	25.1
=	-212.5	0.0	50.0	28.6
=	-211.7	0.0	50.0	33.4
=	-210.8	0.0	50.0	39.4
=	-209.7	0.0	50.0	48.3
=	-209.0	0.0	50.0	54.2
=	-208.2	0.0	50.0	60.8
=	-207.5	0.0	50.0	66.2
=	-206.7	0.0	50.0	71.6
=	-206.0	0.0	50.0	76.2
=	-205.2	0.0	50.0	80.1
=	-204.4	0.0	50.0	82.7
=	-203.5	0.0	50.0	85.2
=	-202.6	0.0	50.0	86.4
=	-201.9	0.0	50.0	87.2
=	-201.1	0.0	50.0	88.0
=	-200.1	0.0	50.0	88.6
=	-199.2	0.0	50.0	89.0
=	-197.8	0.0	50.0	89.7
=	-196.6	0.0	50.0	90.0
=	-195.9	0.0	50.0	90.2
=	-195.1	0.0	50.0	90.4
=	-194.3	0.0	50.0	90.6
=	-193.4	0.0	50.0	90.8
=	-192.6	0.0	50.0	91.1
=	-191.9	0.0	50.0	91.3
=	-191.1	0.0	50.0	91.4
=	-190.2	0.0	50.0	91.6
=	-189.4	0.0	50.0	91.8
=	-188.6	0.0	50.0	92.0
=	-187.9	0.0	50.0	92.2
=	-187.1	0.0	50.0	92.3
=	-186.4	0.0	50.0	92.4
=	-185.6	0.0	50.0	92.5
=	-184.9	0.0	50.0	92.7
=	-184.1	0.0	50.0	92.9
=	-183.3	0.0	50.0	93.0
=	-182.6	0.0	50.0	93.1
=	-181.8	0.0	50.0	93.2
=	-181.0	0.0	50.0	93.3
=	-180.2	0.0	50.0	93.5
=	-179.3	0.0	50.0	93.5
=	-178.5	0.0	50.0	93.6
=	-177.8	0.0	50.0	93.7
=	-177.0	0.0	50.0	93.9
=	-176.3	0.0	50.0	94.0
=	-175.5	0.0	50.0	94.2
=	-174.3	0.0	50.0	94.4
=	-173.3	0.0	50.0	94.6
=	-172.5	0.0	50.0	94.6
=	-171.8	0.0	50.0	94.7
=	-170.6	0.0	50.0	94.9
=	-169.3	0.0	50.0	95.1
=	-168.5	0.0	50.0	95.1
=	-167.8	0.0	50.0	95.3
=	-167.0	0.0	50.0	95.4
=	-166.3	0.0	50.0	95.5
=	-165.5	0.0	50.0	95.6
=	-164.8	0.0	50.0	95.7
=	-164.0	0.0	50.0	95.8
=	-163.3	0.0	50.0	95.9
=	-162.5	0.0	50.0	96.1
=	-161.7	0.0	50.0	96.1
=	-160.9	0.0	50.0	96.2
=	-160.2	0.0	50.0	96.3
=	-159.4	0.0	50.0	96.4
=	-158.7	0.0	50.0	96.4
=	-157.9	0.0	50.0	96.5
=	-157.2	0.0	50.0	96.5
=	-156.4	0.0	50.0	96.6
=	-155.7	0.0	50.0	96.7
=	-154.9	0.0	50.0	96.8
=	-154.1	0.0	50.0	96.9
=	-153.4	0.0	50.0	97.0
=	-152.7	0.0	50.0	97.0
=	-151.9	0.0	50.0	97.2
=	-151.1	0.0	50.0	97.2
=	-150.4	0.0	50.0	97.2
=	-149.6	0.0	50.0	97.3
=	-148.8	0.0	50.0	97.4
=	-148.1	0.0	50.0	97.4
=	-147.3	0.0	50.0	97.5
=	-146.6	0.0	50.0	97.5
=	-145.8	0.0	50.0	97.6
=	-145.1	0.0	50.0	97.6
=	-144.3	0.0	50.0	97.6
=	-143.3	0.0	50.0	97.7
=	-142.6	0.0	50.0	97.7
=	-141.8	0.0	50.0	97.8
=	-141.1	0.0	50.0	97.8
=	-140.3	0.0	50.0	97.9
=	-139.6	0.0	50.0	98.0
=	-138.8	0.0	50.0	98.0
=	-138.1	0.0	50.0	98.0
=	-137.3	0.0	50.0	98.1
=	-136.5	0.0	50.0	98.1
=	-135.7	0.0	50.0	98.1
=	-135.0	0.0	50.0	98.2
=	-134.3	0.0	50.0	98.3
=	-133.5	0.0	50.0	98.4
=	-132.8	0.0	50.0	98.4
=	-132.0	0.0	50.0	98.4
=	-131.2	0.0	50.0	98.4
=	-130.6	0.0	50.0	98.5
=	-130.0	0.0	50.0	98.5
=	-129.2	0.0	50.0	98.5
=	-128.5	0.0	50.0	98.5
=	-127.7	0.0	50.0	98.5
=	-127.0	0.0	50.0	98.6
=	-126.2	0.0	50.0	98.6
=	-125.5	0.0	50.0	98.6
=	-124.6	0.0	50.0	98.7
=	-123.9	0.0	50.0	98.8
=	-123.2	0.0	50.0	98.8
=	-122.4	0.0	50.0	98.9
=	-121.6	0.0	50.0	98.9
=	-120.9	0.0	50.0	98.9
=	-120.2	0.0	50.0	99.0
=	-119.4	0.0	50.0	99.0
=	-118.6	0.0	50.0	99.0
=	-117.9	0.0	50.0	99.1
=	-117.1	0.0	50.0	99.1
=	-116.4	0.0	50.0	99.1
=	-115.6	0.0	50.0	99.2
=	-114.3	0.0	50.0	99.2
=	-113.1	0.0	50.0	99.4
=	-112.4	0.0	50.0	99.4
=	-111.6	0.0	50.0	99.4
=	-110.2	0.0	50.0	99.5
=	-108.7	0.0	50.0	99.5
=	-107.4	0.0	50.0	99.5
=	-106.2	0.0	50.0	99.6
=	-104.7	0.0	50.0	99.7
=	-103.1	0.0	50.0	99.8
=	-101.6	0.0	50.0	99.9
=	-100.1	0.0	50.0	99.9
=	-98.6	0.0	50.0	100.0
=	-97.1	0.0	50.0	100.0
=	-95.6	0.0	50.0	100.0
=	-94.1	0.0	50.0	100.0
=	-92.6	0.0	50.0	100.1
=	-91.2	0.0	50.0	100.2
=	-90.0	0.0	50.0	100.3
=	-88.8	0.0	50.0	100.3
=	-88.1	0.0	50.0	100.3
=	-87.3	0.0	50.0	100.3
=	-86.6	0.0	50.0	100.3
=	-85.8	0.0	50.0	100.3
=	-85.0	0.0	50.0	100.4
=	-84.3	0.0	50.0	100.4
=	-83.7	0.0	50.0	100.4
=	-83.0	0.0	50.0	100.4
=	-82.2	0.0	50.0	100.5
=	-81.4	0.0	50.0	100.6
=	-80.8	0.0	50.0	100.6
=	-80.2	0.0	50.0	100.6
=	-79.4	0.0	50.0	100.6
=	-78.8	0.0	50.0	100.6
=	-78.1	0.0	50.0	100.6
=	-77.5	0.0	50.0	100.6
=	-76.8	0.0	50.0	100.7
=	-76.1	0.0	50.0	100.7
=	-75.4	0.0	50.0	100.7
=	-74.6	0.0	50.0	100.7
=	-73.7	0.0	50.0	100.7
=	-72.5	0.0	50.0	100.7
=	-71.4	0.0	50.0	100.8
=	-69.9	0.0	50.0	100.8
=	-69.0	0.0	50.0	100.8
=	-68.2	0.0	50.0	100.8
=	-67.4	0.0	50.0	100.8
=	-66.6	0.0	50.0	100.8
=	-65.9	0.0	50.0	100.8
=	-65.3	0.0	50.0	100.8
=	-64.6	0.0	50.0	100.9
=	-63.9	0.0	50.0	100.9
=	-63.1	0.0	50.0	100.9
=	-62.4	0.0	50.0	101.0
=	-61.6	0.0	50.0	101.0
=	-60.9	0.0	50.0	101.0
=	-60.4	0.0	50.0	101.0
=	-59.9	0.0	50.0	101.0
=	-59.4	0.0	50.0	101.0
=	-58.9	0.0	50.0	101.0
=	-58.4	0.0	50.0	101.0
=	-57.8	0.0	50.0	101.0
=	-57.2	0.0	50.0	101.1
=	-56.7	0.0	50.0	101.1
=	-56.2	0.0	50.0	101.1
=	-55.7	0.0	50.0	101.1
=	-55.2	0.0	50.0	101.1
=	-54.7	0.0	50.0	101.1
=	-54.2	0.0	50.0	101.1
=	-53.7	0.0	50.0	101.0
=	-53.2	0.0	50.0	101.1
=	-52.6	0.0	50.0	101.1
=	-52.1	0.0	50.0	101.1
=	-51.6	0.0	50.0	101.1
=	-50.9	0.0	50.0	101.1
=	-50.1	0.0	50.0	101.1
=	-49.5	0.0	50.0	101.1
=	-48.9	0.0	50.0	101.1
=	-48.1	0.0	50.0	101.1
=	-47.4	0.0	50.0	101.0
=	-46.6	0.0	50.0	101.0
=	-45.8	0.0	50.0	101.0
=	-45.1	0.0	50.0	100.9
=	-44.3	0.0	50.0	100.9
=	-43.5	0.0	50.0	100.9
=	-42.8	0.0	50.0	100.9
=	-42.1	0.0	50.0	100.9
=	-41.3	0.0	50.0	100.9
=	-40.5	0.0	50.0	100.9
=	-39.8	0.0	50.0	100.9
=	-39.0	0.0	50.0	100.9
=	-38.3	0.0	50.0	100.9
=	-37.5	0.0	50.0	100.9
=	-36.8	0.0	50.0	100.9
=	-36.0	0.0	50.0	100.9
=	-35.2	0.0	50.0	100.9
=	-34.5	0.0	50.0	100.8
=	-33.7	0.0	50.0	100.8
=	-33.0	0.0	50.0	100.8
=	-32.2	0.0	50.0	100.8
=	-31.5	0.0	50.0	100.8
=	-30.7	0.0	50.0	100.8
=	-29.9	0.0	50.0	100.8
=	-29.2	0.0	50.0	100.8
=	-28.4	0.0	50.0	100.8
=	-27.7	0.0	50.0	100.8
=	-26.9	0.0	50.0	100.7
=	-26.1	0.0	50.0	100.7
=	-25.4	0.0	50.0	100.6
=	-24.6	0.0	50.0	100.6
=	-23.9	0.0	50.0	100.6
=	-23.1	0.0	50.0	100.5
=	-22.5	0.0	50.0	100.5
=	-21.9	0.0	50.0	100.5
=	-21.1	0.0	50.0	100.5
=	-20.3	0.0	50.0	100.5
=	-19.6	0.0	50.0	100.5
=	-18.8	0.0	50.0	100.5
=	-18.1	0.0	50.0	100.5
=	-17.6	0.0	50.0	100.5
=	-17.1	0.0	50.0	100.4
=	-16.6	0.0	50.0	100.4
=	-16.1	0.0	50.0	100.4
=	-15.6	0.0	50.0	100.4
=	-15.1	0.0	50.0	100.4
=	-14.6	0.0	50.0	100.4
=	-14.1	0.0	50.0	100.4
=	-13.6	0.0	50.0	100.4
=	-13.1	0.0	50.0	100.4
=	-12.6	0.0	50.0	100.4
=	-12.1	0.0	50.0	100.3
=	-11.5	0.0	50.0	100.3
=	-10.9	0.0	50.0	100.3
=	-10.4	0.0	50.0	100.3
=	-9.9	0.0	50.0	100.3
=	-9.4	0.0	50.0	100.3
=	-8.9	0.0	50.0	100.2
=	-8.4	0.0	50.0	100.2
=	-7.9	0.0	50.0	100.2
=	-7.3	0.0	50.0	100.1
=	-6.8	0.0	50.0	100.1
=	-6.1	0.0	50.0	100.1
=	-5.5	0.0	50.0	100.1
=	-5.0	0.0	50.0	100.0
=	-4.3	0.0	50.0	100.0
=	-3.6	0.0	50.0	100.0
=	-2.8	0.0	50.0	100.1
=	-2.3	0.0	50.0	100.1
=	-1.5	0.0	50.0	100.0
=	-0.9	0.0	50.0	100.0
=	-0.4	0.0	50.0	100.0
=	0.1	0.0	50.0	100.0
=	0.6	0.0	50.0	100.0
=	1.1	0.0	50.0	100.0
=	1.8	0.0	50.0	100.0
=	2.5	0.0	50.0	100.1
=	3.0	0.0	50.0	100.1
=	3.8	0.0	50.0	100.0
=	4.6	0.0	50.0	100.0
=	5.1	0.0	50.0	100.1
=	5.7	0.0	50.0	100.1
=	6.3	0.0	50.0	100.1
=	7.0	0.0	50.0	100.1
=	7.5	0.0	50.0	100.1
=	8.0	0.0	50.0	100.2
=	8.6	0.0	50.0	100.2
=	9.0	0.0	50.0	100.2
=	9.5	0.0	50.0	100.3
=	10.0	0.0	50.0	100.3
=	10.5	0.0	50.0	100.3
=	11.1	0.0	50.0	100.3
=	11.7	0.0	50.0	100.3
=	12.2	0.0	50.0	100.3
=	12.7	0.0	50.0	100.4
=	13.2	0.0	50.0	100.4
=	13.7	0.0	50.0	100.4
=	14.2	0.0	50.0	100.4
=	14.7	0.0	50.0	100.4
=	15.3	0.0	50.0	100.4
=	15.8	0.0	50.0	100.4
=	16.3	0.0	50.0	100.4
=	16.8	0.0	50.0	100.4
=	17.3	0.0	50.0	100.4
=	17.8	0.0	50.0	100.5
=	18.3	0.0	50.0	100.5
=	19.1	0.0	50.0	100.5
=	19.8	0.0	50.0	100.5
=	20.6	0.0	50.0	100.5
=	21.3	0.0	50.0	100.5
=	22.1	0.0	50.0	100.5
=	22.7	0.0	50.0	100.5
=	23.4	0.0	50.0	100.5
=	24.1	0.0	50.0	100.6
=	24.9	0.0	50.0	100.6
=	25.6	0.0	50.0	100.6
=	26.4	0.0	50.0	100.7
=	27.2	0.0	50.0	100.7
=	27.9	0.0	50.0	100.8
=	28.7	0.0	50.0	100.8
=	29.4	0.0	50.0	100.8
=	30.2	0.0	50.0	100.8
=	30.9	0.0	50.0	100.8
=	31.7	0.0	50.0	100.8
=	32.5	0.0	50.0	100.8
=	33.2	0.0	50.0	100.8
=	34.0	0.0	50.0	100.8
=	34.7	0.0	50.0	100.8
=	35.5	0.0	50.0	100.9
=	36.3	0.0	50.0	100.9
=	37.0	0.0	50.0	100.9
=	37.8	0.0	50.0	100.9
=	38.5	0.0	50.0	100.9
=	39.3	0.0	50.0	100.9
=	40.0	0.0	50.0	100.9
=	40.8	0.0	50.0	100.9
=	41.6	0.0	50.0	100.9
=	42.3	0.0	50.0	100.9
=	43.1	0.0	50.0	100.9
=	43.8	0.0	50.0	100.9
=	44.6	0.0	50.0	100.9
=	45.3	0.0	50.0	100.9
=	46.1	0.0	50.0	101.0
=	46.9	0.0	50.0	101.0
=	47.6	0.0	50.0	101.0
=	48.3	0.0	50.0	101.1
=	49.1	0.0	50.0	101.1
=	49.6	0.0	50.0	101.1
=	50.4	0.0	50.0	101.1
=	51.1	0.0	50.0	101.1
=	51.8	0.0	50.0	101.1
=	52.3	0.0	50.0	101.1
=	52.8	0.0	50.0	101.1
=	53.3	0.0	50.0	101.1
=	53.8	0.0	50.0	101.0
=	54.3	0.0	50.0	101.1
=	54.8	0.0	50.0	101.1
=	55.4	0.0	50.0	101.1
=	55.9	0.0	50.0	101.1
=	56.4	0.0	50.0	101.1
=	56.9	0.0	50.0	101.1
=	57.4	0.0	50.0	101.1
=	58.1	0.0	50.0	101.0
=	58.6	0.0	50.0	101.0
=	59.1	0.0	50.0	101.0
=	59.6	0.0	50.0	101.0
=	60.1	0.0	50.0	101.0
=	60.6	0.0	50.0	101.0
=	61.1	0.0	50.0	101.0
=	61.9	0.0	50.0	101.0
=	62.6	0.0	50.0	100.9
=	63.4	0.0	50.0	100.9
=	64.1	0.0	50.0	100.9
=	64.9	0.0	50.0	100.9
=	65.5	0.0	50.0	100.8
=	66.2	0.0	50.0	100.8
=	66.9	0.0	50.0	100.8
=	67.7	0.0	50.0	100.8
=	68.5	0.0	50.0	100.8
=	69.2	0.0	50.0	100.8
=	70.4	0.0	50.0	100.9
=	71.7	0.0	50.0	100.8
=	72.9	0.0	50.0	100.7
=	74.0	0.0	50.0	100.7
=	74.8	0.0	50.0	100.7
=	75.7	0.0	50.0	100.7
=	76.3	0.0	50.0	100.7
=	77.1	0.0	50.0	100.7
=	77.6	0.0	50.0	100.6
=	78.3	0.0	50.0	100.6
=	79.0	0.0	50.0	100.6
=	79.7	0.0	50.0	100.6
=	80.4	0.0	50.0	100.6
=	81.0	0.0	50.0	100.6
=	81.7	0.0	50.0	100.5
=	82.5	0.0	50.0	100.5
=	83.3	0.0	50.0	100.4
=	83.9	0.0	50.0	100.4
=	84.5	0.0	50.0	100.4
=	85.3	0.0	50.0	100.4
=	86.1	0.0	50.0	100.3
=	86.8	0.0	50.0	100.3
=	87.6	0.0	50.0	100.3
=	88.3	0.0	50.0	100.3
=	89.1	0.0	50.0	100.3
=	90.5	0.0	50.0	100.3
=	91.5	0.0	50.0	100.2
=	93.1	0.0	50.0	100.1
=	94.6	0.0	50.0	100.0
=	96.1	0.0	50.0	100.0
=	97.6	0.0	50.0	100.0
=	99.1	0.0	50.0	99.9
=	100.6	0.0	50.0	99.9
=	102.1	0.0	50.0	99.8
=	103.6	0.0	50.0	99.7
=	105.2	0.0	50.0	99.7
=	106.7	0.0	50.0	99.5
=	107.7	0.0	50.0	99.5
=	109.2	0.0	50.0	99.5
=	110.7	0.0	50.0	99.4
=	111.9	0.0	50.0	99.4
=	112.6	0.0	50.0	99.4
=	113.4	0.0	50.0	99.3
=	114.8	0.0	50.0	99.2
=	115.9	0.0	50.0	99.2
=	116.6	0.0	50.0	99.1
=	117.4	0.0	50.0	99.1
=	118.1	0.0	50.0	99.1
=	118.9	0.0	50.0	99.0
=	119.6	0.0	50.0	99.0
=	120.4	0.0	50.0	98.9
=	121.1	0.0	50.0	98.9
=	121.9	0.0	50.0	98.9
=	122.7	0.0	50.0	98.9
=	123.5	0.0	50.0	98.8
=	124.2	0.0	50.0	98.8
=	124.9	0.0	50.0	98.7
=	125.7	0.0	50.0	98.6
=	126.5	0.0	50.0	98.6
=	127.2	0.0	50.0	98.6
=	128.0	0.0	50.0	98.5
=	128.7	0.0	50.0	98.5
=	129.5	0.0	50.0	98.5
=	130.2	0.0	50.0	98.5
=	130.8	0.0	50.0	98.5
=	131.5	0.0	50.0	98.4
=	132.3	0.0	50.0	98.4
=	133.0	0.0	50.0	98.4
=	133.8	0.0	50.0	98.4
=	134.5	0.0	50.0	98.3
=	135.2	0.0	50.0	98.2
=	136.0	0.0	50.0	98.1
=	136.7	0.0	50.0	98.1
=	137.5	0.0	50.0	98.1
=	138.3	0.0	50.0	98.0
=	139.1	0.0	50.0	98.0
=	139.8	0.0	50.0	97.9
=	140.6	0.0	50.0	97.9
=	141.3	0.0	50.0	97.8
=	142.1	0.0	50.0	97.8
=	142.8	0.0	50.0	97.7
=	143.6	0.0	50.0	97.7
=	144.6	0.0	50.0	97.6
=	145.3	0.0	50.0	97.6
=	146.1	0.0	50.0	97.6
=	146.8	0.0	50.0	97.5
=	147.6	0.0	50.0	97.4
=	148.3	0.0	50.0	97.4
=	149.1	0.0	50.0	97.4
=	149.8	0.0	50.0	97.3
=	150.6	0.0	50.0	97.2
=	151.4	0.0	50.0	97.2
=	152.1	0.0	50.0	97.1
=	152.9	0.0	50.0	97.0
=	153.7	0.0	50.0	96.9
=	154.4	0.0	50.0	96.9
