:MSR 	5	 # No. of measurement in file
:SYS BDS 0   # Beam Data Scanner System
#
# RFA300 ASCII Measurement Dump ( BDS format )
#
# Measurement number 	1
#
%VNR 1.0
%MOD 	RAT
%TYP 	SCN
%SCN 	DIA
%FLD 	ION
%DAT 	10-13-2011
%TIM 	12:00:00
%FSZ 	400	400
%BMT 	PHO	   6.0
%SSD 	1000
%BUP 	0
%BRD 	1000
%FSH 	1
%ASC 	0
%WEG 	0
%GPO 	0
%CPO 	0
%MEA 	2
%PRD 	15,0
%PTS 	993
%STS 	    252.9	  -252.9	   15.0 # Start Scan values in mm ( X , Y , Z )
%EDS 	    -252.8	   252.8	   15.0 # End Scan values in mm ( X , Y , Z )
#
#	  X      Y      Z     Dose
#
=	252.9	-252.9	15.0	2.2
=	252.4	-252.4	15.0	2.2
=	251.9	-251.9	15.0	2.3
=	251.5	-251.5	15.0	2.3
=	251.0	-251.0	15.0	2.3
=	250.5	-250.5	15.0	2.3
=	250.1	-250.1	15.0	2.3
=	249.5	-249.5	15.0	2.3
=	249.0	-249.0	15.0	2.4
=	248.5	-248.5	15.0	2.4
=	248.0	-248.0	15.0	2.4
=	247.6	-247.6	15.0	2.4
=	247.1	-247.1	15.0	2.4
=	246.6	-246.6	15.0	2.4
=	246.2	-246.2	15.0	2.5
=	245.8	-245.8	15.0	2.5
=	245.4	-245.4	15.0	2.5
=	244.8	-244.8	15.0	2.5
=	244.3	-244.3	15.0	2.5
=	243.7	-243.7	15.0	2.6
=	243.2	-243.2	15.0	2.6
=	242.7	-242.7	15.0	2.6
=	242.1	-242.1	15.0	2.6
=	241.5	-241.5	15.0	2.6
=	241.1	-241.1	15.0	2.7
=	240.5	-240.5	15.0	2.7
=	239.9	-239.9	15.0	2.7
=	239.3	-239.3	15.0	2.7
=	238.8	-238.8	15.0	2.8
=	238.3	-238.3	15.0	2.8
=	237.8	-237.8	15.0	2.8
=	237.3	-237.3	15.0	2.8
=	236.8	-236.8	15.0	2.9
=	236.2	-236.2	15.0	2.9
=	235.6	-235.6	15.0	2.9
=	235.2	-235.2	15.0	3.0
=	234.6	-234.6	15.0	3.0
=	234.1	-234.1	15.0	3.0
=	233.5	-233.5	15.0	3.1
=	233.0	-233.0	15.0	3.1
=	232.5	-232.5	15.0	3.1
=	232.0	-232.0	15.0	3.2
=	231.5	-231.5	15.0	3.2
=	230.9	-230.9	15.0	3.2
=	230.5	-230.5	15.0	3.3
=	230.0	-230.0	15.0	3.3
=	229.5	-229.5	15.0	3.3
=	229.0	-229.0	15.0	3.3
=	228.4	-228.4	15.0	3.4
=	228.0	-228.0	15.0	3.4
=	227.4	-227.4	15.0	3.5
=	226.9	-226.9	15.0	3.5
=	226.4	-226.4	15.0	3.5
=	226.0	-226.0	15.0	3.6
=	225.5	-225.5	15.0	3.6
=	225.0	-225.0	15.0	3.7
=	224.5	-224.5	15.0	3.7
=	224.1	-224.1	15.0	3.7
=	223.6	-223.6	15.0	3.8
=	223.1	-223.1	15.0	3.8
=	222.7	-222.7	15.0	3.9
=	222.2	-222.2	15.0	3.9
=	221.8	-221.8	15.0	3.9
=	221.3	-221.3	15.0	4.0
=	220.8	-220.8	15.0	4.0
=	220.3	-220.3	15.0	4.1
=	219.9	-219.9	15.0	4.1
=	219.4	-219.4	15.0	4.2
=	218.9	-218.9	15.0	4.2
=	218.4	-218.4	15.0	4.3
=	217.9	-217.9	15.0	4.3
=	217.4	-217.4	15.0	4.3
=	216.9	-216.9	15.0	4.4
=	216.4	-216.4	15.0	4.5
=	216.0	-216.0	15.0	4.5
=	215.7	-215.7	15.0	4.6
=	215.2	-215.2	15.0	4.6
=	214.7	-214.7	15.0	4.7
=	214.2	-214.2	15.0	4.7
=	213.7	-213.7	15.0	4.8
=	213.1	-213.1	15.0	4.8
=	212.5	-212.5	15.0	4.9
=	212.1	-212.1	15.0	5.0
=	211.7	-211.7	15.0	5.0
=	211.2	-211.2	15.0	5.1
=	210.6	-210.6	15.0	5.2
=	210.2	-210.2	15.0	5.2
=	209.6	-209.6	15.0	5.3
=	209.1	-209.1	15.0	5.4
=	208.5	-208.5	15.0	5.4
=	208.0	-208.0	15.0	5.5
=	207.5	-207.5	15.0	5.6
=	207.0	-207.0	15.0	5.7
=	206.5	-206.5	15.0	5.7
=	206.0	-206.0	15.0	5.8
=	205.5	-205.5	15.0	5.9
=	204.9	-204.9	15.0	6.0
=	204.4	-204.4	15.0	6.0
=	204.0	-204.0	15.0	6.1
=	203.5	-203.5	15.0	6.2
=	202.9	-202.9	15.0	6.3
=	202.5	-202.5	15.0	6.4
=	202.0	-202.0	15.0	6.4
=	201.4	-201.4	15.0	6.6
=	200.9	-200.9	15.0	6.6
=	200.4	-200.4	15.0	6.7
=	199.9	-199.9	15.0	6.8
=	199.4	-199.4	15.0	6.9
=	198.8	-198.8	15.0	7.0
=	198.3	-198.3	15.0	7.1
=	197.7	-197.7	15.0	7.2
=	197.1	-197.1	15.0	7.4
=	196.6	-196.6	15.0	7.5
=	196.1	-196.1	15.0	7.6
=	195.6	-195.6	15.0	7.7
=	195.0	-195.0	15.0	7.8
=	194.4	-194.4	15.0	8.0
=	193.8	-193.8	15.0	8.1
=	193.4	-193.4	15.0	8.2
=	192.9	-192.9	15.0	8.3
=	192.4	-192.4	15.0	8.5
=	191.8	-191.8	15.0	8.6
=	191.2	-191.2	15.0	8.8
=	190.7	-190.7	15.0	8.9
=	190.3	-190.3	15.0	9.1
=	189.8	-189.8	15.0	9.3
=	189.3	-189.3	15.0	9.5
=	188.8	-188.8	15.0	9.7
=	188.2	-188.2	15.0	10.0
=	187.7	-187.7	15.0	10.5
=	187.1	-187.1	15.0	11.0
=	186.6	-186.6	15.0	11.5
=	186.1	-186.1	15.0	12.2
=	185.5	-185.5	15.0	13.3
=	184.9	-184.9	15.0	14.6
=	184.4	-184.4	15.0	16.2
=	183.8	-183.8	15.0	18.4
=	183.3	-183.3	15.0	20.7
=	182.9	-182.9	15.0	23.0
=	182.3	-182.3	15.0	26.4
=	181.7	-181.7	15.0	31.0
=	181.2	-181.2	15.0	35.8
=	180.7	-180.7	15.0	40.8
=	180.2	-180.2	15.0	46.9
=	179.6	-179.6	15.0	53.1
=	179.2	-179.2	15.0	57.8
=	178.8	-178.8	15.0	62.9
=	178.2	-178.2	15.0	68.4
=	177.8	-177.8	15.0	72.4
=	177.2	-177.2	15.0	76.8
=	176.6	-176.6	15.0	80.1
=	176.0	-176.0	15.0	82.5
=	175.6	-175.6	15.0	84.1
=	175.0	-175.0	15.0	85.3
=	174.5	-174.5	15.0	86.3
=	174.0	-174.0	15.0	87.2
=	173.5	-173.5	15.0	88.2
=	173.0	-173.0	15.0	89.0
=	172.5	-172.5	15.0	89.9
=	172.0	-172.0	15.0	90.8
=	171.6	-171.6	15.0	91.7
=	171.0	-171.0	15.0	92.8
=	170.5	-170.5	15.0	93.8
=	170.0	-170.0	15.0	94.8
=	169.5	-169.5	15.0	95.7
=	169.0	-169.0	15.0	96.8
=	168.4	-168.4	15.0	97.8
=	168.0	-168.0	15.0	98.4
=	167.5	-167.5	15.0	99.1
=	167.1	-167.1	15.0	99.8
=	166.6	-166.6	15.0	100.4
=	166.1	-166.1	15.0	101.0
=	165.6	-165.6	15.0	101.5
=	165.1	-165.1	15.0	102.0
=	164.6	-164.6	15.0	102.5
=	164.1	-164.1	15.0	102.9
=	163.6	-163.6	15.0	103.2
=	163.1	-163.1	15.0	103.4
=	162.6	-162.6	15.0	103.7
=	162.1	-162.1	15.0	103.9
=	161.6	-161.6	15.0	104.0
=	161.2	-161.2	15.0	104.2
=	160.6	-160.6	15.0	104.4
=	160.1	-160.1	15.0	104.5
=	159.6	-159.6	15.0	104.6
=	159.1	-159.1	15.0	104.7
=	158.7	-158.7	15.0	104.8
=	158.2	-158.2	15.0	104.9
=	157.7	-157.7	15.0	104.9
=	157.2	-157.2	15.0	105.0
=	156.7	-156.7	15.0	105.0
=	156.1	-156.1	15.0	105.1
=	155.6	-155.6	15.0	105.2
=	155.0	-155.0	15.0	105.2
=	154.4	-154.4	15.0	105.3
=	154.0	-154.0	15.0	105.3
=	153.4	-153.4	15.0	105.4
=	152.8	-152.8	15.0	105.4
=	152.3	-152.3	15.0	105.4
=	151.8	-151.8	15.0	105.4
=	151.2	-151.2	15.0	105.5
=	150.8	-150.8	15.0	105.5
=	150.3	-150.3	15.0	105.5
=	149.8	-149.8	15.0	105.6
=	149.3	-149.3	15.0	105.6
=	148.9	-148.9	15.0	105.6
=	148.4	-148.4	15.0	105.6
=	147.9	-147.9	15.0	105.7
=	147.5	-147.5	15.0	105.7
=	147.0	-147.0	15.0	105.7
=	146.6	-146.6	15.0	105.7
=	146.1	-146.1	15.0	105.7
=	145.6	-145.6	15.0	105.8
=	145.0	-145.0	15.0	105.8
=	144.4	-144.4	15.0	105.8
=	143.8	-143.8	15.0	105.8
=	143.4	-143.4	15.0	105.8
=	142.8	-142.8	15.0	105.8
=	142.2	-142.2	15.0	105.8
=	141.7	-141.7	15.0	105.8
=	141.3	-141.3	15.0	105.9
=	140.8	-140.8	15.0	105.9
=	140.3	-140.3	15.0	105.9
=	139.8	-139.8	15.0	105.9
=	139.2	-139.2	15.0	105.9
=	138.8	-138.8	15.0	105.9
=	138.3	-138.3	15.0	105.9
=	137.9	-137.9	15.0	105.9
=	137.3	-137.3	15.0	105.9
=	136.7	-136.7	15.0	105.9
=	136.1	-136.1	15.0	105.9
=	135.6	-135.6	15.0	105.9
=	135.1	-135.1	15.0	106.0
=	134.6	-134.6	15.0	106.0
=	134.1	-134.1	15.0	106.0
=	133.6	-133.6	15.0	106.0
=	133.1	-133.1	15.0	106.0
=	132.6	-132.6	15.0	106.0
=	132.1	-132.1	15.0	106.0
=	131.5	-131.5	15.0	106.0
=	131.1	-131.1	15.0	106.0
=	130.6	-130.6	15.0	106.0
=	130.0	-130.0	15.0	106.0
=	129.5	-129.5	15.0	106.0
=	128.9	-128.9	15.0	106.0
=	128.3	-128.3	15.0	106.0
=	127.7	-127.7	15.0	106.0
=	127.2	-127.2	15.0	106.0
=	126.7	-126.7	15.0	105.9
=	126.2	-126.2	15.0	105.9
=	125.7	-125.7	15.0	105.9
=	125.1	-125.1	15.0	105.9
=	124.5	-124.5	15.0	105.9
=	124.1	-124.1	15.0	105.9
=	123.5	-123.5	15.0	105.9
=	123.1	-123.1	15.0	105.9
=	122.6	-122.6	15.0	105.9
=	122.2	-122.2	15.0	105.9
=	121.6	-121.6	15.0	105.9
=	121.1	-121.1	15.0	105.9
=	120.6	-120.6	15.0	105.9
=	120.1	-120.1	15.0	105.9
=	119.6	-119.6	15.0	105.8
=	119.1	-119.1	15.0	105.8
=	118.7	-118.7	15.0	105.8
=	118.2	-118.2	15.0	105.8
=	117.7	-117.7	15.0	105.8
=	117.2	-117.2	15.0	105.8
=	116.7	-116.7	15.0	105.8
=	116.3	-116.3	15.0	105.8
=	115.8	-115.8	15.0	105.8
=	115.3	-115.3	15.0	105.7
=	114.7	-114.7	15.0	105.7
=	114.3	-114.3	15.0	105.7
=	113.8	-113.8	15.0	105.7
=	113.3	-113.3	15.0	105.7
=	112.9	-112.9	15.0	105.7
=	112.3	-112.3	15.0	105.6
=	111.8	-111.8	15.0	105.6
=	111.3	-111.3	15.0	105.6
=	110.8	-110.8	15.0	105.6
=	110.3	-110.3	15.0	105.6
=	109.8	-109.8	15.0	105.6
=	109.3	-109.3	15.0	105.6
=	108.9	-108.9	15.0	105.6
=	108.4	-108.4	15.0	105.6
=	107.8	-107.8	15.0	105.5
=	107.4	-107.4	15.0	105.5
=	106.9	-106.9	15.0	105.5
=	106.4	-106.4	15.0	105.5
=	105.9	-105.9	15.0	105.4
=	105.4	-105.4	15.0	105.4
=	105.0	-105.0	15.0	105.4
=	104.5	-104.5	15.0	105.4
=	103.9	-103.9	15.0	105.3
=	103.3	-103.3	15.0	105.3
=	102.9	-102.9	15.0	105.3
=	102.4	-102.4	15.0	105.3
=	101.9	-101.9	15.0	105.3
=	101.4	-101.4	15.0	105.3
=	100.9	-100.9	15.0	105.2
=	100.4	-100.4	15.0	105.2
=	99.9	-99.9	15.0	105.2
=	99.5	-99.5	15.0	105.2
=	98.9	-98.9	15.0	105.1
=	98.5	-98.5	15.0	105.1
=	97.9	-97.9	15.0	105.0
=	97.4	-97.4	15.0	105.0
=	97.0	-97.0	15.0	105.0
=	96.5	-96.5	15.0	105.0
=	95.9	-95.9	15.0	105.0
=	95.3	-95.3	15.0	104.9
=	94.7	-94.7	15.0	104.9
=	94.2	-94.2	15.0	104.9
=	93.6	-93.6	15.0	104.9
=	93.1	-93.1	15.0	104.9
=	92.6	-92.6	15.0	104.8
=	92.1	-92.1	15.0	104.8
=	91.5	-91.5	15.0	104.7
=	90.9	-90.9	15.0	104.7
=	90.4	-90.4	15.0	104.7
=	89.9	-89.9	15.0	104.7
=	89.4	-89.4	15.0	104.7
=	88.9	-88.9	15.0	104.7
=	88.5	-88.5	15.0	104.6
=	87.9	-87.9	15.0	104.6
=	87.3	-87.3	15.0	104.6
=	86.7	-86.7	15.0	104.6
=	86.2	-86.2	15.0	104.6
=	85.7	-85.7	15.0	104.6
=	85.1	-85.1	15.0	104.5
=	84.7	-84.7	15.0	104.5
=	84.3	-84.3	15.0	104.5
=	83.8	-83.8	15.0	104.4
=	83.3	-83.3	15.0	104.4
=	82.8	-82.8	15.0	104.4
=	82.2	-82.2	15.0	104.4
=	81.7	-81.7	15.0	104.4
=	81.2	-81.2	15.0	104.4
=	80.6	-80.6	15.0	104.3
=	80.1	-80.1	15.0	104.3
=	79.6	-79.6	15.0	104.3
=	79.1	-79.1	15.0	104.3
=	78.6	-78.6	15.0	104.3
=	78.1	-78.1	15.0	104.3
=	77.6	-77.6	15.0	104.3
=	77.1	-77.1	15.0	104.2
=	76.5	-76.5	15.0	104.2
=	75.9	-75.9	15.0	104.2
=	75.3	-75.3	15.0	104.2
=	74.7	-74.7	15.0	104.1
=	74.2	-74.2	15.0	104.1
=	73.7	-73.7	15.0	104.1
=	73.2	-73.2	15.0	104.1
=	72.7	-72.7	15.0	104.0
=	72.1	-72.1	15.0	104.0
=	71.7	-71.7	15.0	103.9
=	71.3	-71.3	15.0	103.9
=	70.8	-70.8	15.0	103.9
=	70.2	-70.2	15.0	103.9
=	69.7	-69.7	15.0	103.8
=	69.1	-69.1	15.0	103.8
=	68.6	-68.6	15.0	103.8
=	68.1	-68.1	15.0	103.8
=	67.6	-67.6	15.0	103.7
=	67.1	-67.1	15.0	103.7
=	66.6	-66.6	15.0	103.7
=	66.0	-66.0	15.0	103.7
=	65.6	-65.6	15.0	103.7
=	65.1	-65.1	15.0	103.7
=	64.6	-64.6	15.0	103.7
=	64.1	-64.1	15.0	103.6
=	63.6	-63.6	15.0	103.6
=	63.1	-63.1	15.0	103.6
=	62.5	-62.5	15.0	103.6
=	62.0	-62.0	15.0	103.6
=	61.5	-61.5	15.0	103.5
=	61.0	-61.0	15.0	103.5
=	60.4	-60.4	15.0	103.5
=	59.8	-59.8	15.0	103.5
=	59.2	-59.2	15.0	103.5
=	58.8	-58.8	15.0	103.5
=	58.4	-58.4	15.0	103.4
=	58.0	-58.0	15.0	103.4
=	57.5	-57.5	15.0	103.4
=	57.0	-57.0	15.0	103.3
=	56.5	-56.5	15.0	103.3
=	55.9	-55.9	15.0	103.3
=	55.4	-55.4	15.0	103.3
=	55.0	-55.0	15.0	103.3
=	54.4	-54.4	15.0	103.2
=	54.0	-54.0	15.0	103.2
=	53.4	-53.4	15.0	103.2
=	52.9	-52.9	15.0	103.1
=	52.4	-52.4	15.0	103.1
=	51.8	-51.8	15.0	103.1
=	51.3	-51.3	15.0	103.0
=	50.8	-50.8	15.0	103.0
=	50.2	-50.2	15.0	103.0
=	49.7	-49.7	15.0	103.0
=	49.1	-49.1	15.0	103.0
=	48.7	-48.7	15.0	102.9
=	48.2	-48.2	15.0	102.9
=	47.6	-47.6	15.0	102.9
=	47.1	-47.1	15.0	102.9
=	46.5	-46.5	15.0	102.9
=	45.9	-45.9	15.0	102.9
=	45.5	-45.5	15.0	102.9
=	45.1	-45.1	15.0	102.9
=	44.6	-44.6	15.0	102.8
=	44.1	-44.1	15.0	102.8
=	43.7	-43.7	15.0	102.8
=	43.1	-43.1	15.0	102.7
=	42.5	-42.5	15.0	102.7
=	42.1	-42.1	15.0	102.7
=	41.5	-41.5	15.0	102.6
=	41.1	-41.1	15.0	102.6
=	40.6	-40.6	15.0	102.6
=	40.1	-40.1	15.0	102.6
=	39.6	-39.6	15.0	102.6
=	39.2	-39.2	15.0	102.5
=	38.6	-38.6	15.0	102.5
=	38.1	-38.1	15.0	102.5
=	37.7	-37.7	15.0	102.4
=	37.2	-37.2	15.0	102.4
=	36.7	-36.7	15.0	102.4
=	36.1	-36.1	15.0	102.3
=	35.7	-35.7	15.0	102.3
=	35.1	-35.1	15.0	102.2
=	34.5	-34.5	15.0	102.2
=	34.1	-34.1	15.0	102.2
=	33.5	-33.5	15.0	102.1
=	32.9	-32.9	15.0	102.1
=	32.4	-32.4	15.0	102.0
=	31.8	-31.8	15.0	101.9
=	31.3	-31.3	15.0	101.9
=	30.8	-30.8	15.0	101.8
=	30.3	-30.3	15.0	101.8
=	29.7	-29.7	15.0	101.7
=	29.2	-29.2	15.0	101.6
=	28.6	-28.6	15.0	101.5
=	28.1	-28.1	15.0	101.4
=	27.6	-27.6	15.0	101.3
=	27.1	-27.1	15.0	101.3
=	26.5	-26.5	15.0	101.3
=	26.0	-26.0	15.0	101.2
=	25.5	-25.5	15.0	101.2
=	25.0	-25.0	15.0	101.2
=	24.5	-24.5	15.0	101.1
=	24.0	-24.0	15.0	101.1
=	23.5	-23.5	15.0	101.1
=	23.0	-23.0	15.0	101.0
=	22.5	-22.5	15.0	101.0
=	22.0	-22.0	15.0	101.0
=	21.6	-21.6	15.0	101.0
=	21.0	-21.0	15.0	101.0
=	20.5	-20.5	15.0	101.0
=	19.9	-19.9	15.0	101.0
=	19.4	-19.4	15.0	101.0
=	18.9	-18.9	15.0	101.0
=	18.4	-18.4	15.0	100.9
=	17.9	-17.9	15.0	100.9
=	17.4	-17.4	15.0	100.9
=	16.9	-16.9	15.0	100.8
=	16.4	-16.4	15.0	100.8
=	15.8	-15.8	15.0	100.8
=	15.4	-15.4	15.0	100.8
=	14.8	-14.8	15.0	100.7
=	14.3	-14.3	15.0	100.7
=	13.8	-13.8	15.0	100.7
=	13.3	-13.3	15.0	100.7
=	12.9	-12.9	15.0	100.6
=	12.5	-12.5	15.0	100.6
=	11.9	-11.9	15.0	100.6
=	11.5	-11.5	15.0	100.6
=	10.9	-10.9	15.0	100.5
=	10.3	-10.3	15.0	100.5
=	9.8	-9.8	15.0	100.5
=	9.2	-9.2	15.0	100.4
=	8.7	-8.7	15.0	100.4
=	8.3	-8.3	15.0	100.4
=	7.7	-7.7	15.0	100.3
=	7.3	-7.3	15.0	100.3
=	6.8	-6.8	15.0	100.3
=	6.3	-6.3	15.0	100.2
=	5.8	-5.8	15.0	100.2
=	5.2	-5.2	15.0	100.2
=	4.7	-4.7	15.0	100.1
=	4.1	-4.1	15.0	100.1
=	3.6	-3.6	15.0	100.1
=	3.1	-3.1	15.0	100.1
=	2.7	-2.7	15.0	100.1
=	2.2	-2.2	15.0	100.0
=	1.6	-1.6	15.0	100.0
=	1.2	-1.2	15.0	100.0
=	0.7	-0.7	15.0	100.0
=	-0.2	0.2	15.0	100.0
=	-0.6	0.6	15.0	100.0
=	-1.0	1.0	15.0	100.0
=	-1.5	1.5	15.0	100.0
=	-2.0	2.0	15.0	100.0
=	-2.6	2.6	15.0	100.1
=	-3.0	3.0	15.0	100.1
=	-3.5	3.5	15.0	100.1
=	-4.0	4.0	15.0	100.1
=	-4.5	4.5	15.0	100.1
=	-5.1	5.1	15.0	100.2
=	-5.7	5.7	15.0	100.2
=	-6.2	6.2	15.0	100.2
=	-6.7	6.7	15.0	100.2
=	-7.2	7.2	15.0	100.3
=	-7.6	7.6	15.0	100.3
=	-8.2	8.2	15.0	100.3
=	-8.6	8.6	15.0	100.4
=	-9.1	9.1	15.0	100.4
=	-9.6	9.6	15.0	100.5
=	-10.2	10.2	15.0	100.5
=	-10.8	10.8	15.0	100.5
=	-11.4	11.4	15.0	100.5
=	-11.8	11.8	15.0	100.6
=	-12.3	12.3	15.0	100.6
=	-12.8	12.8	15.0	100.6
=	-13.2	13.2	15.0	100.7
=	-13.7	13.7	15.0	100.7
=	-14.2	14.2	15.0	100.7
=	-14.7	14.7	15.0	100.7
=	-15.3	15.3	15.0	100.8
=	-15.7	15.7	15.0	100.8
=	-16.3	16.3	15.0	100.8
=	-16.8	16.8	15.0	100.8
=	-17.3	17.3	15.0	100.9
=	-17.7	17.7	15.0	100.9
=	-18.3	18.3	15.0	100.9
=	-18.7	18.7	15.0	100.9
=	-19.3	19.3	15.0	101.0
=	-19.8	19.8	15.0	101.0
=	-20.3	20.3	15.0	101.0
=	-20.9	20.9	15.0	101.0
=	-21.5	21.5	15.0	101.0
=	-21.9	21.9	15.0	101.0
=	-22.4	22.4	15.0	101.0
=	-22.9	22.9	15.0	101.0
=	-23.3	23.3	15.0	101.1
=	-23.8	23.8	15.0	101.1
=	-24.4	24.4	15.0	101.1
=	-24.8	24.8	15.0	101.2
=	-25.4	25.4	15.0	101.2
=	-25.9	25.9	15.0	101.2
=	-26.4	26.4	15.0	101.3
=	-27.0	27.0	15.0	101.3
=	-27.5	27.5	15.0	101.3
=	-28.0	28.0	15.0	101.4
=	-28.5	28.5	15.0	101.4
=	-29.0	29.0	15.0	101.5
=	-29.6	29.6	15.0	101.7
=	-30.2	30.2	15.0	101.8
=	-30.7	30.7	15.0	101.8
=	-31.2	31.2	15.0	101.9
=	-31.7	31.7	15.0	101.9
=	-32.2	32.2	15.0	102.0
=	-32.8	32.8	15.0	102.0
=	-33.4	33.4	15.0	102.1
=	-34.0	34.0	15.0	102.2
=	-34.4	34.4	15.0	102.2
=	-35.0	35.0	15.0	102.2
=	-35.6	35.6	15.0	102.3
=	-36.0	36.0	15.0	102.3
=	-36.6	36.6	15.0	102.3
=	-37.1	37.1	15.0	102.4
=	-37.6	37.6	15.0	102.4
=	-38.0	38.0	15.0	102.5
=	-38.5	38.5	15.0	102.5
=	-39.1	39.1	15.0	102.5
=	-39.5	39.5	15.0	102.6
=	-40.0	40.0	15.0	102.6
=	-40.5	40.5	15.0	102.6
=	-41.0	41.0	15.0	102.6
=	-41.4	41.4	15.0	102.6
=	-41.9	41.9	15.0	102.7
=	-42.4	42.4	15.0	102.7
=	-42.9	42.9	15.0	102.7
=	-43.5	43.5	15.0	102.8
=	-44.0	44.0	15.0	102.8
=	-44.4	44.4	15.0	102.8
=	-45.0	45.0	15.0	102.9
=	-45.4	45.4	15.0	102.9
=	-45.8	45.8	15.0	102.9
=	-46.3	46.3	15.0	102.9
=	-46.9	46.9	15.0	102.9
=	-47.5	47.5	15.0	102.9
=	-48.1	48.1	15.0	102.9
=	-48.5	48.5	15.0	102.9
=	-49.0	49.0	15.0	103.0
=	-49.5	49.5	15.0	103.0
=	-50.1	50.1	15.0	103.0
=	-50.7	50.7	15.0	103.0
=	-51.2	51.2	15.0	103.0
=	-51.7	51.7	15.0	103.1
=	-52.3	52.3	15.0	103.1
=	-52.8	52.8	15.0	103.1
=	-53.3	53.3	15.0	103.2
=	-53.9	53.9	15.0	103.2
=	-54.3	54.3	15.0	103.2
=	-54.8	54.8	15.0	103.2
=	-55.3	55.3	15.0	103.3
=	-55.8	55.8	15.0	103.3
=	-56.3	56.3	15.0	103.3
=	-56.9	56.9	15.0	103.3
=	-57.3	57.3	15.0	103.4
=	-57.9	57.9	15.0	103.4
=	-58.3	58.3	15.0	103.4
=	-58.7	58.7	15.0	103.5
=	-59.1	59.1	15.0	103.5
=	-59.7	59.7	15.0	103.5
=	-60.3	60.3	15.0	103.5
=	-60.8	60.8	15.0	103.5
=	-61.4	61.4	15.0	103.5
=	-61.9	61.9	15.0	103.6
=	-62.4	62.4	15.0	103.6
=	-62.9	62.9	15.0	103.6
=	-63.4	63.4	15.0	103.6
=	-64.0	64.0	15.0	103.6
=	-64.5	64.5	15.0	103.6
=	-65.0	65.0	15.0	103.7
=	-65.5	65.5	15.0	103.7
=	-65.9	65.9	15.0	103.7
=	-66.5	66.5	15.0	103.7
=	-66.9	66.9	15.0	103.7
=	-67.5	67.5	15.0	103.7
=	-67.9	67.9	15.0	103.8
=	-68.5	68.5	15.0	103.8
=	-69.0	69.0	15.0	103.8
=	-69.5	69.5	15.0	103.8
=	-70.1	70.1	15.0	103.9
=	-70.6	70.6	15.0	103.9
=	-71.1	71.1	15.0	103.9
=	-71.6	71.6	15.0	103.9
=	-72.0	72.0	15.0	103.9
=	-72.5	72.5	15.0	104.0
=	-73.0	73.0	15.0	104.0
=	-73.6	73.6	15.0	104.1
=	-74.0	74.0	15.0	104.1
=	-74.6	74.6	15.0	104.1
=	-75.2	75.2	15.0	104.2
=	-75.8	75.8	15.0	104.2
=	-76.4	76.4	15.0	104.2
=	-76.9	76.9	15.0	104.2
=	-77.5	77.5	15.0	104.2
=	-78.0	78.0	15.0	104.3
=	-78.5	78.5	15.0	104.3
=	-78.9	78.9	15.0	104.3
=	-79.5	79.5	15.0	104.3
=	-80.0	80.0	15.0	104.3
=	-80.5	80.5	15.0	104.3
=	-81.1	81.1	15.0	104.3
=	-81.5	81.5	15.0	104.4
=	-82.1	82.1	15.0	104.4
=	-82.7	82.7	15.0	104.4
=	-83.2	83.2	15.0	104.4
=	-83.7	83.7	15.0	104.4
=	-84.2	84.2	15.0	104.5
=	-84.6	84.6	15.0	104.5
=	-85.0	85.0	15.0	104.5
=	-85.6	85.6	15.0	104.6
=	-86.1	86.1	15.0	104.6
=	-86.6	86.6	15.0	104.6
=	-87.2	87.2	15.0	104.6
=	-87.8	87.8	15.0	104.6
=	-88.3	88.3	15.0	104.6
=	-88.8	88.8	15.0	104.6
=	-89.3	89.3	15.0	104.7
=	-89.8	89.8	15.0	104.7
=	-90.3	90.3	15.0	104.7
=	-90.8	90.8	15.0	104.7
=	-91.4	91.4	15.0	104.7
=	-92.0	92.0	15.0	104.8
=	-92.5	92.5	15.0	104.8
=	-93.0	93.0	15.0	104.9
=	-93.5	93.5	15.0	104.9
=	-94.0	94.0	15.0	104.9
=	-94.6	94.6	15.0	104.9
=	-95.2	95.2	15.0	104.9
=	-95.8	95.8	15.0	104.9
=	-96.3	96.3	15.0	105.0
=	-96.9	96.9	15.0	105.0
=	-97.3	97.3	15.0	105.0
=	-97.8	97.8	15.0	105.0
=	-98.3	98.3	15.0	105.1
=	-98.8	98.8	15.0	105.1
=	-99.4	99.4	15.0	105.2
=	-99.8	99.8	15.0	105.2
=	-100.2	100.2	15.0	105.2
=	-100.8	100.8	15.0	105.2
=	-101.3	101.3	15.0	105.3
=	-101.7	101.7	15.0	105.3
=	-102.3	102.3	15.0	105.3
=	-102.8	102.8	15.0	105.3
=	-103.2	103.2	15.0	105.3
=	-103.7	103.7	15.0	105.3
=	-104.3	104.3	15.0	105.4
=	-104.9	104.9	15.0	105.4
=	-105.3	105.3	15.0	105.4
=	-105.8	105.8	15.0	105.4
=	-106.2	106.2	15.0	105.5
=	-106.8	106.8	15.0	105.5
=	-107.2	107.2	15.0	105.5
=	-107.7	107.7	15.0	105.5
=	-108.2	108.2	15.0	105.6
=	-108.8	108.8	15.0	105.6
=	-109.2	109.2	15.0	105.6
=	-109.7	109.7	15.0	105.6
=	-110.2	110.2	15.0	105.6
=	-110.7	110.7	15.0	105.6
=	-111.2	111.2	15.0	105.6
=	-111.7	111.7	15.0	105.6
=	-112.2	112.2	15.0	105.6
=	-112.7	112.7	15.0	105.7
=	-113.2	113.2	15.0	105.7
=	-113.7	113.7	15.0	105.7
=	-114.2	114.2	15.0	105.7
=	-114.6	114.6	15.0	105.7
=	-115.2	115.2	15.0	105.7
=	-115.7	115.7	15.0	105.8
=	-116.2	116.2	15.0	105.8
=	-116.6	116.6	15.0	105.8
=	-117.0	117.0	15.0	105.8
=	-117.5	117.5	15.0	105.8
=	-118.1	118.1	15.0	105.8
=	-118.5	118.5	15.0	105.8
=	-119.0	119.0	15.0	105.8
=	-119.4	119.4	15.0	105.8
=	-120.0	120.0	15.0	105.9
=	-120.5	120.5	15.0	105.9
=	-121.0	121.0	15.0	105.9
=	-121.5	121.5	15.0	105.9
=	-122.0	122.0	15.0	105.9
=	-122.5	122.5	15.0	105.9
=	-123.0	123.0	15.0	105.9
=	-123.4	123.4	15.0	105.9
=	-123.9	123.9	15.0	105.9
=	-124.4	124.4	15.0	105.9
=	-125.0	125.0	15.0	105.9
=	-125.5	125.5	15.0	105.9
=	-126.1	126.1	15.0	105.9
=	-126.6	126.6	15.0	105.9
=	-127.0	127.0	15.0	105.9
=	-127.6	127.6	15.0	106.0
=	-128.1	128.1	15.0	106.0
=	-128.8	128.8	15.0	106.0
=	-129.3	129.3	15.0	106.0
=	-129.9	129.9	15.0	106.0
=	-130.5	130.5	15.0	106.0
=	-131.0	131.0	15.0	106.0
=	-131.4	131.4	15.0	106.0
=	-131.9	131.9	15.0	106.0
=	-132.5	132.5	15.0	106.0
=	-133.0	133.0	15.0	106.0
=	-133.5	133.5	15.0	106.0
=	-134.0	134.0	15.0	106.0
=	-134.5	134.5	15.0	106.0
=	-135.0	135.0	15.0	106.0
=	-135.5	135.5	15.0	106.0
=	-136.0	136.0	15.0	105.9
=	-136.6	136.6	15.0	105.9
=	-137.2	137.2	15.0	105.9
=	-137.7	137.7	15.0	105.9
=	-138.2	138.2	15.0	105.9
=	-138.7	138.7	15.0	105.9
=	-139.1	139.1	15.0	105.9
=	-139.6	139.6	15.0	105.9
=	-140.2	140.2	15.0	105.9
=	-140.6	140.6	15.0	105.9
=	-141.2	141.2	15.0	105.9
=	-141.6	141.6	15.0	105.9
=	-142.1	142.1	15.0	105.8
=	-142.6	142.6	15.0	105.8
=	-143.2	143.2	15.0	105.8
=	-143.7	143.7	15.0	105.8
=	-144.3	144.3	15.0	105.8
=	-144.8	144.8	15.0	105.8
=	-145.4	145.4	15.0	105.8
=	-146.0	146.0	15.0	105.7
=	-146.4	146.4	15.0	105.7
=	-146.9	146.9	15.0	105.7
=	-147.4	147.4	15.0	105.7
=	-147.8	147.8	15.0	105.7
=	-148.3	148.3	15.0	105.6
=	-148.7	148.7	15.0	105.6
=	-149.2	149.2	15.0	105.6
=	-149.7	149.7	15.0	105.6
=	-150.1	150.1	15.0	105.5
=	-150.7	150.7	15.0	105.5
=	-151.1	151.1	15.0	105.5
=	-151.6	151.6	15.0	105.5
=	-152.2	152.2	15.0	105.4
=	-152.7	152.7	15.0	105.4
=	-153.3	153.3	15.0	105.4
=	-153.8	153.8	15.0	105.3
=	-154.3	154.3	15.0	105.3
=	-154.8	154.8	15.0	105.2
=	-155.4	155.4	15.0	105.2
=	-156.0	156.0	15.0	105.1
=	-156.6	156.6	15.0	105.1
=	-157.1	157.1	15.0	105.0
=	-157.6	157.6	15.0	105.0
=	-158.0	158.0	15.0	104.9
=	-158.6	158.6	15.0	104.8
=	-159.0	159.0	15.0	104.7
=	-159.5	159.5	15.0	104.6
=	-160.0	160.0	15.0	104.5
=	-160.5	160.5	15.0	104.4
=	-161.1	161.1	15.0	104.2
=	-161.5	161.5	15.0	104.1
=	-162.0	162.0	15.0	103.9
=	-162.5	162.5	15.0	103.7
=	-162.9	162.9	15.0	103.5
=	-163.5	163.5	15.0	103.2
=	-163.9	163.9	15.0	102.9
=	-164.4	164.4	15.0	102.6
=	-165.0	165.0	15.0	102.1
=	-165.5	165.5	15.0	101.6
=	-166.0	166.0	15.0	101.1
=	-166.5	166.5	15.0	100.5
=	-167.0	167.0	15.0	100.0
=	-167.4	167.4	15.0	99.3
=	-167.9	167.9	15.0	98.6
=	-168.3	168.3	15.0	98.0
=	-168.8	168.8	15.0	97.0
=	-169.4	169.4	15.0	96.0
=	-169.9	169.9	15.0	95.0
=	-170.4	170.4	15.0	94.1
=	-170.9	170.9	15.0	93.1
=	-171.4	171.4	15.0	91.9
=	-171.9	171.9	15.0	91.0
=	-172.4	172.4	15.0	90.1
=	-172.9	172.9	15.0	89.2
=	-173.3	173.3	15.0	88.4
=	-173.9	173.9	15.0	87.5
=	-174.4	174.4	15.0	86.5
=	-174.9	174.9	15.0	85.5
=	-175.4	175.4	15.0	84.4
=	-175.9	175.9	15.0	83.0
=	-176.5	176.5	15.0	80.8
=	-177.0	177.0	15.0	77.8
=	-177.6	177.6	15.0	73.6
=	-178.1	178.1	15.0	69.3
=	-178.6	178.6	15.0	64.4
=	-179.1	179.1	15.0	59.0
=	-179.5	179.5	15.0	54.4
=	-180.1	180.1	15.0	48.3
=	-180.6	180.6	15.0	42.5
=	-181.1	181.1	15.0	36.8
=	-181.6	181.6	15.0	32.4
=	-182.2	182.2	15.0	27.4
=	-182.7	182.7	15.0	23.7
=	-183.2	183.2	15.0	21.3
=	-183.6	183.6	15.0	19.0
=	-184.2	184.2	15.0	16.8
=	-184.8	184.8	15.0	14.9
=	-185.4	185.4	15.0	13.6
=	-185.9	185.9	15.0	12.5
=	-186.5	186.5	15.0	11.7
=	-187.0	187.0	15.0	11.1
=	-187.5	187.5	15.0	10.6
=	-188.1	188.1	15.0	10.1
=	-188.7	188.7	15.0	9.8
=	-189.2	189.2	15.0	9.5
=	-189.7	189.7	15.0	9.3
=	-190.2	190.2	15.0	9.1
=	-190.6	190.6	15.0	9.0
=	-191.1	191.1	15.0	8.8
=	-191.7	191.7	15.0	8.6
=	-192.3	192.3	15.0	8.5
=	-192.8	192.8	15.0	8.3
=	-193.2	193.2	15.0	8.2
=	-193.7	193.7	15.0	8.1
=	-194.3	194.3	15.0	8.0
=	-194.8	194.8	15.0	7.9
=	-195.4	195.4	15.0	7.7
=	-196.0	196.0	15.0	7.6
=	-196.5	196.5	15.0	7.5
=	-197.0	197.0	15.0	7.4
=	-197.6	197.6	15.0	7.3
=	-198.1	198.1	15.0	7.2
=	-198.7	198.7	15.0	7.0
=	-199.3	199.3	15.0	6.9
=	-199.8	199.8	15.0	6.8
=	-200.3	200.3	15.0	6.8
=	-200.8	200.8	15.0	6.7
=	-201.3	201.3	15.0	6.6
=	-201.9	201.9	15.0	6.5
=	-202.4	202.4	15.0	6.4
=	-202.7	202.7	15.0	6.3
=	-203.3	203.3	15.0	6.2
=	-203.8	203.8	15.0	6.1
=	-204.3	204.3	15.0	6.0
=	-204.7	204.7	15.0	6.0
=	-205.3	205.3	15.0	5.9
=	-205.9	205.9	15.0	5.8
=	-206.4	206.4	15.0	5.7
=	-206.9	206.9	15.0	5.7
=	-207.3	207.3	15.0	5.6
=	-207.9	207.9	15.0	5.5
=	-208.4	208.4	15.0	5.5
=	-208.9	208.9	15.0	5.4
=	-209.5	209.5	15.0	5.3
=	-210.0	210.0	15.0	5.2
=	-210.5	210.5	15.0	5.2
=	-211.0	211.0	15.0	5.1
=	-211.5	211.5	15.0	5.0
=	-212.0	212.0	15.0	5.0
=	-212.4	212.4	15.0	4.9
=	-212.9	212.9	15.0	4.9
=	-213.5	213.5	15.0	4.8
=	-214.1	214.1	15.0	4.7
=	-214.6	214.6	15.0	4.7
=	-215.1	215.1	15.0	4.6
=	-215.6	215.6	15.0	4.6
=	-215.9	215.9	15.0	4.5
=	-216.3	216.3	15.0	4.5
=	-216.8	216.8	15.0	4.4
=	-217.3	217.3	15.0	4.4
=	-217.8	217.8	15.0	4.3
=	-218.3	218.3	15.0	4.3
=	-218.8	218.8	15.0	4.2
=	-219.2	219.2	15.0	4.2
=	-219.8	219.8	15.0	4.1
=	-220.2	220.2	15.0	4.1
=	-220.7	220.7	15.0	4.0
=	-221.2	221.2	15.0	4.0
=	-221.7	221.7	15.0	3.9
=	-222.1	222.1	15.0	3.9
=	-222.5	222.5	15.0	3.9
=	-223.0	223.0	15.0	3.8
=	-223.5	223.5	15.0	3.8
=	-223.9	223.9	15.0	3.7
=	-224.4	224.4	15.0	3.7
=	-224.9	224.9	15.0	3.7
=	-225.4	225.4	15.0	3.6
=	-225.9	225.9	15.0	3.6
=	-226.3	226.3	15.0	3.5
=	-226.8	226.8	15.0	3.5
=	-227.3	227.3	15.0	3.5
=	-227.8	227.8	15.0	3.4
=	-228.3	228.3	15.0	3.4
=	-228.9	228.9	15.0	3.4
=	-229.4	229.4	15.0	3.3
=	-229.9	229.9	15.0	3.3
=	-230.4	230.4	15.0	3.3
=	-230.8	230.8	15.0	3.2
=	-231.3	231.3	15.0	3.2
=	-231.9	231.9	15.0	3.2
=	-232.4	232.4	15.0	3.1
=	-232.8	232.8	15.0	3.1
=	-233.3	233.3	15.0	3.1
=	-233.9	233.9	15.0	3.0
=	-234.5	234.5	15.0	3.0
=	-235.0	235.0	15.0	3.0
=	-235.5	235.5	15.0	2.9
=	-236.1	236.1	15.0	2.9
=	-236.6	236.6	15.0	2.9
=	-237.2	237.2	15.0	2.8
=	-237.6	237.6	15.0	2.8
=	-238.2	238.2	15.0	2.8
=	-238.6	238.6	15.0	2.8
=	-239.2	239.2	15.0	2.8
=	-239.8	239.8	15.0	2.7
=	-240.4	240.4	15.0	2.7
=	-240.9	240.9	15.0	2.7
=	-241.4	241.4	15.0	2.6
=	-241.9	241.9	15.0	2.6
=	-242.5	242.5	15.0	2.6
=	-243.1	243.1	15.0	2.6
=	-243.6	243.6	15.0	2.6
=	-244.1	244.1	15.0	2.5
=	-244.7	244.7	15.0	2.5
=	-245.3	245.3	15.0	2.5
=	-245.7	245.7	15.0	2.5
=	-246.1	246.1	15.0	2.5
=	-246.5	246.5	15.0	2.4
=	-247.0	247.0	15.0	2.4
=	-247.4	247.4	15.0	2.4
=	-247.9	247.9	15.0	2.4
=	-248.4	248.4	15.0	2.4
=	-248.9	248.9	15.0	2.4
=	-249.4	249.4	15.0	2.3
=	-250.0	250.0	15.0	2.3
=	-250.4	250.4	15.0	2.3
=	-250.9	250.9	15.0	2.3
=	-251.3	251.3	15.0	2.3
=	-251.8	251.8	15.0	2.3
=	-252.3	252.3	15.0	2.2
=	-252.8	252.8	15.0	2.2
:EOM # End of Measurement
#
# RFA300 ASCII Measurement Dump ( BDS format )
#
# Measurement number 	2
#
%VNR 1.0
%MOD 	RAT
%TYP 	SCN
%SCN 	DIA
%FLD 	ION
%DAT 	10-13-2011
%TIM 	12:00:00
%FSZ 	400	400
%BMT 	PHO	   6.0
%SSD 	1000
%BUP 	0
%BRD 	1000
%FSH 	1
%ASC 	0
%WEG 	0
%GPO 	0
%CPO 	0
%MEA 	2
%PRD 	50,0
%PTS 	955
%STS 	    259.8	  -259.8	   50.0 # Start Scan values in mm ( X , Y , Z )
%EDS 	    -259.4	   259.4	   50.0 # End Scan values in mm ( X , Y , Z )
#
#	  X      Y      Z     Dose
#
=	259.8	-259.8	50.0	2.7
=	259.3	-259.3	50.0	2.7
=	258.7	-258.7	50.0	2.8
=	258.1	-258.1	50.0	2.8
=	257.5	-257.5	50.0	2.8
=	257.1	-257.1	50.0	2.8
=	256.7	-256.7	50.0	2.8
=	256.2	-256.2	50.0	2.9
=	255.6	-255.6	50.0	2.9
=	255.1	-255.1	50.0	2.9
=	254.5	-254.5	50.0	2.9
=	253.9	-253.9	50.0	3.0
=	253.4	-253.4	50.0	3.0
=	252.8	-252.8	50.0	3.0
=	252.2	-252.2	50.0	3.0
=	251.7	-251.7	50.0	3.1
=	251.2	-251.2	50.0	3.1
=	250.7	-250.7	50.0	3.1
=	250.3	-250.3	50.0	3.1
=	249.8	-249.8	50.0	3.2
=	249.2	-249.2	50.0	3.2
=	248.6	-248.6	50.0	3.2
=	248.1	-248.1	50.0	3.3
=	247.6	-247.6	50.0	3.3
=	247.0	-247.0	50.0	3.3
=	246.6	-246.6	50.0	3.3
=	246.2	-246.2	50.0	3.4
=	245.6	-245.6	50.0	3.4
=	245.1	-245.1	50.0	3.4
=	244.6	-244.6	50.0	3.4
=	244.0	-244.0	50.0	3.5
=	243.6	-243.6	50.0	3.5
=	243.0	-243.0	50.0	3.5
=	242.6	-242.6	50.0	3.6
=	242.1	-242.1	50.0	3.6
=	241.7	-241.7	50.0	3.6
=	241.2	-241.2	50.0	3.7
=	240.7	-240.7	50.0	3.7
=	240.2	-240.2	50.0	3.7
=	239.6	-239.6	50.0	3.8
=	239.0	-239.0	50.0	3.8
=	238.4	-238.4	50.0	3.9
=	238.0	-238.0	50.0	3.9
=	237.4	-237.4	50.0	3.9
=	236.8	-236.8	50.0	4.0
=	236.2	-236.2	50.0	4.0
=	235.8	-235.8	50.0	4.1
=	235.2	-235.2	50.0	4.1
=	234.7	-234.7	50.0	4.2
=	234.1	-234.1	50.0	4.2
=	233.5	-233.5	50.0	4.3
=	233.0	-233.0	50.0	4.3
=	232.4	-232.4	50.0	4.4
=	231.8	-231.8	50.0	4.4
=	231.2	-231.2	50.0	4.5
=	230.7	-230.7	50.0	4.5
=	230.2	-230.2	50.0	4.6
=	229.7	-229.7	50.0	4.6
=	229.1	-229.1	50.0	4.7
=	228.5	-228.5	50.0	4.8
=	228.0	-228.0	50.0	4.8
=	227.6	-227.6	50.0	4.9
=	227.1	-227.1	50.0	4.9
=	226.5	-226.5	50.0	5.0
=	225.9	-225.9	50.0	5.0
=	225.3	-225.3	50.0	5.1
=	224.8	-224.8	50.0	5.2
=	224.3	-224.3	50.0	5.2
=	223.7	-223.7	50.0	5.3
=	223.2	-223.2	50.0	5.4
=	222.6	-222.6	50.0	5.4
=	222.0	-222.0	50.0	5.5
=	221.6	-221.6	50.0	5.6
=	221.0	-221.0	50.0	5.7
=	220.4	-220.4	50.0	5.7
=	219.9	-219.9	50.0	5.8
=	219.3	-219.3	50.0	5.9
=	218.8	-218.8	50.0	6.0
=	218.3	-218.3	50.0	6.0
=	217.7	-217.7	50.0	6.1
=	217.1	-217.1	50.0	6.2
=	216.6	-216.6	50.0	6.3
=	216.0	-216.0	50.0	6.4
=	215.5	-215.5	50.0	6.4
=	215.0	-215.0	50.0	6.5
=	214.4	-214.4	50.0	6.6
=	213.8	-213.8	50.0	6.7
=	213.3	-213.3	50.0	6.8
=	212.7	-212.7	50.0	6.9
=	212.1	-212.1	50.0	7.0
=	211.6	-211.6	50.0	7.1
=	211.2	-211.2	50.0	7.2
=	210.7	-210.7	50.0	7.3
=	210.1	-210.1	50.0	7.4
=	209.6	-209.6	50.0	7.5
=	209.1	-209.1	50.0	7.6
=	208.6	-208.6	50.0	7.7
=	208.1	-208.1	50.0	7.8
=	207.6	-207.6	50.0	8.0
=	207.1	-207.1	50.0	8.0
=	206.5	-206.5	50.0	8.2
=	205.9	-205.9	50.0	8.3
=	205.4	-205.4	50.0	8.5
=	204.8	-204.8	50.0	8.6
=	204.4	-204.4	50.0	8.7
=	203.8	-203.8	50.0	8.9
=	203.2	-203.2	50.0	9.0
=	202.7	-202.7	50.0	9.2
=	202.1	-202.1	50.0	9.3
=	201.5	-201.5	50.0	9.5
=	201.0	-201.0	50.0	9.6
=	200.5	-200.5	50.0	9.8
=	199.9	-199.9	50.0	10.0
=	199.3	-199.3	50.0	10.2
=	198.8	-198.8	50.0	10.4
=	198.3	-198.3	50.0	10.5
=	197.9	-197.9	50.0	10.7
=	197.3	-197.3	50.0	10.9
=	196.8	-196.8	50.0	11.1
=	196.2	-196.2	50.0	11.4
=	195.6	-195.6	50.0	11.7
=	195.1	-195.1	50.0	12.1
=	194.5	-194.5	50.0	12.5
=	193.9	-193.9	50.0	13.0
=	193.5	-193.5	50.0	13.4
=	193.0	-193.0	50.0	13.9
=	192.5	-192.5	50.0	14.6
=	192.0	-192.0	50.0	15.5
=	191.5	-191.5	50.0	16.6
=	190.9	-190.9	50.0	18.1
=	190.3	-190.3	50.0	19.9
=	189.7	-189.7	50.0	22.2
=	189.2	-189.2	50.0	24.9
=	188.6	-188.6	50.0	28.1
=	188.1	-188.1	50.0	31.4
=	187.7	-187.7	50.0	34.6
=	187.2	-187.2	50.0	39.4
=	186.6	-186.6	50.0	44.7
=	186.0	-186.0	50.0	50.4
=	185.4	-185.4	50.0	55.9
=	184.9	-184.9	50.0	61.3
=	184.3	-184.3	50.0	66.2
=	183.7	-183.7	50.0	70.4
=	183.3	-183.3	50.0	73.3
=	182.7	-182.7	50.0	76.0
=	182.3	-182.3	50.0	77.8
=	181.7	-181.7	50.0	79.6
=	181.1	-181.1	50.0	80.7
=	180.6	-180.6	50.0	81.9
=	180.1	-180.1	50.0	82.7
=	179.5	-179.5	50.0	83.7
=	179.0	-179.0	50.0	84.7
=	178.4	-178.4	50.0	85.7
=	177.8	-177.8	50.0	86.8
=	177.3	-177.3	50.0	87.8
=	176.8	-176.8	50.0	88.6
=	176.3	-176.3	50.0	89.6
=	175.8	-175.8	50.0	90.4
=	175.3	-175.3	50.0	91.3
=	174.8	-174.8	50.0	92.2
=	174.2	-174.2	50.0	93.1
=	173.7	-173.7	50.0	93.9
=	173.2	-173.2	50.0	94.6
=	172.7	-172.7	50.0	95.4
=	172.1	-172.1	50.0	96.1
=	171.5	-171.5	50.0	96.8
=	170.9	-170.9	50.0	97.3
=	170.4	-170.4	50.0	97.8
=	169.8	-169.8	50.0	98.3
=	169.2	-169.2	50.0	98.6
=	168.6	-168.6	50.0	99.0
=	168.0	-168.0	50.0	99.3
=	167.4	-167.4	50.0	99.6
=	166.8	-166.8	50.0	99.9
=	166.1	-166.1	50.0	100.1
=	165.6	-165.6	50.0	100.2
=	165.2	-165.2	50.0	100.4
=	164.7	-164.7	50.0	100.6
=	164.1	-164.1	50.0	100.7
=	163.5	-163.5	50.0	100.8
=	162.9	-162.9	50.0	101.0
=	162.4	-162.4	50.0	101.1
=	161.8	-161.8	50.0	101.2
=	161.2	-161.2	50.0	101.3
=	160.7	-160.7	50.0	101.4
=	160.2	-160.2	50.0	101.5
=	159.6	-159.6	50.0	101.6
