:MSR 	5	 # No. of measurement in file
:SYS BDS 0   # Beam Data Scanner System
#
# RFA300 ASCII Measurement Dump ( BDS format )
#
# Measurement number 	1
#
%VNR 1.0
%MOD 	RAT
%TYP 	SCN
%SCN 	PRO
%FLD 	ION
%DAT 	10-14-2011
%TIM 	12:00:00
%FSZ 	400	150
%BMT 	PHO	   15.0
%SSD 	1000
%BUP 	0
%BRD 	1000
%FSH 	1
%ASC 	0
%WEG 	60
%GPO 	0
%CPO 	0
%MEA 	6
%PRD 	30,0
%PTS 	833
%STS 	    0.0	  -255.8	   30.0 # Start Scan values in mm ( X , Y , Z )
%EDS 	    0.0	   255.6	   30.0 # End Scan values in mm ( X , Y , Z )
#
#	  X      Y      Z     Dose
#
=	0.0	-255.8	30.0	7.7
=	0.0	-255.1	30.0	7.7
=	0.0	-254.5	30.0	7.8
=	0.0	-253.9	30.0	7.8
=	0.0	-253.2	30.0	7.8
=	0.0	-252.6	30.0	7.9
=	0.0	-252.1	30.0	7.9
=	0.0	-251.6	30.0	7.9
=	0.0	-251.1	30.0	8.0
=	0.0	-250.4	30.0	8.0
=	0.0	-249.6	30.0	8.0
=	0.0	-249.1	30.0	8.0
=	0.0	-248.4	30.0	8.1
=	0.0	-247.7	30.0	8.1
=	0.0	-247.1	30.0	8.1
=	0.0	-246.5	30.0	8.2
=	0.0	-245.8	30.0	8.2
=	0.0	-245.2	30.0	8.3
=	0.0	-244.5	30.0	8.3
=	0.0	-243.7	30.0	8.3
=	0.0	-243.1	30.0	8.4
=	0.0	-242.5	30.0	8.4
=	0.0	-241.9	30.0	8.4
=	0.0	-241.3	30.0	8.5
=	0.0	-240.7	30.0	8.5
=	0.0	-240.2	30.0	8.5
=	0.0	-239.5	30.0	8.6
=	0.0	-238.9	30.0	8.6
=	0.0	-238.4	30.0	8.6
=	0.0	-237.9	30.0	8.7
=	0.0	-237.3	30.0	8.7
=	0.0	-236.6	30.0	8.8
=	0.0	-236.0	30.0	8.8
=	0.0	-235.3	30.0	8.9
=	0.0	-234.7	30.0	8.9
=	0.0	-234.0	30.0	9.0
=	0.0	-233.4	30.0	9.1
=	0.0	-232.8	30.0	9.1
=	0.0	-232.2	30.0	9.2
=	0.0	-231.5	30.0	9.3
=	0.0	-230.9	30.0	9.3
=	0.0	-230.3	30.0	9.4
=	0.0	-229.7	30.0	9.5
=	0.0	-229.2	30.0	9.5
=	0.0	-228.6	30.0	9.6
=	0.0	-228.0	30.0	9.7
=	0.0	-227.3	30.0	9.8
=	0.0	-226.8	30.0	9.9
=	0.0	-226.2	30.0	10.0
=	0.0	-225.7	30.0	10.1
=	0.0	-225.2	30.0	10.2
=	0.0	-224.7	30.0	10.3
=	0.0	-224.1	30.0	10.4
=	0.0	-223.5	30.0	10.5
=	0.0	-222.9	30.0	10.7
=	0.0	-222.4	30.0	10.8
=	0.0	-221.8	30.0	10.9
=	0.0	-221.2	30.0	11.0
=	0.0	-220.6	30.0	11.2
=	0.0	-220.1	30.0	11.3
=	0.0	-219.4	30.0	11.6
=	0.0	-218.9	30.0	11.8
=	0.0	-218.2	30.0	12.1
=	0.0	-217.5	30.0	12.4
=	0.0	-216.9	30.0	12.7
=	0.0	-216.3	30.0	13.0
=	0.0	-215.7	30.0	13.5
=	0.0	-215.2	30.0	14.0
=	0.0	-214.5	30.0	14.5
=	0.0	-213.7	30.0	15.4
=	0.0	-213.1	30.0	16.3
=	0.0	-212.5	30.0	17.2
=	0.0	-212.0	30.0	18.1
=	0.0	-211.4	30.0	19.4
=	0.0	-210.8	30.0	21.1
=	0.0	-210.2	30.0	23.0
=	0.0	-209.7	30.0	25.3
=	0.0	-208.9	30.0	29.0
=	0.0	-208.3	30.0	32.7
=	0.0	-207.7	30.0	36.6
=	0.0	-207.2	30.0	40.4
=	0.0	-206.5	30.0	45.7
=	0.0	-206.0	30.0	50.4
=	0.0	-205.4	30.0	55.4
=	0.0	-204.8	30.0	60.3
=	0.0	-204.1	30.0	65.9
=	0.0	-203.5	30.0	70.9
=	0.0	-202.9	30.0	75.1
=	0.0	-202.2	30.0	79.5
=	0.0	-201.5	30.0	82.9
=	0.0	-201.0	30.0	85.2
=	0.0	-200.4	30.0	87.2
=	0.0	-199.8	30.0	88.8
=	0.0	-199.2	30.0	90.0
=	0.0	-198.5	30.0	91.0
=	0.0	-197.8	30.0	92.1
=	0.0	-197.2	30.0	92.6
=	0.0	-196.7	30.0	93.2
=	0.0	-196.1	30.0	93.7
=	0.0	-195.6	30.0	94.1
=	0.0	-194.9	30.0	94.5
=	0.0	-194.3	30.0	95.0
=	0.0	-193.6	30.0	95.3
=	0.0	-193.0	30.0	95.6
=	0.0	-192.4	30.0	95.8
=	0.0	-191.9	30.0	95.9
=	0.0	-191.3	30.0	96.1
=	0.0	-190.7	30.0	96.4
=	0.0	-190.1	30.0	96.6
=	0.0	-189.6	30.0	96.7
=	0.0	-188.8	30.0	96.8
=	0.0	-188.2	30.0	96.9
=	0.0	-187.5	30.0	97.1
=	0.0	-186.9	30.0	97.2
=	0.0	-186.4	30.0	97.2
=	0.0	-185.7	30.0	97.3
=	0.0	-185.0	30.0	97.5
=	0.0	-184.5	30.0	97.5
=	0.0	-184.0	30.0	97.5
=	0.0	-183.4	30.0	97.6
=	0.0	-182.7	30.0	97.6
=	0.0	-182.1	30.0	97.7
=	0.0	-181.4	30.0	97.8
=	0.0	-180.8	30.0	97.8
=	0.0	-180.1	30.0	97.8
=	0.0	-179.5	30.0	97.9
=	0.0	-179.0	30.0	97.9
=	0.0	-178.3	30.0	98.0
=	0.0	-177.6	30.0	98.0
=	0.0	-177.0	30.0	98.0
=	0.0	-176.4	30.0	98.1
=	0.0	-175.9	30.0	98.1
=	0.0	-175.2	30.0	98.2
=	0.0	-174.6	30.0	98.2
=	0.0	-173.9	30.0	98.2
=	0.0	-173.2	30.0	98.3
=	0.0	-172.5	30.0	98.3
=	0.0	-172.0	30.0	98.4
=	0.0	-171.4	30.0	98.5
=	0.0	-170.8	30.0	98.5
=	0.0	-170.2	30.0	98.6
=	0.0	-169.6	30.0	98.7
=	0.0	-168.9	30.0	98.7
=	0.0	-168.3	30.0	98.8
=	0.0	-167.7	30.0	98.8
=	0.0	-167.0	30.0	98.9
=	0.0	-166.5	30.0	98.9
=	0.0	-165.9	30.0	98.9
=	0.0	-165.4	30.0	99.1
=	0.0	-164.7	30.0	99.1
=	0.0	-164.0	30.0	99.2
=	0.0	-163.4	30.0	99.3
=	0.0	-162.8	30.0	99.4
=	0.0	-162.2	30.0	99.4
=	0.0	-161.6	30.0	99.5
=	0.0	-161.0	30.0	99.6
=	0.0	-160.4	30.0	99.6
=	0.0	-159.6	30.0	99.6
=	0.0	-158.8	30.0	99.6
=	0.0	-158.2	30.0	99.7
=	0.0	-157.6	30.0	99.7
=	0.0	-156.9	30.0	99.8
=	0.0	-156.3	30.0	99.8
=	0.0	-155.6	30.0	99.8
=	0.0	-155.1	30.0	99.9
=	0.0	-154.5	30.0	99.9
=	0.0	-153.8	30.0	100.0
=	0.0	-153.3	30.0	100.0
=	0.0	-152.6	30.0	100.1
=	0.0	-151.8	30.0	100.2
=	0.0	-151.2	30.0	100.2
=	0.0	-150.6	30.0	100.2
=	0.0	-150.1	30.0	100.3
=	0.0	-149.4	30.0	100.3
=	0.0	-148.9	30.0	100.3
=	0.0	-148.2	30.0	100.3
=	0.0	-147.6	30.0	100.3
=	0.0	-147.1	30.0	100.4
=	0.0	-146.5	30.0	100.4
=	0.0	-145.9	30.0	100.4
=	0.0	-145.4	30.0	100.4
=	0.0	-144.8	30.0	100.4
=	0.0	-144.2	30.0	100.5
=	0.0	-143.7	30.0	100.5
=	0.0	-143.1	30.0	100.5
=	0.0	-142.4	30.0	100.5
=	0.0	-141.8	30.0	100.5
=	0.0	-141.3	30.0	100.5
=	0.0	-140.7	30.0	100.5
=	0.0	-140.0	30.0	100.6
=	0.0	-139.3	30.0	100.6
=	0.0	-138.7	30.0	100.7
=	0.0	-138.0	30.0	100.7
=	0.0	-137.5	30.0	100.7
=	0.0	-137.0	30.0	100.7
=	0.0	-136.4	30.0	100.8
=	0.0	-135.7	30.0	100.8
=	0.0	-135.0	30.0	100.9
=	0.0	-134.5	30.0	100.9
=	0.0	-133.8	30.0	100.9
=	0.0	-133.2	30.0	100.9
=	0.0	-132.7	30.0	100.9
=	0.0	-132.1	30.0	100.9
=	0.0	-131.5	30.0	101.0
=	0.0	-130.8	30.0	101.1
=	0.0	-130.2	30.0	101.1
=	0.0	-129.7	30.0	101.2
=	0.0	-129.1	30.0	101.3
=	0.0	-128.4	30.0	101.3
=	0.0	-127.8	30.0	101.3
=	0.0	-127.1	30.0	101.4
=	0.0	-126.4	30.0	101.4
=	0.0	-125.8	30.0	101.4
=	0.0	-125.2	30.0	101.4
=	0.0	-124.5	30.0	101.4
=	0.0	-123.8	30.0	101.4
=	0.0	-123.0	30.0	101.5
=	0.0	-122.3	30.0	101.5
=	0.0	-121.8	30.0	101.5
=	0.0	-121.2	30.0	101.5
=	0.0	-120.5	30.0	101.5
=	0.0	-119.8	30.0	101.6
=	0.0	-119.2	30.0	101.6
=	0.0	-118.7	30.0	101.6
=	0.0	-118.2	30.0	101.6
=	0.0	-117.6	30.0	101.6
=	0.0	-116.8	30.0	101.6
=	0.0	-116.1	30.0	101.7
=	0.0	-115.4	30.0	101.7
=	0.0	-114.9	30.0	101.7
=	0.0	-114.3	30.0	101.7
=	0.0	-113.6	30.0	101.7
=	0.0	-112.9	30.0	101.7
=	0.0	-112.3	30.0	101.8
=	0.0	-111.8	30.0	101.8
=	0.0	-111.2	30.0	101.9
=	0.0	-110.6	30.0	102.0
=	0.0	-110.1	30.0	102.0
=	0.0	-109.6	30.0	102.0
=	0.0	-109.0	30.0	102.0
=	0.0	-108.5	30.0	102.0
=	0.0	-107.8	30.0	102.0
=	0.0	-107.3	30.0	102.0
=	0.0	-106.7	30.0	101.9
=	0.0	-106.2	30.0	101.9
=	0.0	-105.5	30.0	101.9
=	0.0	-104.9	30.0	101.9
=	0.0	-104.3	30.0	101.8
=	0.0	-103.5	30.0	101.8
=	0.0	-103.0	30.0	101.8
=	0.0	-102.3	30.0	101.8
=	0.0	-101.7	30.0	101.8
=	0.0	-101.1	30.0	101.8
=	0.0	-100.5	30.0	101.8
=	0.0	-99.7	30.0	101.8
=	0.0	-99.1	30.0	101.8
=	0.0	-98.6	30.0	101.9
=	0.0	-98.1	30.0	101.9
=	0.0	-97.6	30.0	101.9
=	0.0	-96.8	30.0	101.9
=	0.0	-96.1	30.0	101.9
=	0.0	-95.5	30.0	102.0
=	0.0	-95.0	30.0	102.0
=	0.0	-94.4	30.0	102.0
=	0.0	-93.7	30.0	102.1
=	0.0	-93.1	30.0	102.1
=	0.0	-92.5	30.0	102.1
=	0.0	-91.9	30.0	102.2
=	0.0	-91.3	30.0	102.2
=	0.0	-90.7	30.0	102.2
=	0.0	-90.0	30.0	102.3
=	0.0	-89.4	30.0	102.3
=	0.0	-88.9	30.0	102.3
=	0.0	-88.1	30.0	102.4
=	0.0	-87.6	30.0	102.4
=	0.0	-87.0	30.0	102.4
=	0.0	-86.4	30.0	102.4
=	0.0	-85.8	30.0	102.5
=	0.0	-85.2	30.0	102.5
=	0.0	-84.7	30.0	102.5
=	0.0	-84.1	30.0	102.5
=	0.0	-83.5	30.0	102.5
=	0.0	-83.0	30.0	102.5
=	0.0	-82.4	30.0	102.5
=	0.0	-81.8	30.0	102.6
=	0.0	-81.2	30.0	102.6
=	0.0	-80.5	30.0	102.6
=	0.0	-79.8	30.0	102.6
=	0.0	-79.2	30.0	102.6
=	0.0	-78.5	30.0	102.6
=	0.0	-77.9	30.0	102.6
=	0.0	-77.3	30.0	102.7
=	0.0	-76.7	30.0	102.7
=	0.0	-76.1	30.0	102.7
=	0.0	-75.5	30.0	102.7
=	0.0	-74.9	30.0	102.7
=	0.0	-74.3	30.0	102.8
=	0.0	-73.6	30.0	102.9
=	0.0	-73.0	30.0	102.9
=	0.0	-72.3	30.0	102.9
=	0.0	-71.5	30.0	102.9
=	0.0	-70.7	30.0	102.9
=	0.0	-70.2	30.0	102.9
=	0.0	-69.6	30.0	102.9
=	0.0	-68.9	30.0	102.9
=	0.0	-68.2	30.0	102.9
=	0.0	-67.6	30.0	102.9
=	0.0	-67.0	30.0	102.9
=	0.0	-66.4	30.0	102.9
=	0.0	-65.7	30.0	103.0
=	0.0	-65.1	30.0	103.0
=	0.0	-64.6	30.0	103.1
=	0.0	-63.9	30.0	103.1
=	0.0	-63.4	30.0	103.1
=	0.0	-62.8	30.0	103.1
=	0.0	-62.2	30.0	103.1
=	0.0	-61.6	30.0	103.1
=	0.0	-61.0	30.0	103.1
=	0.0	-60.4	30.0	103.1
=	0.0	-59.7	30.0	103.1
=	0.0	-59.1	30.0	103.1
=	0.0	-58.6	30.0	103.1
=	0.0	-58.2	30.0	103.1
=	0.0	-57.6	30.0	103.1
=	0.0	-57.1	30.0	103.1
=	0.0	-56.5	30.0	103.1
=	0.0	-55.9	30.0	103.0
=	0.0	-55.2	30.0	103.0
=	0.0	-54.6	30.0	103.0
=	0.0	-54.0	30.0	103.0
=	0.0	-53.4	30.0	103.0
=	0.0	-52.8	30.0	103.0
=	0.0	-52.2	30.0	103.0
=	0.0	-51.5	30.0	103.0
=	0.0	-51.0	30.0	103.1
=	0.0	-50.4	30.0	103.0
=	0.0	-49.9	30.0	103.1
=	0.0	-49.3	30.0	103.0
=	0.0	-48.7	30.0	103.0
=	0.0	-48.1	30.0	103.0
=	0.0	-47.5	30.0	102.9
=	0.0	-46.7	30.0	102.9
=	0.0	-46.0	30.0	102.9
=	0.0	-45.4	30.0	102.9
=	0.0	-44.8	30.0	102.8
=	0.0	-44.1	30.0	102.8
=	0.0	-43.5	30.0	102.7
=	0.0	-42.9	30.0	102.7
=	0.0	-42.3	30.0	102.7
=	0.0	-41.8	30.0	102.7
=	0.0	-41.0	30.0	102.6
=	0.0	-40.3	30.0	102.6
=	0.0	-39.7	30.0	102.6
=	0.0	-38.9	30.0	102.6
=	0.0	-38.3	30.0	102.6
=	0.0	-37.7	30.0	102.6
=	0.0	-37.1	30.0	102.6
=	0.0	-36.4	30.0	102.5
=	0.0	-35.7	30.0	102.5
=	0.0	-35.0	30.0	102.5
=	0.0	-34.5	30.0	102.4
=	0.0	-33.8	30.0	102.4
=	0.0	-33.2	30.0	102.3
=	0.0	-32.6	30.0	102.3
=	0.0	-32.0	30.0	102.2
=	0.0	-31.4	30.0	102.2
=	0.0	-30.8	30.0	102.2
=	0.0	-30.1	30.0	102.1
=	0.0	-29.4	30.0	102.1
=	0.0	-28.7	30.0	102.1
=	0.0	-28.1	30.0	102.0
=	0.0	-27.4	30.0	102.0
=	0.0	-26.8	30.0	102.0
=	0.0	-26.2	30.0	101.9
=	0.0	-25.6	30.0	101.8
=	0.0	-24.9	30.0	101.8
=	0.0	-24.4	30.0	101.7
=	0.0	-23.7	30.0	101.7
=	0.0	-23.3	30.0	101.6
=	0.0	-22.7	30.0	101.6
=	0.0	-22.1	30.0	101.5
=	0.0	-21.5	30.0	101.3
=	0.0	-20.9	30.0	101.3
=	0.0	-20.3	30.0	101.2
=	0.0	-19.6	30.0	101.1
=	0.0	-18.9	30.0	101.0
=	0.0	-18.3	30.0	100.9
=	0.0	-17.5	30.0	100.9
=	0.0	-17.0	30.0	100.9
=	0.0	-16.4	30.0	100.8
=	0.0	-15.8	30.0	100.8
=	0.0	-15.2	30.0	100.8
=	0.0	-14.6	30.0	100.7
=	0.0	-14.1	30.0	100.7
=	0.0	-13.5	30.0	100.6
=	0.0	-12.9	30.0	100.5
=	0.0	-12.2	30.0	100.5
=	0.0	-11.5	30.0	100.4
=	0.0	-10.9	30.0	100.4
=	0.0	-10.4	30.0	100.4
=	0.0	-9.6	30.0	100.4
=	0.0	-9.1	30.0	100.4
=	0.0	-8.4	30.0	100.3
=	0.0	-7.7	30.0	100.3
=	0.0	-7.0	30.0	100.2
=	0.0	-6.4	30.0	100.2
=	0.0	-5.8	30.0	100.1
=	0.0	-5.3	30.0	100.1
=	0.0	-4.6	30.0	100.0
=	0.0	-4.0	30.0	100.0
=	0.0	-3.5	30.0	100.0
=	0.0	-2.9	30.0	100.0
=	0.0	-2.3	30.0	100.0
=	0.0	-1.6	30.0	100.0
=	0.0	-0.9	30.0	100.0
=	0.0	-0.3	30.0	100.0
=	0.0	0.0	30.0	100.0
=	0.0	0.2	30.0	100.0
=	0.0	0.7	30.0	100.0
=	0.0	1.4	30.0	100.0
=	0.0	2.1	30.0	100.0
=	0.0	2.7	30.0	100.0
=	0.0	3.3	30.0	100.0
=	0.0	3.9	30.0	100.0
=	0.0	4.5	30.0	100.0
=	0.0	5.1	30.0	100.1
=	0.0	5.7	30.0	100.1
=	0.0	6.2	30.0	100.2
=	0.0	6.8	30.0	100.2
=	0.0	7.5	30.0	100.3
=	0.0	8.2	30.0	100.3
=	0.0	9.0	30.0	100.4
=	0.0	9.5	30.0	100.4
=	0.0	10.2	30.0	100.4
=	0.0	10.8	30.0	100.4
=	0.0	11.4	30.0	100.4
=	0.0	12.1	30.0	100.5
=	0.0	12.8	30.0	100.5
=	0.0	13.3	30.0	100.6
=	0.0	13.9	30.0	100.7
=	0.0	14.5	30.0	100.7
=	0.0	15.0	30.0	100.8
=	0.0	15.6	30.0	100.8
=	0.0	16.3	30.0	100.8
=	0.0	16.9	30.0	100.9
=	0.0	17.4	30.0	100.9
=	0.0	18.1	30.0	100.9
=	0.0	18.8	30.0	101.0
=	0.0	19.4	30.0	101.1
=	0.0	20.1	30.0	101.2
=	0.0	20.8	30.0	101.3
=	0.0	21.4	30.0	101.3
=	0.0	21.9	30.0	101.4
=	0.0	22.6	30.0	101.6
=	0.0	23.1	30.0	101.6
=	0.0	23.6	30.0	101.7
=	0.0	24.2	30.0	101.7
=	0.0	24.8	30.0	101.8
=	0.0	25.4	30.0	101.8
=	0.0	26.1	30.0	101.9
=	0.0	26.7	30.0	102.0
=	0.0	27.3	30.0	102.0
=	0.0	27.9	30.0	102.0
=	0.0	28.5	30.0	102.1
=	0.0	29.2	30.0	102.1
=	0.0	29.9	30.0	102.1
=	0.0	30.6	30.0	102.2
=	0.0	31.3	30.0	102.2
=	0.0	31.9	30.0	102.2
=	0.0	32.4	30.0	102.3
=	0.0	33.1	30.0	102.3
=	0.0	33.7	30.0	102.4
=	0.0	34.3	30.0	102.4
=	0.0	34.9	30.0	102.5
=	0.0	35.6	30.0	102.5
=	0.0	36.2	30.0	102.5
=	0.0	36.9	30.0	102.6
=	0.0	37.5	30.0	102.6
=	0.0	38.1	30.0	102.6
=	0.0	38.8	30.0	102.6
=	0.0	39.5	30.0	102.6
=	0.0	40.2	30.0	102.6
=	0.0	40.8	30.0	102.6
=	0.0	41.6	30.0	102.7
=	0.0	42.1	30.0	102.7
=	0.0	42.8	30.0	102.7
=	0.0	43.4	30.0	102.7
=	0.0	44.0	30.0	102.7
=	0.0	44.6	30.0	102.8
=	0.0	45.3	30.0	102.8
=	0.0	45.8	30.0	102.9
=	0.0	46.5	30.0	102.9
=	0.0	47.3	30.0	102.9
=	0.0	47.9	30.0	103.0
=	0.0	48.6	30.0	103.0
=	0.0	49.2	30.0	103.0
=	0.0	49.7	30.0	103.1
=	0.0	50.3	30.0	103.0
=	0.0	50.8	30.0	103.1
=	0.0	51.4	30.0	103.0
=	0.0	52.0	30.0	103.1
=	0.0	52.7	30.0	103.0
=	0.0	53.3	30.0	103.0
=	0.0	53.9	30.0	103.0
=	0.0	54.5	30.0	103.0
=	0.0	55.1	30.0	103.0
=	0.0	55.7	30.0	103.0
=	0.0	56.4	30.0	103.0
=	0.0	56.9	30.0	103.1
=	0.0	57.5	30.0	103.1
=	0.0	58.0	30.0	103.1
=	0.0	58.5	30.0	103.1
=	0.0	59.0	30.0	103.1
=	0.0	59.6	30.0	103.1
=	0.0	60.2	30.0	103.1
=	0.0	60.9	30.0	103.1
=	0.0	61.4	30.0	103.1
=	0.0	62.1	30.0	103.1
=	0.0	62.7	30.0	103.1
=	0.0	63.3	30.0	103.1
=	0.0	63.8	30.0	103.1
=	0.0	64.4	30.0	103.1
=	0.0	65.0	30.0	103.0
=	0.0	65.6	30.0	103.0
=	0.0	66.2	30.0	102.9
=	0.0	66.9	30.0	102.9
=	0.0	67.4	30.0	102.9
=	0.0	68.1	30.0	102.9
=	0.0	68.7	30.0	102.9
=	0.0	69.4	30.0	102.9
=	0.0	70.0	30.0	102.9
=	0.0	70.6	30.0	102.9
=	0.0	71.3	30.0	102.9
=	0.0	72.1	30.0	102.9
=	0.0	72.8	30.0	102.9
=	0.0	73.5	30.0	102.9
=	0.0	74.1	30.0	102.8
=	0.0	74.8	30.0	102.8
=	0.0	75.4	30.0	102.7
=	0.0	75.9	30.0	102.7
=	0.0	76.6	30.0	102.7
=	0.0	77.1	30.0	102.7
=	0.0	77.7	30.0	102.6
=	0.0	78.3	30.0	102.6
=	0.0	79.0	30.0	102.6
=	0.0	79.7	30.0	102.6
=	0.0	80.4	30.0	102.6
=	0.0	81.0	30.0	102.6
=	0.0	81.6	30.0	102.6
=	0.0	82.2	30.0	102.5
=	0.0	82.8	30.0	102.5
=	0.0	83.3	30.0	102.5
=	0.0	83.9	30.0	102.5
=	0.0	84.5	30.0	102.5
=	0.0	85.1	30.0	102.5
=	0.0	85.6	30.0	102.5
=	0.0	86.2	30.0	102.5
=	0.0	86.9	30.0	102.4
=	0.0	87.4	30.0	102.4
=	0.0	88.0	30.0	102.4
=	0.0	88.7	30.0	102.3
=	0.0	89.3	30.0	102.3
=	0.0	89.8	30.0	102.3
=	0.0	90.5	30.0	102.2
=	0.0	91.2	30.0	102.2
=	0.0	91.7	30.0	102.2
=	0.0	92.4	30.0	102.1
=	0.0	93.0	30.0	102.1
=	0.0	93.6	30.0	102.1
=	0.0	94.2	30.0	102.1
=	0.0	94.9	30.0	102.0
=	0.0	95.4	30.0	102.0
=	0.0	95.9	30.0	101.9
=	0.0	96.6	30.0	101.9
=	0.0	97.4	30.0	101.9
=	0.0	98.0	30.0	101.9
=	0.0	98.5	30.0	101.9
=	0.0	99.0	30.0	101.8
=	0.0	99.5	30.0	101.8
=	0.0	100.3	30.0	101.8
=	0.0	101.0	30.0	101.8
=	0.0	101.5	30.0	101.8
=	0.0	102.1	30.0	101.8
=	0.0	102.8	30.0	101.8
=	0.0	103.4	30.0	101.8
=	0.0	104.1	30.0	101.8
=	0.0	104.7	30.0	101.9
=	0.0	105.3	30.0	101.9
=	0.0	106.1	30.0	101.9
=	0.0	106.6	30.0	101.9
=	0.0	107.2	30.0	102.0
=	0.0	107.7	30.0	102.0
=	0.0	108.4	30.0	102.0
=	0.0	108.9	30.0	102.0
=	0.0	109.4	30.0	102.0
=	0.0	110.0	30.0	102.0
=	0.0	110.5	30.0	102.0
=	0.0	111.1	30.0	101.9
=	0.0	111.6	30.0	101.9
=	0.0	112.2	30.0	101.8
=	0.0	112.8	30.0	101.8
=	0.0	113.4	30.0	101.7
=	0.0	114.1	30.0	101.7
=	0.0	114.7	30.0	101.7
=	0.0	115.3	30.0	101.7
=	0.0	115.9	30.0	101.7
=	0.0	116.6	30.0	101.6
=	0.0	117.4	30.0	101.6
=	0.0	118.1	30.0	101.6
=	0.0	118.6	30.0	101.6
=	0.0	119.0	30.0	101.6
=	0.0	119.6	30.0	101.6
=	0.0	120.3	30.0	101.6
=	0.0	121.0	30.0	101.5
=	0.0	121.7	30.0	101.5
=	0.0	122.2	30.0	101.5
=	0.0	122.8	30.0	101.5
=	0.0	123.7	30.0	101.4
=	0.0	124.3	30.0	101.4
=	0.0	125.0	30.0	101.4
=	0.0	125.7	30.0	101.4
=	0.0	126.2	30.0	101.4
=	0.0	126.9	30.0	101.4
=	0.0	127.7	30.0	101.3
=	0.0	128.2	30.0	101.3
=	0.0	128.9	30.0	101.3
=	0.0	129.5	30.0	101.2
=	0.0	130.1	30.0	101.2
=	0.0	130.7	30.0	101.1
=	0.0	131.3	30.0	101.0
=	0.0	132.0	30.0	101.0
=	0.0	132.5	30.0	100.9
=	0.0	133.0	30.0	100.9
=	0.0	133.6	30.0	100.9
=	0.0	134.4	30.0	100.9
=	0.0	134.9	30.0	100.9
=	0.0	135.5	30.0	100.8
=	0.0	136.2	30.0	100.8
=	0.0	136.8	30.0	100.7
=	0.0	137.4	30.0	100.7
=	0.0	137.9	30.0	100.7
=	0.0	138.5	30.0	100.7
=	0.0	139.2	30.0	100.6
=	0.0	139.9	30.0	100.6
=	0.0	140.5	30.0	100.5
=	0.0	141.1	30.0	100.5
=	0.0	141.7	30.0	100.5
=	0.0	142.2	30.0	100.5
=	0.0	142.9	30.0	100.5
=	0.0	143.5	30.0	100.5
=	0.0	144.1	30.0	100.5
=	0.0	144.6	30.0	100.4
=	0.0	145.2	30.0	100.4
=	0.0	145.8	30.0	100.4
=	0.0	146.4	30.0	100.4
=	0.0	147.0	30.0	100.4
=	0.0	147.5	30.0	100.3
=	0.0	148.1	30.0	100.3
=	0.0	148.7	30.0	100.3
=	0.0	149.3	30.0	100.3
=	0.0	149.9	30.0	100.3
=	0.0	150.5	30.0	100.2
=	0.0	151.1	30.0	100.2
=	0.0	151.7	30.0	100.2
=	0.0	152.4	30.0	100.1
=	0.0	153.1	30.0	100.0
=	0.0	153.7	30.0	100.0
=	0.0	154.3	30.0	99.9
=	0.0	154.9	30.0	99.9
=	0.0	155.5	30.0	99.8
=	0.0	156.1	30.0	99.8
=	0.0	156.7	30.0	99.8
=	0.0	157.5	30.0	99.7
=	0.0	158.0	30.0	99.7
=	0.0	158.7	30.0	99.7
=	0.0	159.4	30.0	99.6
=	0.0	160.1	30.0	99.6
=	0.0	160.9	30.0	99.6
=	0.0	161.5	30.0	99.5
=	0.0	162.1	30.0	99.5
=	0.0	162.7	30.0	99.4
=	0.0	163.3	30.0	99.4
=	0.0	163.9	30.0	99.3
=	0.0	164.6	30.0	99.1
=	0.0	165.2	30.0	99.1
=	0.0	165.7	30.0	99.0
=	0.0	166.3	30.0	98.9
=	0.0	166.9	30.0	98.9
=	0.0	167.5	30.0	98.8
=	0.0	168.2	30.0	98.8
=	0.0	168.8	30.0	98.7
=	0.0	169.4	30.0	98.7
=	0.0	170.0	30.0	98.6
=	0.0	170.6	30.0	98.5
=	0.0	171.2	30.0	98.5
=	0.0	171.8	30.0	98.4
=	0.0	172.4	30.0	98.3
=	0.0	173.0	30.0	98.3
=	0.0	173.7	30.0	98.3
=	0.0	174.4	30.0	98.2
=	0.0	175.1	30.0	98.2
=	0.0	175.7	30.0	98.1
=	0.0	176.2	30.0	98.1
=	0.0	176.8	30.0	98.0
=	0.0	177.5	30.0	98.0
=	0.0	178.1	30.0	98.0
=	0.0	178.8	30.0	98.0
=	0.0	179.4	30.0	97.9
=	0.0	180.0	30.0	97.9
=	0.0	180.7	30.0	97.8
=	0.0	181.2	30.0	97.8
=	0.0	181.9	30.0	97.7
=	0.0	182.5	30.0	97.7
=	0.0	183.3	30.0	97.6
=	0.0	183.8	30.0	97.6
=	0.0	184.4	30.0	97.5
=	0.0	184.9	30.0	97.5
=	0.0	185.5	30.0	97.4
=	0.0	186.3	30.0	97.3
=	0.0	186.8	30.0	97.2
=	0.0	187.4	30.0	97.1
=	0.0	188.0	30.0	97.0
=	0.0	188.7	30.0	96.8
=	0.0	189.4	30.0	96.7
=	0.0	190.0	30.0	96.6
=	0.0	190.5	30.0	96.5
=	0.0	191.2	30.0	96.2
=	0.0	191.8	30.0	95.9
=	0.0	192.3	30.0	95.8
=	0.0	192.9	30.0	95.7
=	0.0	193.5	30.0	95.4
=	0.0	194.1	30.0	95.1
=	0.0	194.8	30.0	94.6
=	0.0	195.5	30.0	94.2
=	0.0	196.0	30.0	93.8
=	0.0	196.5	30.0	93.3
=	0.0	197.1	30.0	92.8
=	0.0	197.7	30.0	92.2
=	0.0	198.3	30.0	91.3
=	0.0	199.1	30.0	90.2
=	0.0	199.6	30.0	89.1
=	0.0	200.3	30.0	87.6
=	0.0	200.9	30.0	85.6
=	0.0	201.4	30.0	83.6
=	0.0	202.0	30.0	80.5
=	0.0	202.7	30.0	76.3
=	0.0	203.4	30.0	72.0
=	0.0	204.0	30.0	67.3
=	0.0	204.6	30.0	61.6
=	0.0	205.2	30.0	56.6
=	0.0	205.8	30.0	51.7
=	0.0	206.4	30.0	46.9
=	0.0	207.0	30.0	41.7
=	0.0	207.6	30.0	37.4
=	0.0	208.1	30.0	33.9
=	0.0	208.8	30.0	29.9
=	0.0	209.5	30.0	26.1
=	0.0	210.1	30.0	23.5
=	0.0	210.7	30.0	21.6
=	0.0	211.3	30.0	19.8
=	0.0	211.9	30.0	18.3
=	0.0	212.4	30.0	17.4
=	0.0	212.9	30.0	16.6
=	0.0	213.6	30.0	15.6
=	0.0	214.3	30.0	14.7
=	0.0	215.0	30.0	14.1
=	0.0	215.5	30.0	13.6
=	0.0	216.2	30.0	13.2
=	0.0	216.8	30.0	12.8
=	0.0	217.4	30.0	12.4
=	0.0	218.0	30.0	12.2
=	0.0	218.7	30.0	11.9
=	0.0	219.3	30.0	11.6
=	0.0	219.9	30.0	11.4
=	0.0	220.5	30.0	11.2
=	0.0	221.0	30.0	11.1
=	0.0	221.7	30.0	10.9
=	0.0	222.2	30.0	10.8
=	0.0	222.8	30.0	10.7
=	0.0	223.4	30.0	10.6
=	0.0	223.9	30.0	10.4
=	0.0	224.5	30.0	10.3
=	0.0	225.1	30.0	10.2
=	0.0	225.6	30.0	10.1
=	0.0	226.1	30.0	10.0
=	0.0	226.7	30.0	9.9
=	0.0	227.2	30.0	9.8
=	0.0	227.8	30.0	9.7
=	0.0	228.5	30.0	9.6
=	0.0	229.0	30.0	9.6
=	0.0	229.6	30.0	9.5
=	0.0	230.2	30.0	9.4
=	0.0	230.8	30.0	9.4
=	0.0	231.3	30.0	9.3
=	0.0	232.0	30.0	9.2
=	0.0	232.7	30.0	9.1
=	0.0	233.2	30.0	9.1
=	0.0	233.9	30.0	9.0
=	0.0	234.5	30.0	8.9
=	0.0	235.1	30.0	8.9
=	0.0	235.8	30.0	8.8
=	0.0	236.5	30.0	8.8
=	0.0	237.1	30.0	8.8
=	0.0	237.7	30.0	8.7
=	0.0	238.3	30.0	8.6
=	0.0	238.8	30.0	8.6
=	0.0	239.4	30.0	8.6
=	0.0	240.0	30.0	8.5
=	0.0	240.6	30.0	8.5
=	0.0	241.2	30.0	8.5
=	0.0	241.8	30.0	8.4
=	0.0	242.4	30.0	8.4
=	0.0	242.9	30.0	8.4
=	0.0	243.5	30.0	8.4
=	0.0	244.3	30.0	8.3
=	0.0	245.0	30.0	8.3
=	0.0	245.7	30.0	8.2
=	0.0	246.3	30.0	8.2
=	0.0	246.9	30.0	8.2
=	0.0	247.6	30.0	8.1
=	0.0	248.2	30.0	8.1
=	0.0	248.9	30.0	8.0
=	0.0	249.5	30.0	8.0
=	0.0	250.2	30.0	8.0
=	0.0	250.9	30.0	8.0
=	0.0	251.5	30.0	7.9
=	0.0	252.0	30.0	7.9
=	0.0	252.5	30.0	7.9
=	0.0	253.1	30.0	7.8
=	0.0	253.7	30.0	7.8
=	0.0	254.4	30.0	7.8
=	0.0	255.0	30.0	7.7
=	0.0	255.6	30.0	7.7
:EOM # End of Measurement
#
# RFA300 ASCII Measurement Dump ( BDS format )
#
# Measurement number 	2
#
%VNR 1.0
%MOD 	RAT
%TYP 	SCN
%SCN 	PRO
%FLD 	ION
%DAT 	10-14-2011
%TIM 	12:00:00
%FSZ 	400	150
%BMT 	PHO	   15.0
%SSD 	1000
%BUP 	0
%BRD 	1000
%FSH 	1
%ASC 	0
%WEG 	60
%GPO 	0
%CPO 	0
%MEA 	6
%PRD 	50,0
%PTS 	833
%STS 	    0.0	  -259.7	   50.0 # Start Scan values in mm ( X , Y , Z )
%EDS 	    0.0	   259.2	   50.0 # End Scan values in mm ( X , Y , Z )
#
#	  X      Y      Z     Dose
#
=	0.0	-259.7	50.0	7.3
=	0.0	-259.1	50.0	7.4
=	0.0	-258.5	50.0	7.4
=	0.0	-257.8	50.0	7.4
=	0.0	-257.1	50.0	7.5
=	0.0	-256.6	50.0	7.5
=	0.0	-256.0	50.0	7.6
=	0.0	-255.4	50.0	7.6
=	0.0	-254.9	50.0	7.6
=	0.0	-254.1	50.0	7.7
=	0.0	-253.3	50.0	7.7
=	0.0	-252.6	50.0	7.7
=	0.0	-251.9	50.0	7.7
=	0.0	-251.3	50.0	7.8
=	0.0	-250.7	50.0	7.8
=	0.0	-250.1	50.0	7.8
=	0.0	-249.3	50.0	7.9
=	0.0	-248.7	50.0	7.9
=	0.0	-248.2	50.0	7.9
=	0.0	-247.7	50.0	7.9
=	0.0	-247.0	50.0	8.0
=	0.0	-246.3	50.0	8.0
=	0.0	-245.7	50.0	8.1
=	0.0	-245.1	50.0	8.1
=	0.0	-244.6	50.0	8.1
=	0.0	-243.9	50.0	8.2
=	0.0	-243.3	50.0	8.2
=	0.0	-242.6	50.0	8.3
=	0.0	-242.0	50.0	8.3
=	0.0	-241.4	50.0	8.4
=	0.0	-240.8	50.0	8.4
=	0.0	-240.3	50.0	8.5
=	0.0	-239.5	50.0	8.5
=	0.0	-238.8	50.0	8.6
=	0.0	-238.2	50.0	8.7
=	0.0	-237.5	50.0	8.7
=	0.0	-236.8	50.0	8.8
=	0.0	-236.3	50.0	8.9
=	0.0	-235.8	50.0	9.0
=	0.0	-235.3	50.0	9.0
=	0.0	-234.6	50.0	9.1
=	0.0	-234.1	50.0	9.2
=	0.0	-233.4	50.0	9.3
=	0.0	-232.8	50.0	9.4
=	0.0	-232.1	50.0	9.5
=	0.0	-231.6	50.0	9.6
=	0.0	-231.0	50.0	9.7
=	0.0	-230.4	50.0	9.8
=	0.0	-229.9	50.0	9.9
=	0.0	-229.3	50.0	10.0
=	0.0	-228.7	50.0	10.1
=	0.0	-228.0	50.0	10.3
=	0.0	-227.4	50.0	10.4
=	0.0	-226.8	50.0	10.5
=	0.0	-226.3	50.0	10.6
=	0.0	-225.7	50.0	10.8
=	0.0	-225.1	50.0	10.9
=	0.0	-224.6	50.0	11.1
=	0.0	-223.9	50.0	11.4
=	0.0	-223.3	50.0	11.6
=	0.0	-222.7	50.0	11.9
=	0.0	-222.1	50.0	12.1
=	0.0	-221.5	50.0	12.4
=	0.0	-220.9	50.0	12.8
=	0.0	-220.3	50.0	13.2
=	0.0	-219.5	50.0	13.8
=	0.0	-218.8	50.0	14.5
=	0.0	-218.1	50.0	15.2
=	0.0	-217.4	50.0	16.0
=	0.0	-216.8	50.0	17.0
=	0.0	-216.3	50.0	17.9
=	0.0	-215.7	50.0	19.0
=	0.0	-215.2	50.0	20.4
=	0.0	-214.6	50.0	22.0
=	0.0	-214.1	50.0	24.0
=	0.0	-213.4	50.0	26.9
=	0.0	-212.6	50.0	30.9
=	0.0	-212.0	50.0	34.5
=	0.0	-211.5	50.0	37.9
=	0.0	-210.8	50.0	42.8
=	0.0	-210.2	50.0	47.7
=	0.0	-209.5	50.0	52.8
=	0.0	-208.9	50.0	58.2
=	0.0	-208.3	50.0	63.5
=	0.0	-207.6	50.0	68.5
=	0.0	-206.9	50.0	73.8
=	0.0	-206.1	50.0	78.5
=	0.0	-205.5	50.0	81.4
=	0.0	-204.8	50.0	84.1
=	0.0	-204.3	50.0	85.8
=	0.0	-203.7	50.0	87.2
=	0.0	-203.2	50.0	88.5
=	0.0	-202.5	50.0	89.7
=	0.0	-201.9	50.0	90.5
=	0.0	-201.2	50.0	91.4
=	0.0	-200.7	50.0	91.9
=	0.0	-200.1	50.0	92.5
=	0.0	-199.6	50.0	93.0
=	0.0	-199.0	50.0	93.4
=	0.0	-198.4	50.0	93.7
=	0.0	-197.9	50.0	94.0
=	0.0	-197.4	50.0	94.3
=	0.0	-196.8	50.0	94.7
=	0.0	-196.1	50.0	95.0
=	0.0	-195.6	50.0	95.2
=	0.0	-194.9	50.0	95.5
=	0.0	-194.1	50.0	95.8
=	0.0	-193.3	50.0	96.1
=	0.0	-192.5	50.0	96.3
=	0.0	-191.9	50.0	96.5
=	0.0	-191.4	50.0	96.7
=	0.0	-190.7	50.0	96.8
=	0.0	-190.1	50.0	96.9
=	0.0	-189.5	50.0	97.0
=	0.0	-188.8	50.0	97.0
=	0.0	-188.0	50.0	97.1
=	0.0	-187.4	50.0	97.2
=	0.0	-186.8	50.0	97.3
=	0.0	-186.2	50.0	97.3
=	0.0	-185.6	50.0	97.4
=	0.0	-185.0	50.0	97.4
=	0.0	-184.3	50.0	97.4
=	0.0	-183.7	50.0	97.5
=	0.0	-183.1	50.0	97.5
=	0.0	-182.4	50.0	97.6
=	0.0	-181.8	50.0	97.6
=	0.0	-181.2	50.0	97.7
=	0.0	-180.5	50.0	97.7
=	0.0	-179.9	50.0	97.8
=	0.0	-179.3	50.0	97.8
=	0.0	-178.5	50.0	97.9
=	0.0	-177.8	50.0	98.0
=	0.0	-177.2	50.0	98.0
=	0.0	-176.6	50.0	98.1
=	0.0	-176.1	50.0	98.2
=	0.0	-175.4	50.0	98.2
=	0.0	-174.7	50.0	98.3
=	0.0	-174.2	50.0	98.4
=	0.0	-173.7	50.0	98.4
=	0.0	-173.2	50.0	98.5
=	0.0	-172.6	50.0	98.5
=	0.0	-171.9	50.0	98.6
=	0.0	-171.2	50.0	98.6
=	0.0	-170.5	50.0	98.7
=	0.0	-169.8	50.0	98.8
=	0.0	-169.1	50.0	98.9
=	0.0	-168.5	50.0	98.9
=	0.0	-168.0	50.0	99.0
=	0.0	-167.4	50.0	99.1
=	0.0	-166.6	50.0	99.2
=	0.0	-165.9	50.0	99.2
=	0.0	-165.3	50.0	99.3
=	0.0	-164.6	50.0	99.4
=	0.0	-164.0	50.0	99.4
=	0.0	-163.4	50.0	99.5
=	0.0	-162.7	50.0	99.6
=	0.0	-162.2	50.0	99.6
=	0.0	-161.5	50.0	99.7
=	0.0	-160.8	50.0	99.7
=	0.0	-160.1	50.0	99.8
=	0.0	-159.5	50.0	99.8
=	0.0	-158.8	50.0	99.8
=	0.0	-158.2	50.0	99.9
=	0.0	-157.5	50.0	100.0
=	0.0	-156.9	50.0	100.0
=	0.0	-156.2	50.0	100.1
=	0.0	-155.5	50.0	100.1
=	0.0	-154.8	50.0	100.1
=	0.0	-154.3	50.0	100.2
=	0.0	-153.6	50.0	100.2
=	0.0	-152.9	50.0	100.2
=	0.0	-152.2	50.0	100.2
=	0.0	-151.6	50.0	100.2
=	0.0	-150.9	50.0	100.2
=	0.0	-150.2	50.0	100.3
=	0.0	-149.7	50.0	100.3
=	0.0	-149.0	50.0	100.3
=	0.0	-148.3	50.0	100.4
=	0.0	-147.7	50.0	100.5
=	0.0	-147.1	50.0	100.5
=	0.0	-146.4	50.0	100.5
=	0.0	-145.7	50.0	100.5
=	0.0	-144.9	50.0	100.6
=	0.0	-144.4	50.0	100.6
=	0.0	-143.9	50.0	100.6
=	0.0	-143.3	50.0	100.6
=	0.0	-142.7	50.0	100.6
=	0.0	-142.2	50.0	100.7
=	0.0	-141.6	50.0	100.7
=	0.0	-141.0	50.0	100.7
=	0.0	-140.2	50.0	100.7
=	0.0	-139.4	50.0	100.7
=	0.0	-138.6	50.0	100.8
=	0.0	-138.0	50.0	100.8
=	0.0	-137.4	50.0	100.8
=	0.0	-136.8	50.0	100.9
=	0.0	-136.3	50.0	100.9
=	0.0	-135.8	50.0	101.0
=	0.0	-135.2	50.0	101.0
=	0.0	-134.6	50.0	101.1
=	0.0	-134.0	50.0	101.1
=	0.0	-133.3	50.0	101.1
=	0.0	-132.8	50.0	101.2
=	0.0	-132.1	50.0	101.2
=	0.0	-131.5	50.0	101.3
=	0.0	-130.8	50.0	101.3
=	0.0	-130.2	50.0	101.3
=	0.0	-129.6	50.0	101.4
=	0.0	-129.0	50.0	101.4
=	0.0	-128.2	50.0	101.5
=	0.0	-127.5	50.0	101.5
=	0.0	-126.9	50.0	101.5
=	0.0	-126.3	50.0	101.6
=	0.0	-125.8	50.0	101.6
=	0.0	-125.3	50.0	101.6
=	0.0	-124.7	50.0	101.6
=	0.0	-124.1	50.0	101.7
=	0.0	-123.6	50.0	101.7
=	0.0	-123.0	50.0	101.7
=	0.0	-122.5	50.0	101.7
=	0.0	-122.0	50.0	101.8
=	0.0	-121.3	50.0	101.8
=	0.0	-120.6	50.0	101.8
=	0.0	-120.0	50.0	101.8
=	0.0	-119.3	50.0	101.8
=	0.0	-118.7	50.0	101.8
=	0.0	-117.9	50.0	101.8
=	0.0	-117.4	50.0	101.8
=	0.0	-116.8	50.0	101.8
=	0.0	-116.3	50.0	101.9
=	0.0	-115.8	50.0	101.9
=	0.0	-115.2	50.0	101.9
=	0.0	-114.6	50.0	102.0
=	0.0	-114.0	50.0	102.0
=	0.0	-113.5	50.0	102.0
=	0.0	-112.8	50.0	102.1
=	0.0	-112.2	50.0	102.1
=	0.0	-111.4	50.0	102.1
=	0.0	-110.6	50.0	102.1
=	0.0	-110.0	50.0	102.1
=	0.0	-109.4	50.0	102.1
=	0.0	-108.8	50.0	102.1
=	0.0	-108.2	50.0	102.1
=	0.0	-107.7	50.0	102.1
=	0.0	-107.0	50.0	102.1
=	0.0	-106.4	50.0	102.0
=	0.0	-105.9	50.0	102.0
=	0.0	-105.3	50.0	102.0
=	0.0	-104.7	50.0	101.9
=	0.0	-104.2	50.0	101.9
=	0.0	-103.5	50.0	101.9
=	0.0	-102.7	50.0	101.9
=	0.0	-102.1	50.0	101.9
=	0.0	-101.6	50.0	101.9
=	0.0	-101.0	50.0	101.9
=	0.0	-100.4	50.0	101.9
=	0.0	-99.6	50.0	102.0
=	0.0	-98.8	50.0	102.0
=	0.0	-98.1	50.0	102.0
=	0.0	-97.6	50.0	102.0
=	0.0	-97.0	50.0	102.1
=	0.0	-96.3	50.0	102.1
=	0.0	-95.7	50.0	102.1
=	0.0	-95.1	50.0	102.2
=	0.0	-94.5	50.0	102.2
=	0.0	-93.7	50.0	102.3
=	0.0	-93.1	50.0	102.3
=	0.0	-92.6	50.0	102.3
=	0.0	-91.9	50.0	102.3
=	0.0	-91.3	50.0	102.3
=	0.0	-90.7	50.0	102.4
=	0.0	-90.1	50.0	102.4
=	0.0	-89.3	50.0	102.4
=	0.0	-88.6	50.0	102.5
=	0.0	-87.9	50.0	102.6
=	0.0	-87.1	50.0	102.6
=	0.0	-86.5	50.0	102.6
=	0.0	-85.9	50.0	102.6
=	0.0	-85.2	50.0	102.7
=	0.0	-84.5	50.0	102.7
=	0.0	-83.8	50.0	102.7
=	0.0	-83.2	50.0	102.7
=	0.0	-82.7	50.0	102.7
=	0.0	-82.1	50.0	102.7
=	0.0	-81.5	50.0	102.7
=	0.0	-80.9	50.0	102.7
=	0.0	-80.3	50.0	102.7
=	0.0	-79.6	50.0	102.7
=	0.0	-79.0	50.0	102.7
=	0.0	-78.5	50.0	102.7
=	0.0	-77.9	50.0	102.7
=	0.0	-77.3	50.0	102.8
=	0.0	-76.8	50.0	102.8
=	0.0	-76.2	50.0	102.8
=	0.0	-75.6	50.0	102.8
=	0.0	-75.0	50.0	102.8
=	0.0	-74.3	50.0	102.8
=	0.0	-73.6	50.0	102.9
=	0.0	-73.0	50.0	102.9
=	0.0	-72.5	50.0	102.9
=	0.0	-71.9	50.0	102.9
=	0.0	-71.2	50.0	102.9
=	0.0	-70.6	50.0	103.0
=	0.0	-69.8	50.0	103.0
=	0.0	-69.2	50.0	102.9
=	0.0	-68.7	50.0	103.0
=	0.0	-68.0	50.0	103.0
=	0.0	-67.3	50.0	103.0
=	0.0	-66.7	50.0	103.0
=	0.0	-66.2	50.0	103.0
=	0.0	-65.7	50.0	103.0
=	0.0	-65.1	50.0	103.1
=	0.0	-64.4	50.0	103.1
=	0.0	-63.7	50.0	103.1
=	0.0	-63.1	50.0	103.1
=	0.0	-62.5	50.0	103.1
=	0.0	-61.8	50.0	103.1
=	0.0	-61.1	50.0	103.1
=	0.0	-60.4	50.0	103.1
=	0.0	-59.8	50.0	103.1
=	0.0	-59.2	50.0	103.1
=	0.0	-58.7	50.0	103.1
=	0.0	-58.1	50.0	103.1
=	0.0	-57.6	50.0	103.1
=	0.0	-57.0	50.0	103.1
=	0.0	-56.4	50.0	103.1
=	0.0	-56.0	50.0	103.1
=	0.0	-55.4	50.0	103.1
=	0.0	-54.8	50.0	103.1
=	0.0	-54.2	50.0	103.0
=	0.0	-53.6	50.0	103.0
=	0.0	-52.9	50.0	103.0
=	0.0	-52.1	50.0	103.0
=	0.0	-51.3	50.0	103.0
=	0.0	-50.7	50.0	103.0
=	0.0	-50.0	50.0	103.0
=	0.0	-49.5	50.0	103.0
=	0.0	-48.9	50.0	103.0
=	0.0	-48.3	50.0	103.0
=	0.0	-47.7	50.0	103.0
=	0.0	-47.1	50.0	102.9
=	0.0	-46.5	50.0	102.9
=	0.0	-45.8	50.0	102.8
=	0.0	-45.3	50.0	102.8
=	0.0	-44.8	50.0	102.8
=	0.0	-44.1	50.0	102.8
=	0.0	-43.4	50.0	102.7
=	0.0	-42.8	50.0	102.7
=	0.0	-42.0	50.0	102.7
=	0.0	-41.3	50.0	102.7
=	0.0	-40.7	50.0	102.7
=	0.0	-40.1	50.0	102.7
=	0.0	-39.5	50.0	102.7
=	0.0	-38.8	50.0	102.6
=	0.0	-38.2	50.0	102.6
=	0.0	-37.6	50.0	102.5
=	0.0	-37.0	50.0	102.5
=	0.0	-36.3	50.0	102.5
=	0.0	-35.6	50.0	102.5
=	0.0	-35.0	50.0	102.5
=	0.0	-34.6	50.0	102.5
=	0.0	-34.1	50.0	102.4
=	0.0	-33.5	50.0	102.4
=	0.0	-32.9	50.0	102.4
=	0.0	-32.1	50.0	102.4
=	0.0	-31.4	50.0	102.3
=	0.0	-30.7	50.0	102.2
=	0.0	-30.0	50.0	102.2
=	0.0	-29.4	50.0	102.1
=	0.0	-28.7	50.0	102.1
=	0.0	-28.1	50.0	102.0
=	0.0	-27.5	50.0	102.0
=	0.0	-26.9	50.0	101.9
=	0.0	-26.2	50.0	101.8
=	0.0	-25.5	50.0	101.8
=	0.0	-24.8	50.0	101.7
=	0.0	-24.1	50.0	101.6
=	0.0	-23.4	50.0	101.5
=	0.0	-22.8	50.0	101.4
=	0.0	-22.2	50.0	101.3
=	0.0	-21.7	50.0	101.3
=	0.0	-21.1	50.0	101.3
=	0.0	-20.5	50.0	101.2
=	0.0	-20.0	50.0	101.1
=	0.0	-19.4	50.0	101.1
=	0.0	-18.9	50.0	101.0
=	0.0	-18.3	50.0	101.0
=	0.0	-17.7	50.0	100.9
=	0.0	-17.1	50.0	100.8
=	0.0	-16.4	50.0	100.8
=	0.0	-15.8	50.0	100.7
=	0.0	-15.2	50.0	100.7
=	0.0	-14.6	50.0	100.7
=	0.0	-14.0	50.0	100.6
=	0.0	-13.5	50.0	100.6
=	0.0	-12.8	50.0	100.5
=	0.0	-12.3	50.0	100.5
=	0.0	-11.6	50.0	100.5
=	0.0	-10.9	50.0	100.5
=	0.0	-10.4	50.0	100.4
=	0.0	-9.8	50.0	100.3
=	0.0	-9.2	50.0	100.3
=	0.0	-8.6	50.0	100.3
=	0.0	-8.0	50.0	100.3
=	0.0	-7.4	50.0	100.2
=	0.0	-6.7	50.0	100.2
=	0.0	-6.2	50.0	100.2
=	0.0	-5.5	50.0	100.1
=	0.0	-4.9	50.0	100.1
=	0.0	-4.3	50.0	100.0
=	0.0	-3.7	50.0	100.0
=	0.0	-3.0	50.0	100.0
=	0.0	-2.3	50.0	100.0
=	0.0	-1.8	50.0	100.0
=	0.0	-1.2	50.0	100.0
=	0.0	-0.6	50.0	100.0
=	0.0	0.0	50.0	100.0
=	0.0	0.1	50.0	100.0
=	0.0	0.7	50.0	100.0
=	0.0	1.4	50.0	100.0
=	0.0	1.9	50.0	100.0
=	0.0	2.5	50.0	100.0
=	0.0	3.2	50.0	100.0
=	0.0	3.8	50.0	100.0
=	0.0	4.5	50.0	100.1
=	0.0	5.1	50.0	100.1
=	0.0	5.6	50.0	100.1
=	0.0	6.3	50.0	100.2
=	0.0	6.9	50.0	100.2
=	0.0	7.5	50.0	100.2
=	0.0	8.1	50.0	100.3
=	0.0	8.7	50.0	100.3
=	0.0	9.4	50.0	100.3
=	0.0	10.0	50.0	100.3
=	0.0	10.5	50.0	100.4
=	0.0	11.1	50.0	100.5
=	0.0	11.7	50.0	100.5
=	0.0	12.4	50.0	100.5
=	0.0	13.0	50.0	100.5
=	0.0	13.7	50.0	100.6
=	0.0	14.2	50.0	100.6
=	0.0	14.7	50.0	100.7
=	0.0	15.4	50.0	100.7
