:MSR 	4	 # No. of measurement in file
:SYS BDS 0   # Beam Data Scanner System
#
# RFA300 ASCII Measurement Dump ( BDS format )
#
# Measurement number 	1
#
%VNR 1.0
%MOD 	RAT
%TYP 	SCN
%SCN 	DPT
%FLD 	ION
%DAT 	09-29-2011
%TIM 	12:00:00
%FSZ 	040	040
%BMT 	PHO	   15.0
%SSD 	1200
%BUP 	0
%BRD 	1200
%FSH 	1
%ASC 	0
%WEG 	60
%GPO 	0
%CPO 	0
%MEA 	5
%PRD 	0,0
%PTS 	732
%STS 	    0.0	  0.0	   0.0 # Start Scan values in mm ( X , Y , Z )
%EDS 	    0.0	   0.0	   305.4 # End Scan values in mm ( X , Y , Z )
#
#	  X      Y      Z     Dose
#
=	0.0	0.0	0.0	23.7
=	0.0	0.0	0.2	24.1
=	0.0	0.0	0.4	25.0
=	0.0	0.0	0.8	26.2
=	0.0	0.0	1.2	28.0
=	0.0	0.0	1.5	29.6
=	0.0	0.0	1.8	31.2
=	0.0	0.0	2.0	33.1
=	0.0	0.0	2.3	35.8
=	0.0	0.0	2.8	39.7
=	0.0	0.0	3.2	43.4
=	0.0	0.0	3.5	46.2
=	0.0	0.0	3.9	48.8
=	0.0	0.0	4.2	51.0
=	0.0	0.0	4.6	53.7
=	0.0	0.0	5.0	56.5
=	0.0	0.0	5.4	58.8
=	0.0	0.0	5.6	60.4
=	0.0	0.0	6.0	62.2
=	0.0	0.0	6.4	64.6
=	0.0	0.0	6.8	66.7
=	0.0	0.0	7.2	68.5
=	0.0	0.0	7.6	70.2
=	0.0	0.0	8.0	71.8
=	0.0	0.0	8.4	73.5
=	0.0	0.0	8.8	75.3
=	0.0	0.0	9.2	76.8
=	0.0	0.0	9.6	78.1
=	0.0	0.0	10.1	79.2
=	0.0	0.0	10.5	80.5
=	0.0	0.0	10.8	81.6
=	0.0	0.0	11.2	82.6
=	0.0	0.0	11.5	83.3
=	0.0	0.0	11.7	84.1
=	0.0	0.0	12.0	84.9
=	0.0	0.0	12.3	85.5
=	0.0	0.0	12.5	86.0
=	0.0	0.0	12.9	86.8
=	0.0	0.0	13.3	87.8
=	0.0	0.0	13.7	88.8
=	0.0	0.0	14.0	89.3
=	0.0	0.0	14.3	89.7
=	0.0	0.0	14.5	90.1
=	0.0	0.0	14.9	90.8
=	0.0	0.0	15.3	91.6
=	0.0	0.0	15.7	92.1
=	0.0	0.0	16.1	92.8
=	0.0	0.0	16.5	93.3
=	0.0	0.0	16.9	93.6
=	0.0	0.0	17.3	93.9
=	0.0	0.0	17.6	94.3
=	0.0	0.0	17.9	94.5
=	0.0	0.0	18.3	94.9
=	0.0	0.0	18.6	95.1
=	0.0	0.0	18.9	95.6
=	0.0	0.0	19.3	96.0
=	0.0	0.0	19.7	96.5
=	0.0	0.0	19.9	96.6
=	0.0	0.0	20.3	96.8
=	0.0	0.0	20.7	97.1
=	0.0	0.0	21.1	97.5
=	0.0	0.0	21.6	97.8
=	0.0	0.0	22.0	98.1
=	0.0	0.0	22.4	98.4
=	0.0	0.0	22.8	98.5
=	0.0	0.0	23.2	98.7
=	0.0	0.0	23.5	98.7
=	0.0	0.0	24.0	98.7
=	0.0	0.0	24.4	98.9
=	0.0	0.0	24.8	99.1
=	0.0	0.0	25.2	99.2
=	0.0	0.0	25.6	99.2
=	0.0	0.0	26.0	99.3
=	0.0	0.0	26.4	99.5
=	0.0	0.0	26.8	99.6
=	0.0	0.0	27.2	99.7
=	0.0	0.0	27.6	99.7
=	0.0	0.0	27.9	99.8
=	0.0	0.0	28.2	99.8
=	0.0	0.0	28.6	99.9
=	0.0	0.0	29.0	99.9
=	0.0	0.0	29.4	100.0
=	0.0	0.0	29.8	100.0
=	0.0	0.0	30.3	100.0
=	0.0	0.0	30.7	100.0
=	0.0	0.0	31.0	100.0
=	0.0	0.0	31.4	100.0
=	0.0	0.0	31.9	100.0
=	0.0	0.0	32.3	100.0
=	0.0	0.0	32.7	100.0
=	0.0	0.0	33.1	99.9
=	0.0	0.0	33.4	99.8
=	0.0	0.0	33.6	99.8
=	0.0	0.0	33.9	99.7
=	0.0	0.0	34.2	99.7
=	0.0	0.0	34.5	99.6
=	0.0	0.0	34.8	99.5
=	0.0	0.0	35.0	99.5
=	0.0	0.0	35.4	99.4
=	0.0	0.0	35.8	99.3
=	0.0	0.0	36.1	99.2
=	0.0	0.0	36.6	99.2
=	0.0	0.0	37.0	99.1
=	0.0	0.0	37.3	99.0
=	0.0	0.0	37.7	98.9
=	0.0	0.0	38.1	98.8
=	0.0	0.0	38.4	98.8
=	0.0	0.0	38.8	98.7
=	0.0	0.0	39.1	98.6
=	0.0	0.0	39.5	98.5
=	0.0	0.0	39.9	98.4
=	0.0	0.0	40.3	98.2
=	0.0	0.0	40.7	98.1
=	0.0	0.0	41.1	98.0
=	0.0	0.0	41.5	97.9
=	0.0	0.0	41.9	97.9
=	0.0	0.0	42.3	97.7
=	0.0	0.0	42.7	97.6
=	0.0	0.0	43.1	97.4
=	0.0	0.0	43.5	97.3
=	0.0	0.0	43.9	97.1
=	0.0	0.0	44.3	97.0
=	0.0	0.0	44.6	96.9
=	0.0	0.0	44.9	96.8
=	0.0	0.0	45.5	96.6
=	0.0	0.0	46.0	96.4
=	0.0	0.0	46.5	96.2
=	0.0	0.0	47.0	96.0
=	0.0	0.0	47.4	95.8
=	0.0	0.0	47.8	95.6
=	0.0	0.0	48.2	95.4
=	0.0	0.0	48.8	95.3
=	0.0	0.0	49.2	95.2
=	0.0	0.0	49.7	95.1
=	0.0	0.0	50.1	95.1
=	0.0	0.0	50.5	95.0
=	0.0	0.0	50.9	94.8
=	0.0	0.0	51.3	94.7
=	0.0	0.0	51.7	94.6
=	0.0	0.0	52.1	94.3
=	0.0	0.0	52.5	94.1
=	0.0	0.0	52.9	94.0
=	0.0	0.0	53.3	93.8
=	0.0	0.0	53.7	93.6
=	0.0	0.0	54.2	93.5
=	0.0	0.0	54.6	93.5
=	0.0	0.0	55.0	93.3
=	0.0	0.0	55.4	93.1
=	0.0	0.0	55.8	92.9
=	0.0	0.0	56.2	92.7
=	0.0	0.0	56.6	92.5
=	0.0	0.0	57.0	92.4
=	0.0	0.0	57.4	92.2
=	0.0	0.0	57.8	92.0
=	0.0	0.0	58.2	91.8
=	0.0	0.0	58.6	91.7
=	0.0	0.0	59.0	91.5
=	0.0	0.0	59.4	91.4
=	0.0	0.0	59.7	91.3
=	0.0	0.0	60.0	91.3
=	0.0	0.0	60.4	91.1
=	0.0	0.0	60.7	91.1
=	0.0	0.0	61.1	91.0
=	0.0	0.0	61.5	90.8
=	0.0	0.0	61.7	90.7
=	0.0	0.0	62.1	90.6
=	0.0	0.0	62.4	90.5
=	0.0	0.0	62.7	90.4
=	0.0	0.0	63.1	90.2
=	0.0	0.0	63.4	90.1
=	0.0	0.0	63.7	90.0
=	0.0	0.0	64.1	89.9
=	0.0	0.0	64.3	89.8
=	0.0	0.0	64.7	89.7
=	0.0	0.0	65.0	89.6
=	0.0	0.0	65.3	89.5
=	0.0	0.0	65.7	89.3
=	0.0	0.0	66.1	89.1
=	0.0	0.0	66.4	88.9
=	0.0	0.0	66.7	88.8
=	0.0	0.0	67.2	88.6
=	0.0	0.0	67.6	88.5
=	0.0	0.0	68.0	88.4
=	0.0	0.0	68.4	88.3
=	0.0	0.0	68.8	88.2
=	0.0	0.0	69.2	88.0
=	0.0	0.0	69.7	87.8
=	0.0	0.0	70.1	87.7
=	0.0	0.0	70.5	87.6
=	0.0	0.0	70.8	87.4
=	0.0	0.0	71.3	87.1
=	0.0	0.0	71.7	87.0
=	0.0	0.0	72.1	86.9
=	0.0	0.0	72.5	86.7
=	0.0	0.0	72.9	86.5
=	0.0	0.0	73.3	86.4
=	0.0	0.0	73.7	86.3
=	0.0	0.0	74.1	86.2
=	0.0	0.0	74.5	86.1
=	0.0	0.0	74.9	85.9
=	0.0	0.0	75.4	85.8
=	0.0	0.0	75.8	85.6
=	0.0	0.0	76.2	85.3
=	0.0	0.0	76.6	85.1
=	0.0	0.0	77.0	84.9
=	0.0	0.0	77.4	84.8
=	0.0	0.0	77.8	84.7
=	0.0	0.0	78.2	84.7
=	0.0	0.0	78.6	84.6
=	0.0	0.0	79.0	84.5
=	0.0	0.0	79.4	84.4
=	0.0	0.0	79.8	84.2
=	0.0	0.0	80.2	84.1
=	0.0	0.0	80.6	83.9
=	0.0	0.0	81.0	83.7
=	0.0	0.0	81.4	83.6
=	0.0	0.0	81.8	83.4
=	0.0	0.0	82.2	83.4
=	0.0	0.0	82.4	83.3
=	0.0	0.0	82.7	83.2
=	0.0	0.0	83.0	83.2
=	0.0	0.0	83.3	83.1
=	0.0	0.0	83.6	83.0
=	0.0	0.0	83.9	82.8
=	0.0	0.0	84.2	82.7
=	0.0	0.0	84.5	82.5
=	0.0	0.0	84.8	82.4
=	0.0	0.0	85.2	82.2
=	0.0	0.0	85.6	82.1
=	0.0	0.0	85.9	82.1
=	0.0	0.0	86.2	82.0
=	0.0	0.0	86.5	81.9
=	0.0	0.0	86.8	81.8
=	0.0	0.0	87.1	81.7
=	0.0	0.0	87.3	81.6
=	0.0	0.0	87.7	81.5
=	0.0	0.0	88.0	81.4
=	0.0	0.0	88.5	81.1
=	0.0	0.0	88.9	81.0
=	0.0	0.0	89.3	80.8
=	0.0	0.0	89.7	80.7
=	0.0	0.0	89.9	80.6
=	0.0	0.0	90.3	80.5
=	0.0	0.0	90.7	80.4
=	0.0	0.0	91.1	80.3
=	0.0	0.0	91.5	80.2
=	0.0	0.0	91.9	80.1
=	0.0	0.0	92.4	79.8
=	0.0	0.0	92.8	79.6
=	0.0	0.0	93.0	79.5
=	0.0	0.0	93.3	79.4
=	0.0	0.0	93.6	79.3
=	0.0	0.0	94.0	79.2
=	0.0	0.0	94.4	79.1
=	0.0	0.0	94.8	79.0
=	0.0	0.0	95.2	78.9
=	0.0	0.0	95.7	78.8
=	0.0	0.0	96.1	78.7
=	0.0	0.0	96.5	78.5
=	0.0	0.0	96.9	78.4
=	0.0	0.0	97.3	78.2
=	0.0	0.0	98.1	78.0
=	0.0	0.0	98.5	77.8
=	0.0	0.0	99.3	77.6
=	0.0	0.0	100.1	77.3
=	0.0	0.0	101.0	77.0
=	0.0	0.0	101.8	76.8
=	0.0	0.0	102.6	76.5
=	0.0	0.0	103.4	76.3
=	0.0	0.0	104.2	75.9
=	0.0	0.0	105.0	75.4
=	0.0	0.0	105.6	75.2
=	0.0	0.0	106.3	75.1
=	0.0	0.0	107.1	74.9
=	0.0	0.0	107.9	74.6
=	0.0	0.0	108.7	74.4
=	0.0	0.0	109.5	74.1
=	0.0	0.0	110.2	73.9
=	0.0	0.0	110.6	73.7
=	0.0	0.0	111.1	73.5
=	0.0	0.0	111.5	73.4
=	0.0	0.0	112.0	73.3
=	0.0	0.0	112.4	73.2
=	0.0	0.0	112.8	73.0
=	0.0	0.0	113.2	72.9
=	0.0	0.0	113.6	72.8
=	0.0	0.0	114.0	72.6
=	0.0	0.0	114.4	72.5
=	0.0	0.0	114.8	72.4
=	0.0	0.0	115.2	72.3
=	0.0	0.0	115.6	72.2
=	0.0	0.0	116.1	72.0
=	0.0	0.0	116.5	71.9
=	0.0	0.0	116.9	71.7
=	0.0	0.0	117.3	71.5
=	0.0	0.0	117.7	71.4
=	0.0	0.0	118.1	71.3
=	0.0	0.0	118.5	71.2
=	0.0	0.0	118.9	71.1
=	0.0	0.0	119.3	71.0
=	0.0	0.0	119.8	70.9
=	0.0	0.0	120.1	70.8
=	0.0	0.0	120.5	70.6
=	0.0	0.0	120.9	70.5
=	0.0	0.0	121.4	70.3
=	0.0	0.0	121.8	70.2
=	0.0	0.0	122.2	70.1
=	0.0	0.0	122.6	70.0
=	0.0	0.0	123.0	69.8
=	0.0	0.0	123.4	69.6
=	0.0	0.0	123.8	69.5
=	0.0	0.0	124.2	69.4
=	0.0	0.0	124.6	69.3
=	0.0	0.0	125.0	69.2
=	0.0	0.0	125.4	69.1
=	0.0	0.0	125.8	69.1
=	0.0	0.0	126.2	68.9
=	0.0	0.0	126.6	68.7
=	0.0	0.0	127.1	68.6
=	0.0	0.0	127.5	68.5
=	0.0	0.0	127.9	68.4
=	0.0	0.0	128.3	68.3
=	0.0	0.0	128.7	68.1
=	0.0	0.0	129.1	68.0
=	0.0	0.0	129.5	67.9
=	0.0	0.0	129.9	67.8
=	0.0	0.0	130.3	67.7
=	0.0	0.0	130.7	67.5
=	0.0	0.0	131.1	67.4
=	0.0	0.0	131.5	67.3
=	0.0	0.0	131.9	67.2
=	0.0	0.0	132.3	67.1
=	0.0	0.0	132.9	66.9
=	0.0	0.0	133.7	66.7
=	0.0	0.0	134.2	66.6
=	0.0	0.0	135.0	66.3
=	0.0	0.0	135.8	66.2
=	0.0	0.0	136.6	65.9
=	0.0	0.0	137.4	65.6
=	0.0	0.0	138.0	65.4
=	0.0	0.0	138.4	65.3
=	0.0	0.0	138.8	65.1
=	0.0	0.0	139.3	65.0
=	0.0	0.0	139.7	64.9
=	0.0	0.0	140.1	64.8
=	0.0	0.0	140.5	64.7
=	0.0	0.0	140.8	64.6
=	0.0	0.0	141.5	64.4
=	0.0	0.0	142.3	64.2
=	0.0	0.0	142.7	64.1
=	0.0	0.0	143.0	63.9
=	0.0	0.0	143.4	63.8
=	0.0	0.0	143.8	63.7
=	0.0	0.0	144.2	63.5
=	0.0	0.0	144.6	63.5
=	0.0	0.0	145.0	63.4
=	0.0	0.0	145.4	63.2
=	0.0	0.0	145.8	63.1
=	0.0	0.0	146.2	63.0
=	0.0	0.0	146.7	62.9
=	0.0	0.0	147.1	62.7
=	0.0	0.0	147.5	62.5
=	0.0	0.0	147.8	62.5
=	0.0	0.0	148.2	62.4
=	0.0	0.0	148.7	62.3
=	0.0	0.0	149.1	62.2
=	0.0	0.0	149.5	62.1
=	0.0	0.0	149.9	62.0
=	0.0	0.0	150.3	61.8
=	0.0	0.0	150.7	61.7
=	0.0	0.0	151.1	61.6
=	0.0	0.0	151.5	61.5
=	0.0	0.0	151.9	61.4
=	0.0	0.0	152.3	61.4
=	0.0	0.0	152.7	61.3
=	0.0	0.0	153.1	61.2
=	0.0	0.0	153.6	61.0
=	0.0	0.0	154.0	60.9
=	0.0	0.0	154.3	60.7
=	0.0	0.0	154.8	60.6
=	0.0	0.0	155.2	60.6
=	0.0	0.0	155.6	60.5
=	0.0	0.0	156.0	60.5
=	0.0	0.0	156.4	60.4
=	0.0	0.0	156.8	60.3
=	0.0	0.0	157.2	60.2
=	0.0	0.0	157.6	60.1
=	0.0	0.0	158.0	60.0
=	0.0	0.0	158.4	59.9
=	0.0	0.0	158.8	59.8
=	0.0	0.0	159.2	59.7
=	0.0	0.0	159.7	59.6
=	0.0	0.0	160.1	59.5
=	0.0	0.0	160.5	59.4
=	0.0	0.0	160.9	59.2
=	0.0	0.0	161.3	59.1
=	0.0	0.0	162.0	58.8
=	0.0	0.0	162.5	58.7
=	0.0	0.0	162.9	58.6
=	0.0	0.0	163.6	58.4
=	0.0	0.0	164.1	58.4
=	0.0	0.0	164.5	58.3
=	0.0	0.0	165.3	58.2
=	0.0	0.0	166.1	58.0
=	0.0	0.0	166.5	57.9
=	0.0	0.0	166.9	57.8
=	0.0	0.0	167.3	57.7
=	0.0	0.0	167.9	57.5
=	0.0	0.0	168.3	57.4
=	0.0	0.0	168.7	57.3
=	0.0	0.0	169.1	57.1
=	0.0	0.0	169.5	57.0
=	0.0	0.0	169.9	56.9
=	0.0	0.0	170.3	56.8
=	0.0	0.0	170.8	56.7
=	0.0	0.0	171.1	56.6
=	0.0	0.0	171.6	56.5
=	0.0	0.0	172.0	56.4
=	0.0	0.0	172.4	56.3
=	0.0	0.0	172.7	56.2
=	0.0	0.0	173.1	56.1
=	0.0	0.0	173.5	56.0
=	0.0	0.0	173.9	55.9
=	0.0	0.0	174.3	55.8
=	0.0	0.0	174.6	55.8
=	0.0	0.0	174.9	55.7
=	0.0	0.0	175.3	55.6
=	0.0	0.0	175.7	55.4
=	0.0	0.0	176.1	55.4
=	0.0	0.0	176.5	55.3
=	0.0	0.0	176.9	55.3
=	0.0	0.0	177.3	55.2
=	0.0	0.0	177.7	55.0
=	0.0	0.0	178.1	55.0
=	0.0	0.0	178.5	54.9
=	0.0	0.0	178.9	54.8
=	0.0	0.0	179.3	54.7
=	0.0	0.0	179.8	54.6
=	0.0	0.0	180.2	54.4
=	0.0	0.0	180.6	54.3
=	0.0	0.0	181.0	54.2
=	0.0	0.0	181.4	54.1
=	0.0	0.0	181.8	54.1
=	0.0	0.0	182.2	54.0
=	0.0	0.0	182.6	53.9
=	0.0	0.0	183.0	53.8
=	0.0	0.0	183.4	53.7
=	0.0	0.0	183.8	53.6
=	0.0	0.0	184.2	53.6
=	0.0	0.0	184.7	53.4
=	0.0	0.0	185.1	53.3
=	0.0	0.0	185.4	53.2
=	0.0	0.0	185.8	53.1
=	0.0	0.0	186.2	53.0
=	0.0	0.0	186.7	52.9
=	0.0	0.0	187.1	52.9
=	0.0	0.0	187.5	52.8
=	0.0	0.0	187.9	52.7
=	0.0	0.0	188.3	52.6
=	0.0	0.0	188.7	52.5
=	0.0	0.0	189.1	52.4
=	0.0	0.0	189.5	52.3
=	0.0	0.0	189.9	52.3
=	0.0	0.0	190.3	52.2
=	0.0	0.0	190.5	52.1
=	0.0	0.0	190.9	52.1
=	0.0	0.0	191.3	52.0
=	0.0	0.0	191.7	51.9
=	0.0	0.0	192.2	51.8
=	0.0	0.0	192.6	51.7
=	0.0	0.0	193.0	51.6
=	0.0	0.0	193.2	51.6
=	0.0	0.0	193.6	51.5
=	0.0	0.0	194.0	51.3
=	0.0	0.0	194.4	51.2
=	0.0	0.0	194.7	51.1
=	0.0	0.0	195.1	51.1
=	0.0	0.0	195.5	51.0
=	0.0	0.0	195.9	50.9
=	0.0	0.0	196.2	50.8
=	0.0	0.0	196.6	50.7
=	0.0	0.0	197.0	50.6
=	0.0	0.0	197.5	50.5
=	0.0	0.0	197.9	50.5
=	0.0	0.0	198.3	50.4
=	0.0	0.0	198.7	50.3
=	0.0	0.0	199.1	50.2
=	0.0	0.0	199.5	50.1
=	0.0	0.0	200.0	50.0
=	0.0	0.0	200.4	49.9
=	0.0	0.0	200.9	49.8
=	0.0	0.0	201.7	49.6
=	0.0	0.0	202.6	49.4
=	0.0	0.0	203.4	49.3
=	0.0	0.0	203.8	49.2
=	0.0	0.0	204.6	48.9
=	0.0	0.0	205.4	48.8
=	0.0	0.0	206.2	48.6
=	0.0	0.0	206.8	48.5
=	0.0	0.0	207.2	48.5
=	0.0	0.0	207.6	48.4
=	0.0	0.0	208.0	48.4
=	0.0	0.0	208.5	48.3
=	0.0	0.0	208.9	48.2
=	0.0	0.0	209.3	48.2
=	0.0	0.0	209.7	48.1
=	0.0	0.0	210.1	48.0
=	0.0	0.0	210.5	47.9
=	0.0	0.0	210.9	47.7
=	0.0	0.0	211.3	47.6
=	0.0	0.0	211.7	47.5
=	0.0	0.0	212.1	47.4
=	0.0	0.0	212.5	47.3
=	0.0	0.0	212.9	47.2
=	0.0	0.0	213.3	47.2
=	0.0	0.0	213.5	47.1
=	0.0	0.0	213.8	47.1
=	0.0	0.0	214.1	47.0
=	0.0	0.0	214.4	47.0
=	0.0	0.0	214.8	46.9
=	0.0	0.0	215.2	46.8
=	0.0	0.0	215.6	46.7
=	0.0	0.0	216.0	46.6
=	0.0	0.0	216.4	46.5
=	0.0	0.0	216.8	46.4
=	0.0	0.0	217.3	46.3
=	0.0	0.0	217.7	46.3
=	0.0	0.0	218.1	46.2
=	0.0	0.0	218.4	46.2
=	0.0	0.0	218.8	46.1
=	0.0	0.0	219.2	46.1
=	0.0	0.0	219.4	45.9
=	0.0	0.0	219.7	45.9
=	0.0	0.0	220.0	45.8
=	0.0	0.0	220.5	45.7
=	0.0	0.0	220.8	45.7
=	0.0	0.0	221.1	45.7
=	0.0	0.0	221.3	45.6
=	0.0	0.0	221.6	45.6
=	0.0	0.0	221.9	45.5
=	0.0	0.0	222.1	45.4
=	0.0	0.0	222.4	45.4
=	0.0	0.0	222.7	45.4
=	0.0	0.0	223.0	45.3
=	0.0	0.0	223.2	45.3
=	0.0	0.0	223.6	45.2
=	0.0	0.0	224.0	45.1
=	0.0	0.0	224.4	45.0
=	0.0	0.0	224.8	45.0
=	0.0	0.0	225.2	44.9
=	0.0	0.0	225.6	44.8
=	0.0	0.0	226.4	44.6
=	0.0	0.0	227.2	44.4
=	0.0	0.0	228.0	44.3
=	0.0	0.0	228.8	44.1
=	0.0	0.0	229.2	44.0
=	0.0	0.0	229.6	44.0
=	0.0	0.0	230.0	43.9
=	0.0	0.0	230.4	43.9
=	0.0	0.0	230.8	43.8
=	0.0	0.0	231.2	43.7
=	0.0	0.0	231.6	43.6
=	0.0	0.0	232.0	43.6
=	0.0	0.0	232.4	43.6
=	0.0	0.0	232.8	43.5
=	0.0	0.0	233.2	43.5
=	0.0	0.0	233.6	43.4
=	0.0	0.0	234.0	43.3
=	0.0	0.0	234.4	43.2
=	0.0	0.0	234.8	43.1
=	0.0	0.0	235.2	43.1
=	0.0	0.0	235.6	43.0
=	0.0	0.0	236.0	42.9
=	0.0	0.0	236.4	42.8
=	0.0	0.0	236.8	42.7
=	0.0	0.0	237.2	42.6
=	0.0	0.0	237.8	42.5
=	0.0	0.0	238.4	42.4
=	0.0	0.0	239.0	42.4
=	0.0	0.0	239.8	42.1
=	0.0	0.0	240.6	42.0
=	0.0	0.0	241.3	41.9
=	0.0	0.0	241.7	41.8
=	0.0	0.0	242.1	41.7
=	0.0	0.0	242.6	41.6
=	0.0	0.0	243.4	41.5
=	0.0	0.0	244.3	41.3
=	0.0	0.0	244.9	41.2
=	0.0	0.0	245.3	41.2
=	0.0	0.0	245.7	41.1
=	0.0	0.0	246.1	41.1
=	0.0	0.0	246.7	41.0
=	0.0	0.0	247.2	40.9
=	0.0	0.0	247.5	40.8
=	0.0	0.0	248.0	40.7
=	0.0	0.0	248.4	40.7
=	0.0	0.0	248.8	40.6
=	0.0	0.0	249.2	40.5
=	0.0	0.0	249.6	40.4
=	0.0	0.0	250.0	40.3
=	0.0	0.0	250.4	40.3
=	0.0	0.0	250.8	40.2
=	0.0	0.0	251.2	40.1
=	0.0	0.0	251.6	40.0
=	0.0	0.0	252.0	39.9
=	0.0	0.0	252.4	39.9
=	0.0	0.0	252.8	39.8
=	0.0	0.0	253.2	39.8
=	0.0	0.0	253.6	39.7
=	0.0	0.0	254.0	39.7
=	0.0	0.0	254.4	39.6
=	0.0	0.0	254.8	39.6
=	0.0	0.0	255.3	39.5
=	0.0	0.0	255.7	39.4
=	0.0	0.0	256.1	39.3
=	0.0	0.0	256.5	39.2
=	0.0	0.0	256.9	39.1
=	0.0	0.0	257.3	39.0
=	0.0	0.0	257.7	39.0
=	0.0	0.0	258.1	38.9
=	0.0	0.0	258.5	38.8
=	0.0	0.0	259.0	38.8
=	0.0	0.0	259.4	38.7
=	0.0	0.0	259.8	38.5
=	0.0	0.0	260.2	38.5
=	0.0	0.0	260.6	38.5
=	0.0	0.0	261.0	38.4
=	0.0	0.0	261.4	38.3
=	0.0	0.0	261.8	38.3
=	0.0	0.0	262.2	38.2
=	0.0	0.0	262.6	38.2
=	0.0	0.0	263.0	38.1
=	0.0	0.0	263.6	38.0
=	0.0	0.0	264.4	37.9
=	0.0	0.0	265.2	37.7
=	0.0	0.0	266.0	37.7
=	0.0	0.0	266.5	37.6
=	0.0	0.0	266.9	37.6
=	0.0	0.0	267.3	37.5
=	0.0	0.0	267.7	37.5
=	0.0	0.0	268.1	37.4
=	0.0	0.0	268.5	37.3
=	0.0	0.0	268.9	37.2
=	0.0	0.0	269.3	37.1
=	0.0	0.0	269.7	37.1
=	0.0	0.0	270.1	37.0
=	0.0	0.0	270.5	37.0
=	0.0	0.0	270.9	36.9
=	0.0	0.0	271.3	36.8
=	0.0	0.0	271.7	36.8
=	0.0	0.0	272.1	36.7
=	0.0	0.0	272.5	36.6
=	0.0	0.0	273.0	36.5
=	0.0	0.0	273.4	36.5
=	0.0	0.0	273.8	36.4
=	0.0	0.0	274.1	36.3
=	0.0	0.0	274.5	36.2
=	0.0	0.0	274.9	36.2
=	0.0	0.0	275.3	36.1
=	0.0	0.0	275.7	36.1
=	0.0	0.0	276.1	36.0
=	0.0	0.0	276.5	35.9
=	0.0	0.0	276.9	35.8
=	0.0	0.0	277.3	35.8
=	0.0	0.0	277.7	35.7
=	0.0	0.0	278.2	35.7
=	0.0	0.0	278.6	35.7
=	0.0	0.0	278.9	35.6
=	0.0	0.0	279.3	35.5
=	0.0	0.0	279.8	35.5
=	0.0	0.0	280.2	35.4
=	0.0	0.0	280.6	35.3
=	0.0	0.0	281.0	35.3
=	0.0	0.0	281.4	35.3
=	0.0	0.0	281.8	35.2
=	0.0	0.0	282.2	35.1
=	0.0	0.0	282.6	35.1
=	0.0	0.0	283.0	35.0
=	0.0	0.0	283.4	35.0
=	0.0	0.0	283.8	35.0
=	0.0	0.0	284.2	34.9
=	0.0	0.0	284.6	34.8
=	0.0	0.0	285.0	34.8
=	0.0	0.0	285.4	34.7
=	0.0	0.0	285.9	34.6
=	0.0	0.0	286.3	34.6
=	0.0	0.0	286.7	34.6
=	0.0	0.0	287.1	34.5
=	0.0	0.0	287.5	34.4
=	0.0	0.0	287.9	34.3
=	0.0	0.0	288.3	34.3
=	0.0	0.0	288.7	34.2
=	0.0	0.0	289.1	34.2
=	0.0	0.0	289.6	34.1
=	0.0	0.0	290.0	34.1
=	0.0	0.0	290.4	34.1
=	0.0	0.0	291.0	34.0
=	0.0	0.0	291.4	33.9
=	0.0	0.0	291.8	33.9
=	0.0	0.0	292.2	33.8
=	0.0	0.0	292.6	33.8
=	0.0	0.0	293.0	33.7
=	0.0	0.0	293.4	33.7
=	0.0	0.0	293.8	33.6
=	0.0	0.0	294.2	33.5
=	0.0	0.0	294.6	33.4
=	0.0	0.0	295.0	33.4
=	0.0	0.0	295.4	33.3
=	0.0	0.0	295.8	33.2
=	0.0	0.0	296.3	33.1
=	0.0	0.0	296.7	33.1
=	0.0	0.0	297.1	33.0
=	0.0	0.0	297.5	33.0
=	0.0	0.0	297.9	32.9
=	0.0	0.0	298.5	32.8
=	0.0	0.0	299.3	32.7
=	0.0	0.0	299.9	32.7
=	0.0	0.0	300.3	32.6
=	0.0	0.0	300.6	32.6
=	0.0	0.0	300.9	32.5
=	0.0	0.0	301.2	32.5
=	0.0	0.0	301.4	32.4
=	0.0	0.0	301.7	32.4
=	0.0	0.0	302.1	32.3
=	0.0	0.0	302.5	32.3
=	0.0	0.0	302.8	32.2
=	0.0	0.0	303.3	32.2
=	0.0	0.0	303.7	32.1
=	0.0	0.0	304.2	32.1
=	0.0	0.0	304.6	32.0
=	0.0	0.0	305.0	32.0
=	0.0	0.0	305.4	31.9
:EOM # End of Measurement
#
# RFA300 ASCII Measurement Dump ( BDS format )
#
# Measurement number 	2
#
%VNR 1.0
%MOD 	RAT
%TYP 	SCN
%SCN 	DPT
%FLD 	ION
%DAT 	09-29-2011
%TIM 	12:00:00
%FSZ 	100	100
%BMT 	PHO	   15.0
%SSD 	1200
%BUP 	0
%BRD 	1200
%FSH 	1
%ASC 	0
%WEG 	60
%GPO 	0
%CPO 	0
%MEA 	5
%PRD 	0,0
%PTS 	743
%STS 	    0.0	  0.0	   0.0 # Start Scan values in mm ( X , Y , Z )
%EDS 	    0.0	   0.0	   305.8 # End Scan values in mm ( X , Y , Z )
#
#	  X      Y      Z     Dose
#
=	0.0	0.0	0.0	30.0
=	0.0	0.0	0.1	30.5
=	0.0	0.0	0.6	31.8
=	0.0	0.0	1.0	33.5
=	0.0	0.0	1.4	35.2
=	0.0	0.0	1.8	37.6
=	0.0	0.0	2.2	40.9
=	0.0	0.0	2.6	44.5
=	0.0	0.0	3.0	47.7
=	0.0	0.0	3.4	50.5
=	0.0	0.0	3.8	53.8
=	0.0	0.0	4.2	56.9
=	0.0	0.0	4.6	59.3
=	0.0	0.0	5.0	61.5
=	0.0	0.0	5.4	63.8
=	0.0	0.0	5.8	66.0
=	0.0	0.0	6.2	68.0
=	0.0	0.0	6.6	69.9
=	0.0	0.0	7.0	71.6
=	0.0	0.0	7.5	73.5
=	0.0	0.0	7.9	75.1
=	0.0	0.0	8.3	76.6
=	0.0	0.0	8.7	77.9
=	0.0	0.0	9.1	79.1
=	0.0	0.0	9.5	80.7
=	0.0	0.0	9.9	82.0
=	0.0	0.0	10.3	83.0
=	0.0	0.0	10.7	84.0
=	0.0	0.0	11.1	84.9
=	0.0	0.0	11.5	86.1
=	0.0	0.0	11.9	86.9
=	0.0	0.0	12.3	87.8
=	0.0	0.0	12.7	88.5
=	0.0	0.0	13.1	89.3
=	0.0	0.0	13.5	90.0
=	0.0	0.0	13.9	90.7
=	0.0	0.0	14.3	91.4
=	0.0	0.0	14.7	92.1
=	0.0	0.0	15.1	92.8
=	0.0	0.0	15.6	93.3
=	0.0	0.0	16.0	93.8
=	0.0	0.0	16.4	94.3
=	0.0	0.0	16.8	94.9
=	0.0	0.0	17.1	95.3
=	0.0	0.0	17.5	95.5
=	0.0	0.0	17.9	95.8
=	0.0	0.0	18.4	96.2
=	0.0	0.0	18.8	96.6
=	0.0	0.0	19.2	97.0
=	0.0	0.0	19.6	97.3
=	0.0	0.0	20.0	97.4
=	0.0	0.0	20.4	97.7
=	0.0	0.0	20.8	97.9
=	0.0	0.0	21.2	98.0
=	0.0	0.0	21.6	98.2
=	0.0	0.0	22.0	98.5
=	0.0	0.0	22.2	98.8
=	0.0	0.0	22.7	99.1
=	0.0	0.0	23.0	99.2
=	0.0	0.0	23.4	99.3
=	0.0	0.0	23.8	99.5
=	0.0	0.0	24.1	99.5
=	0.0	0.0	24.4	99.6
=	0.0	0.0	24.7	99.6
=	0.0	0.0	25.0	99.6
=	0.0	0.0	25.4	99.6
=	0.0	0.0	25.8	99.7
=	0.0	0.0	26.2	99.7
=	0.0	0.0	26.7	99.8
=	0.0	0.0	27.1	99.8
=	0.0	0.0	27.5	99.8
=	0.0	0.0	27.9	99.9
=	0.0	0.0	28.3	99.9
=	0.0	0.0	28.7	99.9
=	0.0	0.0	29.1	99.9
=	0.0	0.0	29.5	100.0
=	0.0	0.0	29.9	100.0
=	0.0	0.0	30.3	100.0
=	0.0	0.0	30.7	100.0
=	0.0	0.0	31.1	100.0
=	0.0	0.0	31.5	99.9
=	0.0	0.0	31.9	99.9
=	0.0	0.0	32.3	99.9
=	0.0	0.0	32.7	99.8
=	0.0	0.0	33.2	99.8
=	0.0	0.0	33.5	99.7
=	0.0	0.0	33.9	99.7
=	0.0	0.0	34.3	99.6
=	0.0	0.0	34.8	99.5
=	0.0	0.0	35.2	99.5
=	0.0	0.0	35.5	99.4
=	0.0	0.0	35.7	99.4
=	0.0	0.0	36.2	99.3
=	0.0	0.0	36.6	99.3
=	0.0	0.0	37.0	99.1
=	0.0	0.0	37.4	99.0
=	0.0	0.0	37.6	99.0
=	0.0	0.0	37.9	98.9
=	0.0	0.0	38.2	98.9
=	0.0	0.0	38.6	98.8
=	0.0	0.0	39.0	98.7
=	0.0	0.0	39.4	98.5
=	0.0	0.0	39.7	98.5
=	0.0	0.0	40.0	98.4
=	0.0	0.0	40.4	98.2
=	0.0	0.0	40.8	98.1
=	0.0	0.0	41.2	98.0
=	0.0	0.0	41.6	98.0
=	0.0	0.0	42.0	97.9
=	0.0	0.0	42.4	97.8
=	0.0	0.0	42.9	97.7
=	0.0	0.0	43.3	97.5
=	0.0	0.0	43.7	97.3
=	0.0	0.0	44.1	97.1
=	0.0	0.0	44.4	97.0
=	0.0	0.0	44.6	97.0
=	0.0	0.0	45.1	96.9
=	0.0	0.0	45.5	96.8
=	0.0	0.0	45.8	96.7
=	0.0	0.0	46.2	96.6
=	0.0	0.0	46.6	96.6
=	0.0	0.0	47.0	96.5
=	0.0	0.0	47.3	96.5
=	0.0	0.0	47.6	96.4
=	0.0	0.0	48.1	96.2
=	0.0	0.0	48.5	96.1
=	0.0	0.0	48.9	96.0
=	0.0	0.0	49.3	95.8
=	0.0	0.0	49.7	95.7
=	0.0	0.0	50.2	95.6
=	0.0	0.0	50.6	95.4
=	0.0	0.0	51.0	95.3
=	0.0	0.0	51.4	95.1
=	0.0	0.0	51.8	95.0
=	0.0	0.0	52.2	94.9
=	0.0	0.0	52.6	94.8
=	0.0	0.0	53.0	94.6
=	0.0	0.0	53.4	94.5
=	0.0	0.0	53.8	94.4
=	0.0	0.0	54.3	94.2
=	0.0	0.0	54.6	94.1
=	0.0	0.0	55.0	94.0
=	0.0	0.0	55.5	93.9
=	0.0	0.0	55.8	93.8
=	0.0	0.0	56.3	93.6
=	0.0	0.0	56.7	93.4
=	0.0	0.0	57.1	93.2
=	0.0	0.0	57.5	93.1
=	0.0	0.0	57.9	93.0
=	0.0	0.0	58.3	92.7
=	0.0	0.0	58.7	92.6
=	0.0	0.0	59.1	92.5
=	0.0	0.0	59.6	92.3
=	0.0	0.0	60.0	92.1
=	0.0	0.0	60.4	92.0
=	0.0	0.0	60.8	91.8
=	0.0	0.0	61.2	91.6
=	0.0	0.0	61.6	91.5
=	0.0	0.0	62.0	91.3
=	0.0	0.0	62.4	91.2
=	0.0	0.0	62.8	91.0
=	0.0	0.0	63.4	90.9
=	0.0	0.0	63.8	90.8
=	0.0	0.0	64.2	90.7
=	0.0	0.0	64.6	90.6
=	0.0	0.0	65.2	90.5
=	0.0	0.0	65.6	90.4
=	0.0	0.0	66.0	90.2
=	0.0	0.0	66.4	90.1
=	0.0	0.0	66.9	90.0
=	0.0	0.0	67.4	89.9
=	0.0	0.0	68.2	89.6
=	0.0	0.0	68.7	89.5
=	0.0	0.0	69.4	89.2
=	0.0	0.0	69.9	89.1
=	0.0	0.0	70.3	88.9
=	0.0	0.0	71.1	88.6
=	0.0	0.0	71.7	88.4
=	0.0	0.0	72.0	88.4
=	0.0	0.0	72.4	88.3
=	0.0	0.0	72.8	88.2
=	0.0	0.0	73.2	88.1
=	0.0	0.0	74.0	87.8
=	0.0	0.0	74.8	87.6
=	0.0	0.0	75.6	87.4
=	0.0	0.0	76.2	87.2
=	0.0	0.0	76.7	86.9
=	0.0	0.0	77.1	86.8
=	0.0	0.0	77.5	86.6
=	0.0	0.0	78.0	86.3
=	0.0	0.0	78.9	86.2
=	0.0	0.0	79.7	86.0
=	0.0	0.0	80.1	85.8
=	0.0	0.0	80.5	85.6
=	0.0	0.0	80.9	85.5
=	0.0	0.0	81.4	85.3
=	0.0	0.0	81.8	85.2
=	0.0	0.0	82.2	85.1
=	0.0	0.0	82.6	85.0
=	0.0	0.0	83.0	84.9
=	0.0	0.0	83.4	84.8
=	0.0	0.0	83.8	84.6
=	0.0	0.0	84.2	84.5
=	0.0	0.0	84.6	84.3
=	0.0	0.0	85.0	84.2
=	0.0	0.0	85.4	84.1
=	0.0	0.0	85.8	84.0
=	0.0	0.0	86.2	83.8
=	0.0	0.0	86.7	83.7
=	0.0	0.0	87.1	83.6
=	0.0	0.0	87.5	83.4
=	0.0	0.0	87.9	83.3
=	0.0	0.0	88.3	83.1
=	0.0	0.0	88.7	83.0
=	0.0	0.0	89.0	82.9
=	0.0	0.0	89.3	82.8
=	0.0	0.0	89.7	82.7
=	0.0	0.0	90.1	82.6
=	0.0	0.0	90.5	82.5
=	0.0	0.0	90.9	82.3
=	0.0	0.0	91.3	82.3
=	0.0	0.0	91.7	82.2
=	0.0	0.0	92.1	82.0
=	0.0	0.0	92.5	81.9
=	0.0	0.0	92.9	81.8
=	0.0	0.0	93.3	81.6
=	0.0	0.0	93.7	81.5
=	0.0	0.0	94.2	81.4
=	0.0	0.0	94.5	81.3
=	0.0	0.0	94.8	81.2
=	0.0	0.0	95.1	81.2
=	0.0	0.0	95.4	81.1
=	0.0	0.0	95.6	81.0
=	0.0	0.0	96.0	80.8
=	0.0	0.0	96.3	80.6
=	0.0	0.0	96.5	80.6
=	0.0	0.0	96.8	80.5
=	0.0	0.0	97.1	80.5
=	0.0	0.0	97.4	80.4
=	0.0	0.0	97.6	80.3
=	0.0	0.0	97.9	80.3
=	0.0	0.0	98.2	80.1
=	0.0	0.0	98.5	80.0
=	0.0	0.0	98.9	80.0
=	0.0	0.0	99.3	79.9
=	0.0	0.0	99.7	79.8
=	0.0	0.0	100.1	79.8
=	0.0	0.0	100.6	79.6
=	0.0	0.0	101.0	79.3
=	0.0	0.0	101.4	79.1
=	0.0	0.0	101.8	78.9
=	0.0	0.0	102.2	78.8
=	0.0	0.0	102.6	78.7
=	0.0	0.0	103.0	78.7
=	0.0	0.0	103.4	78.5
=	0.0	0.0	103.8	78.4
=	0.0	0.0	104.2	78.3
=	0.0	0.0	104.6	78.2
=	0.0	0.0	105.0	78.1
=	0.0	0.0	105.5	77.9
=	0.0	0.0	105.9	77.8
=	0.0	0.0	106.4	77.6
=	0.0	0.0	107.1	77.4
=	0.0	0.0	107.5	77.3
=	0.0	0.0	108.0	77.2
=	0.0	0.0	108.3	77.1
=	0.0	0.0	108.7	77.0
=	0.0	0.0	109.1	76.8
=	0.0	0.0	109.5	76.6
=	0.0	0.0	109.9	76.5
=	0.0	0.0	110.5	76.4
=	0.0	0.0	111.3	76.2
=	0.0	0.0	111.8	76.0
=	0.0	0.0	112.2	75.9
=	0.0	0.0	112.6	75.8
=	0.0	0.0	113.0	75.7
=	0.0	0.0	113.5	75.5
=	0.0	0.0	113.9	75.4
=	0.0	0.0	114.3	75.3
=	0.0	0.0	114.6	75.2
=	0.0	0.0	115.0	75.1
=	0.0	0.0	115.4	75.0
=	0.0	0.0	115.9	74.9
=	0.0	0.0	116.3	74.8
=	0.0	0.0	116.7	74.6
=	0.0	0.0	117.1	74.5
=	0.0	0.0	117.5	74.4
=	0.0	0.0	117.9	74.3
=	0.0	0.0	118.3	74.2
=	0.0	0.0	118.7	74.1
=	0.0	0.0	119.1	74.0
=	0.0	0.0	119.5	73.9
=	0.0	0.0	119.9	73.8
=	0.0	0.0	120.3	73.6
=	0.0	0.0	120.7	73.5
=	0.0	0.0	121.1	73.3
=	0.0	0.0	121.5	73.2
=	0.0	0.0	121.9	73.1
=	0.0	0.0	122.3	73.0
=	0.0	0.0	122.7	72.9
=	0.0	0.0	123.1	72.8
=	0.0	0.0	123.5	72.7
=	0.0	0.0	123.9	72.6
=	0.0	0.0	124.4	72.5
=	0.0	0.0	124.7	72.4
=	0.0	0.0	125.1	72.3
=	0.0	0.0	125.5	72.2
=	0.0	0.0	126.0	72.1
=	0.0	0.0	126.4	71.9
=	0.0	0.0	126.8	71.8
=	0.0	0.0	127.2	71.7
=	0.0	0.0	127.6	71.6
=	0.0	0.0	128.0	71.3
=	0.0	0.0	128.4	71.2
=	0.0	0.0	128.8	71.2
=	0.0	0.0	129.2	71.1
=	0.0	0.0	129.7	71.0
=	0.0	0.0	130.0	71.0
=	0.0	0.0	130.5	70.8
=	0.0	0.0	130.9	70.7
=	0.0	0.0	131.3	70.6
=	0.0	0.0	131.7	70.5
=	0.0	0.0	132.1	70.4
=	0.0	0.0	132.5	70.3
=	0.0	0.0	132.9	70.1
=	0.0	0.0	133.3	70.0
=	0.0	0.0	133.9	69.8
=	0.0	0.0	134.4	69.7
=	0.0	0.0	134.8	69.6
=	0.0	0.0	135.2	69.4
=	0.0	0.0	136.0	69.2
=	0.0	0.0	136.8	69.0
=	0.0	0.0	137.2	68.9
=	0.0	0.0	138.0	68.7
=	0.0	0.0	138.8	68.5
=	0.0	0.0	139.6	68.2
=	0.0	0.0	140.3	68.0
=	0.0	0.0	140.7	67.9
=	0.0	0.0	141.1	67.8
=	0.0	0.0	141.4	67.7
=	0.0	0.0	141.6	67.6
=	0.0	0.0	142.0	67.5
=	0.0	0.0	142.5	67.4
=	0.0	0.0	142.9	67.3
=	0.0	0.0	143.3	67.2
=	0.0	0.0	143.7	67.1
=	0.0	0.0	144.1	67.0
=	0.0	0.0	144.5	66.9
=	0.0	0.0	144.9	66.9
=	0.0	0.0	145.3	66.8
=	0.0	0.0	145.7	66.8
=	0.0	0.0	146.2	66.6
=	0.0	0.0	146.5	66.5
=	0.0	0.0	146.8	66.4
=	0.0	0.0	147.0	66.3
=	0.0	0.0	147.4	66.3
=	0.0	0.0	147.8	66.2
=	0.0	0.0	148.2	66.0
=	0.0	0.0	148.5	65.9
=	0.0	0.0	148.8	65.8
=	0.0	0.0	149.0	65.8
=	0.0	0.0	149.4	65.7
=	0.0	0.0	149.7	65.6
=	0.0	0.0	150.0	65.5
=	0.0	0.0	150.4	65.4
=	0.0	0.0	150.8	65.3
=	0.0	0.0	151.2	65.2
=	0.0	0.0	151.7	65.1
=	0.0	0.0	152.0	65.0
=	0.0	0.0	152.3	64.9
=	0.0	0.0	152.7	64.8
=	0.0	0.0	153.1	64.8
=	0.0	0.0	153.5	64.6
=	0.0	0.0	153.9	64.5
=	0.0	0.0	154.3	64.4
=	0.0	0.0	154.7	64.4
=	0.0	0.0	155.1	64.2
=	0.0	0.0	155.5	64.1
=	0.0	0.0	155.9	64.0
=	0.0	0.0	156.4	63.9
=	0.0	0.0	156.6	63.9
=	0.0	0.0	156.9	63.8
=	0.0	0.0	157.1	63.7
=	0.0	0.0	157.6	63.6
=	0.0	0.0	158.1	63.5
=	0.0	0.0	158.8	63.3
=	0.0	0.0	159.4	63.2
=	0.0	0.0	160.2	62.9
=	0.0	0.0	161.0	62.8
=	0.0	0.0	161.8	62.6
=	0.0	0.0	162.4	62.4
=	0.0	0.0	162.8	62.3
=	0.0	0.0	163.2	62.2
=	0.0	0.0	163.6	62.1
=	0.0	0.0	164.1	62.0
=	0.0	0.0	164.5	61.9
=	0.0	0.0	164.9	61.9
=	0.0	0.0	165.3	61.8
=	0.0	0.0	165.7	61.7
=	0.0	0.0	166.1	61.6
=	0.0	0.0	166.5	61.6
=	0.0	0.0	166.9	61.4
=	0.0	0.0	167.3	61.3
=	0.0	0.0	167.7	61.1
=	0.0	0.0	168.1	61.1
=	0.0	0.0	168.5	61.0
=	0.0	0.0	168.9	60.9
=	0.0	0.0	169.4	60.8
=	0.0	0.0	169.7	60.6
=	0.0	0.0	170.2	60.5
=	0.0	0.0	170.6	60.5
=	0.0	0.0	171.0	60.3
=	0.0	0.0	171.3	60.3
=	0.0	0.0	171.8	60.2
=	0.0	0.0	172.2	60.1
=	0.0	0.0	172.6	59.9
=	0.0	0.0	173.0	59.8
=	0.0	0.0	173.3	59.7
=	0.0	0.0	173.8	59.6
=	0.0	0.0	174.2	59.5
=	0.0	0.0	174.6	59.5
=	0.0	0.0	175.0	59.4
=	0.0	0.0	175.4	59.4
=	0.0	0.0	175.8	59.2
=	0.0	0.0	176.2	59.1
=	0.0	0.0	176.6	59.0
=	0.0	0.0	176.9	59.0
=	0.0	0.0	177.1	58.9
=	0.0	0.0	177.4	58.8
=	0.0	0.0	177.8	58.7
=	0.0	0.0	178.2	58.6
=	0.0	0.0	178.6	58.6
=	0.0	0.0	178.9	58.5
=	0.0	0.0	179.2	58.5
=	0.0	0.0	179.6	58.4
=	0.0	0.0	180.0	58.2
=	0.0	0.0	180.4	58.2
=	0.0	0.0	180.8	58.1
=	0.0	0.0	181.2	58.0
=	0.0	0.0	181.6	57.9
=	0.0	0.0	182.0	57.8
=	0.0	0.0	182.5	57.7
=	0.0	0.0	182.9	57.7
=	0.0	0.0	183.3	57.6
=	0.0	0.0	183.7	57.5
=	0.0	0.0	184.1	57.4
=	0.0	0.0	184.5	57.2
=	0.0	0.0	184.9	57.1
=	0.0	0.0	185.3	57.0
=	0.0	0.0	185.7	56.9
=	0.0	0.0	186.1	56.8
=	0.0	0.0	186.5	56.6
=	0.0	0.0	186.9	56.5
=	0.0	0.0	187.3	56.5
=	0.0	0.0	187.7	56.4
=	0.0	0.0	188.1	56.3
=	0.0	0.0	188.5	56.3
=	0.0	0.0	188.9	56.2
=	0.0	0.0	189.3	56.2
=	0.0	0.0	189.6	56.1
=	0.0	0.0	190.0	55.9
=	0.0	0.0	190.4	55.9
=	0.0	0.0	190.8	55.8
=	0.0	0.0	191.1	55.7
=	0.0	0.0	191.4	55.6
=	0.0	0.0	191.9	55.5
=	0.0	0.0	192.2	55.3
=	0.0	0.0	192.6	55.2
=	0.0	0.0	193.0	55.2
=	0.0	0.0	193.5	55.1
=	0.0	0.0	194.0	55.0
=	0.0	0.0	194.4	54.9
=	0.0	0.0	194.8	54.9
=	0.0	0.0	195.2	54.8
=	0.0	0.0	195.6	54.8
=	0.0	0.0	196.1	54.7
=	0.0	0.0	196.4	54.6
=	0.0	0.0	197.0	54.4
=	0.0	0.0	197.4	54.3
=	0.0	0.0	197.8	54.2
=	0.0	0.0	198.2	54.1
=	0.0	0.0	198.7	54.1
=	0.0	0.0	199.0	54.0
=	0.0	0.0	199.4	53.9
=	0.0	0.0	200.0	53.8
=	0.0	0.0	200.4	53.7
=	0.0	0.0	201.2	53.5
=	0.0	0.0	202.0	53.3
=	0.0	0.0	202.8	53.1
=	0.0	0.0	203.6	53.0
=	0.0	0.0	204.1	52.9
=	0.0	0.0	204.9	52.7
=	0.0	0.0	205.6	52.5
=	0.0	0.0	206.3	52.3
=	0.0	0.0	206.7	52.2
=	0.0	0.0	207.1	52.1
=	0.0	0.0	207.7	52.0
=	0.0	0.0	208.1	52.0
=	0.0	0.0	208.5	51.8
=	0.0	0.0	208.9	51.8
=	0.0	0.0	209.3	51.8
=	0.0	0.0	209.7	51.7
=	0.0	0.0	210.1	51.7
=	0.0	0.0	210.5	51.6
=	0.0	0.0	210.9	51.5
=	0.0	0.0	211.4	51.5
=	0.0	0.0	211.8	51.3
=	0.0	0.0	212.2	51.2
=	0.0	0.0	212.5	51.1
=	0.0	0.0	212.8	51.0
=	0.0	0.0	213.2	51.0
=	0.0	0.0	213.6	50.9
=	0.0	0.0	214.0	50.8
=	0.0	0.0	214.4	50.7
=	0.0	0.0	214.8	50.6
=	0.0	0.0	215.3	50.5
=	0.0	0.0	215.6	50.5
=	0.0	0.0	215.8	50.4
=	0.0	0.0	216.1	50.4
=	0.0	0.0	216.4	50.3
=	0.0	0.0	216.7	50.3
=	0.0	0.0	217.0	50.2
=	0.0	0.0	217.2	50.2
=	0.0	0.0	217.5	50.1
=	0.0	0.0	217.8	50.0
=	0.0	0.0	218.0	50.0
=	0.0	0.0	218.3	50.0
=	0.0	0.0	218.6	49.9
=	0.0	0.0	218.8	49.8
=	0.0	0.0	219.1	49.8
=	0.0	0.0	219.4	49.7
=	0.0	0.0	219.7	49.7
=	0.0	0.0	219.9	49.6
=	0.0	0.0	220.2	49.6
=	0.0	0.0	220.4	49.5
=	0.0	0.0	220.8	49.4
=	0.0	0.0	221.2	49.4
=	0.0	0.0	221.6	49.3
=	0.0	0.0	222.0	49.3
=	0.0	0.0	222.4	49.2
=	0.0	0.0	222.8	49.0
=	0.0	0.0	223.3	49.0
=	0.0	0.0	223.7	48.9
=	0.0	0.0	224.1	48.8
=	0.0	0.0	224.5	48.7
=	0.0	0.0	224.9	48.6
=	0.0	0.0	225.3	48.5
=	0.0	0.0	225.7	48.5
=	0.0	0.0	226.1	48.4
=	0.0	0.0	226.5	48.3
=	0.0	0.0	226.9	48.2
=	0.0	0.0	227.3	48.1
=	0.0	0.0	227.8	48.0
=	0.0	0.0	228.2	48.0
=	0.0	0.0	228.6	47.9
=	0.0	0.0	229.0	47.8
=	0.0	0.0	229.4	47.8
=	0.0	0.0	229.8	47.7
=	0.0	0.0	230.2	47.6
=	0.0	0.0	230.6	47.5
=	0.0	0.0	231.0	47.4
=	0.0	0.0	231.4	47.4
=	0.0	0.0	231.8	47.4
=	0.0	0.0	232.2	47.3
=	0.0	0.0	232.6	47.3
=	0.0	0.0	233.0	47.2
=	0.0	0.0	233.4	47.1
=	0.0	0.0	233.6	47.0
=	0.0	0.0	233.9	46.9
=	0.0	0.0	234.2	46.9
=	0.0	0.0	234.5	46.8
=	0.0	0.0	234.7	46.7
=	0.0	0.0	235.0	46.7
=	0.0	0.0	235.3	46.7
=	0.0	0.0	235.7	46.6
=	0.0	0.0	236.1	46.6
=	0.0	0.0	236.5	46.5
=	0.0	0.0	236.9	46.5
=	0.0	0.0	237.3	46.4
=	0.0	0.0	237.6	46.3
=	0.0	0.0	237.9	46.3
=	0.0	0.0	238.3	46.2
=	0.0	0.0	238.7	46.1
=	0.0	0.0	239.1	46.0
=	0.0	0.0	239.5	45.9
=	0.0	0.0	239.9	45.9
=	0.0	0.0	240.3	45.8
=	0.0	0.0	240.7	45.7
=	0.0	0.0	241.1	45.7
=	0.0	0.0	241.5	45.6
=	0.0	0.0	241.9	45.6
=	0.0	0.0	242.5	45.5
=	0.0	0.0	242.9	45.4
=	0.0	0.0	243.3	45.3
=	0.0	0.0	243.8	45.1
=	0.0	0.0	244.2	45.1
=	0.0	0.0	244.5	45.0
=	0.0	0.0	244.9	45.0
=	0.0	0.0	245.3	44.9
=	0.0	0.0	245.7	44.8
=	0.0	0.0	246.1	44.8
=	0.0	0.0	246.6	44.7
=	0.0	0.0	247.0	44.6
=	0.0	0.0	247.4	44.6
=	0.0	0.0	247.8	44.5
=	0.0	0.0	248.2	44.4
=	0.0	0.0	248.6	44.3
=	0.0	0.0	249.0	44.3
=	0.0	0.0	249.5	44.2
=	0.0	0.0	250.2	44.1
=	0.0	0.0	250.6	44.0
=	0.0	0.0	251.0	43.9
=	0.0	0.0	251.4	43.8
=	0.0	0.0	251.8	43.8
=	0.0	0.0	252.2	43.8
=	0.0	0.0	252.6	43.7
=	0.0	0.0	253.0	43.7
=	0.0	0.0	253.4	43.6
=	0.0	0.0	253.8	43.5
=	0.0	0.0	254.2	43.4
=	0.0	0.0	254.5	43.3
=	0.0	0.0	254.7	43.3
=	0.0	0.0	255.0	43.2
=	0.0	0.0	255.3	43.2
=	0.0	0.0	255.5	43.1
=	0.0	0.0	255.9	43.0
=	0.0	0.0	256.3	43.0
=	0.0	0.0	256.7	42.9
=	0.0	0.0	257.1	42.8
=	0.0	0.0	257.5	42.7
=	0.0	0.0	257.9	42.7
=	0.0	0.0	258.3	42.6
=	0.0	0.0	258.7	42.6
=	0.0	0.0	258.9	42.6
=	0.0	0.0	259.4	42.5
=	0.0	0.0	259.8	42.4
=	0.0	0.0	260.2	42.3
=	0.0	0.0	260.6	42.3
=	0.0	0.0	261.0	42.2
=	0.0	0.0	261.6	42.1
=	0.0	0.0	262.1	42.1
=	0.0	0.0	262.5	42.0
=	0.0	0.0	263.2	41.8
=	0.0	0.0	264.1	41.7
=	0.0	0.0	264.9	41.5
=	0.0	0.0	265.7	41.4
=	0.0	0.0	266.5	41.3
=	0.0	0.0	267.3	41.2
=	0.0	0.0	268.1	41.0
=	0.0	0.0	268.7	40.8
=	0.0	0.0	269.1	40.8
=	0.0	0.0	269.5	40.7
=	0.0	0.0	269.9	40.7
=	0.0	0.0	270.2	40.6
=	0.0	0.0	270.6	40.6
=	0.0	0.0	271.0	40.5
=	0.0	0.0	271.5	40.5
=	0.0	0.0	271.9	40.4
=	0.0	0.0	272.2	40.4
=	0.0	0.0	272.6	40.3
=	0.0	0.0	273.0	40.2
=	0.0	0.0	273.5	40.2
=	0.0	0.0	273.9	40.1
=	0.0	0.0	274.3	40.0
=	0.0	0.0	274.7	40.0
=	0.0	0.0	275.1	39.9
=	0.0	0.0	275.5	39.8
=	0.0	0.0	275.9	39.8
=	0.0	0.0	276.3	39.7
=	0.0	0.0	276.7	39.7
=	0.0	0.0	277.1	39.6
=	0.0	0.0	277.5	39.5
=	0.0	0.0	277.9	39.4
=	0.0	0.0	278.3	39.4
