:MSR 	20	 # No. of measurement in file
:SYS BDS 0   # Beam Data Scanner System
#
# RFA300 ASCII Measurement Dump ( BDS format )
#
# Measurement number 	1
#
%VNR 1.0
%MOD 	RAT
%TYP 	SCN
%SCN 	PRO
%FLD 	ION
%DAT 	09-26-2011
%TIM 	12:00:00
%FSZ 	040	040
%BMT 	PHO	   15.0
%SSD 	1000
%BUP 	0
%BRD 	1000
%FSH 	1
%ASC 	0
%WEG 	60
%GPO 	0
%CPO 	0
%MEA 	6
%PRD 	30,0
%PTS 	786
%STS 	    -70.4	  0.0	   30.0 # Start Scan values in mm ( X , Y , Z )
%EDS 	    70.5	   0.0	   30.0 # End Scan values in mm ( X , Y , Z )
#
#	  X      Y      Z     Dose
#
=	-70.4	0.0	30.0	1.4
=	-70.2	0.0	30.0	1.4
=	-70.0	0.0	30.0	1.4
=	-69.8	0.0	30.0	1.4
=	-69.5	0.0	30.0	1.4
=	-69.3	0.0	30.0	1.4
=	-69.1	0.0	30.0	1.4
=	-68.9	0.0	30.0	1.4
=	-68.7	0.0	30.0	1.4
=	-68.6	0.0	30.0	1.4
=	-68.4	0.0	30.0	1.4
=	-68.3	0.0	30.0	1.4
=	-68.0	0.0	30.0	1.4
=	-67.7	0.0	30.0	1.4
=	-67.5	0.0	30.0	1.4
=	-67.3	0.0	30.0	1.4
=	-67.2	0.0	30.0	1.4
=	-67.1	0.0	30.0	1.4
=	-67.0	0.0	30.0	1.4
=	-66.7	0.0	30.0	1.4
=	-66.5	0.0	30.0	1.4
=	-66.3	0.0	30.0	1.4
=	-66.1	0.0	30.0	1.4
=	-66.0	0.0	30.0	1.4
=	-65.7	0.0	30.0	1.4
=	-65.5	0.0	30.0	1.4
=	-65.3	0.0	30.0	1.4
=	-65.1	0.0	30.0	1.4
=	-64.9	0.0	30.0	1.4
=	-64.7	0.0	30.0	1.4
=	-64.5	0.0	30.0	1.4
=	-64.4	0.0	30.0	1.4
=	-64.3	0.0	30.0	1.4
=	-64.2	0.0	30.0	1.5
=	-64.0	0.0	30.0	1.5
=	-63.9	0.0	30.0	1.5
=	-63.8	0.0	30.0	1.5
=	-63.7	0.0	30.0	1.5
=	-63.5	0.0	30.0	1.4
=	-63.4	0.0	30.0	1.4
=	-63.3	0.0	30.0	1.4
=	-63.0	0.0	30.0	1.4
=	-62.9	0.0	30.0	1.5
=	-62.8	0.0	30.0	1.5
=	-62.6	0.0	30.0	1.5
=	-62.4	0.0	30.0	1.5
=	-62.3	0.0	30.0	1.5
=	-62.1	0.0	30.0	1.5
=	-61.9	0.0	30.0	1.5
=	-61.7	0.0	30.0	1.5
=	-61.6	0.0	30.0	1.5
=	-61.4	0.0	30.0	1.5
=	-61.3	0.0	30.0	1.5
=	-61.2	0.0	30.0	1.5
=	-61.0	0.0	30.0	1.5
=	-60.8	0.0	30.0	1.5
=	-60.7	0.0	30.0	1.5
=	-60.6	0.0	30.0	1.5
=	-60.5	0.0	30.0	1.5
=	-60.2	0.0	30.0	1.5
=	-60.0	0.0	30.0	1.5
=	-59.8	0.0	30.0	1.5
=	-59.6	0.0	30.0	1.5
=	-59.4	0.0	30.0	1.5
=	-59.2	0.0	30.0	1.5
=	-59.0	0.0	30.0	1.5
=	-58.8	0.0	30.0	1.5
=	-58.6	0.0	30.0	1.5
=	-58.4	0.0	30.0	1.6
=	-58.3	0.0	30.0	1.6
=	-58.0	0.0	30.0	1.6
=	-57.8	0.0	30.0	1.6
=	-57.7	0.0	30.0	1.6
=	-57.6	0.0	30.0	1.6
=	-57.5	0.0	30.0	1.6
=	-57.3	0.0	30.0	1.6
=	-57.1	0.0	30.0	1.6
=	-56.9	0.0	30.0	1.6
=	-56.7	0.0	30.0	1.6
=	-56.6	0.0	30.0	1.6
=	-56.5	0.0	30.0	1.6
=	-56.4	0.0	30.0	1.6
=	-56.2	0.0	30.0	1.6
=	-56.1	0.0	30.0	1.6
=	-55.9	0.0	30.0	1.6
=	-55.8	0.0	30.0	1.6
=	-55.7	0.0	30.0	1.6
=	-55.5	0.0	30.0	1.6
=	-55.3	0.0	30.0	1.6
=	-55.1	0.0	30.0	1.6
=	-55.0	0.0	30.0	1.6
=	-54.8	0.0	30.0	1.6
=	-54.6	0.0	30.0	1.6
=	-54.4	0.0	30.0	1.7
=	-54.2	0.0	30.0	1.7
=	-54.0	0.0	30.0	1.7
=	-53.8	0.0	30.0	1.7
=	-53.6	0.0	30.0	1.7
=	-53.4	0.0	30.0	1.7
=	-53.1	0.0	30.0	1.7
=	-53.0	0.0	30.0	1.7
=	-52.7	0.0	30.0	1.7
=	-52.6	0.0	30.0	1.7
=	-52.4	0.0	30.0	1.7
=	-52.3	0.0	30.0	1.7
=	-52.1	0.0	30.0	1.7
=	-51.9	0.0	30.0	1.7
=	-51.7	0.0	30.0	1.8
=	-51.5	0.0	30.0	1.8
=	-51.3	0.0	30.0	1.8
=	-51.1	0.0	30.0	1.8
=	-50.8	0.0	30.0	1.8
=	-50.7	0.0	30.0	1.8
=	-50.4	0.0	30.0	1.8
=	-50.3	0.0	30.0	1.8
=	-50.0	0.0	30.0	1.8
=	-49.8	0.0	30.0	1.8
=	-49.6	0.0	30.0	1.8
=	-49.4	0.0	30.0	1.8
=	-49.3	0.0	30.0	1.8
=	-49.2	0.0	30.0	1.8
=	-49.0	0.0	30.0	1.9
=	-48.9	0.0	30.0	1.9
=	-48.7	0.0	30.0	1.9
=	-48.5	0.0	30.0	1.9
=	-48.4	0.0	30.0	1.9
=	-48.3	0.0	30.0	1.9
=	-48.1	0.0	30.0	1.9
=	-48.0	0.0	30.0	1.9
=	-47.9	0.0	30.0	1.9
=	-47.7	0.0	30.0	1.9
=	-47.5	0.0	30.0	1.9
=	-47.2	0.0	30.0	1.9
=	-47.0	0.0	30.0	2.0
=	-46.8	0.0	30.0	2.0
=	-46.6	0.0	30.0	2.0
=	-46.4	0.0	30.0	2.0
=	-46.2	0.0	30.0	2.0
=	-46.0	0.0	30.0	2.0
=	-45.8	0.0	30.0	2.0
=	-45.6	0.0	30.0	2.0
=	-45.4	0.0	30.0	2.1
=	-45.2	0.0	30.0	2.1
=	-44.9	0.0	30.0	2.1
=	-44.8	0.0	30.0	2.1
=	-44.6	0.0	30.0	2.1
=	-44.4	0.0	30.0	2.1
=	-44.2	0.0	30.0	2.1
=	-43.9	0.0	30.0	2.2
=	-43.8	0.0	30.0	2.2
=	-43.6	0.0	30.0	2.2
=	-43.4	0.0	30.0	2.2
=	-43.3	0.0	30.0	2.2
=	-43.2	0.0	30.0	2.2
=	-43.0	0.0	30.0	2.2
=	-42.8	0.0	30.0	2.2
=	-42.6	0.0	30.0	2.2
=	-42.3	0.0	30.0	2.3
=	-42.2	0.0	30.0	2.3
=	-41.9	0.0	30.0	2.3
=	-41.8	0.0	30.0	2.3
=	-41.5	0.0	30.0	2.3
=	-41.4	0.0	30.0	2.4
=	-41.3	0.0	30.0	2.4
=	-41.1	0.0	30.0	2.4
=	-40.9	0.0	30.0	2.4
=	-40.7	0.0	30.0	2.4
=	-40.5	0.0	30.0	2.4
=	-40.3	0.0	30.0	2.5
=	-40.1	0.0	30.0	2.5
=	-39.9	0.0	30.0	2.5
=	-39.7	0.0	30.0	2.5
=	-39.5	0.0	30.0	2.6
=	-39.3	0.0	30.0	2.6
=	-39.1	0.0	30.0	2.6
=	-38.9	0.0	30.0	2.6
=	-38.7	0.0	30.0	2.7
=	-38.4	0.0	30.0	2.7
=	-38.2	0.0	30.0	2.7
=	-38.0	0.0	30.0	2.8
=	-37.8	0.0	30.0	2.8
=	-37.6	0.0	30.0	2.8
=	-37.5	0.0	30.0	2.9
=	-37.2	0.0	30.0	2.9
=	-37.0	0.0	30.0	2.9
=	-36.8	0.0	30.0	3.0
=	-36.6	0.0	30.0	3.0
=	-36.4	0.0	30.0	3.1
=	-36.3	0.0	30.0	3.1
=	-36.2	0.0	30.0	3.1
=	-36.0	0.0	30.0	3.1
=	-35.9	0.0	30.0	3.1
=	-35.7	0.0	30.0	3.2
=	-35.5	0.0	30.0	3.2
=	-35.4	0.0	30.0	3.3
=	-35.2	0.0	30.0	3.3
=	-35.1	0.0	30.0	3.3
=	-34.9	0.0	30.0	3.4
=	-34.8	0.0	30.0	3.4
=	-34.7	0.0	30.0	3.4
=	-34.6	0.0	30.0	3.5
=	-34.4	0.0	30.0	3.5
=	-34.2	0.0	30.0	3.5
=	-34.1	0.0	30.0	3.5
=	-34.0	0.0	30.0	3.6
=	-33.8	0.0	30.0	3.6
=	-33.7	0.0	30.0	3.7
=	-33.5	0.0	30.0	3.8
=	-33.4	0.0	30.0	3.8
=	-33.2	0.0	30.0	3.9
=	-33.0	0.0	30.0	3.9
=	-32.8	0.0	30.0	4.0
=	-32.6	0.0	30.0	4.1
=	-32.4	0.0	30.0	4.2
=	-32.1	0.0	30.0	4.3
=	-32.0	0.0	30.0	4.4
=	-31.8	0.0	30.0	4.5
=	-31.6	0.0	30.0	4.6
=	-31.5	0.0	30.0	4.6
=	-31.3	0.0	30.0	4.7
=	-31.2	0.0	30.0	4.8
=	-31.1	0.0	30.0	4.9
=	-30.9	0.0	30.0	5.0
=	-30.8	0.0	30.0	5.1
=	-30.6	0.0	30.0	5.2
=	-30.5	0.0	30.0	5.3
=	-30.4	0.0	30.0	5.3
=	-30.2	0.0	30.0	5.5
=	-30.0	0.0	30.0	5.6
=	-29.8	0.0	30.0	5.8
=	-29.6	0.0	30.0	6.0
=	-29.4	0.0	30.0	6.1
=	-29.1	0.0	30.0	6.4
=	-28.9	0.0	30.0	6.5
=	-28.7	0.0	30.0	6.8
=	-28.5	0.0	30.0	7.0
=	-28.3	0.0	30.0	7.2
=	-28.1	0.0	30.0	7.5
=	-27.9	0.0	30.0	7.9
=	-27.7	0.0	30.0	8.1
=	-27.6	0.0	30.0	8.2
=	-27.5	0.0	30.0	8.4
=	-27.3	0.0	30.0	8.8
=	-27.1	0.0	30.0	9.1
=	-26.9	0.0	30.0	9.5
=	-26.7	0.0	30.0	9.9
=	-26.5	0.0	30.0	10.4
=	-26.3	0.0	30.0	10.9
=	-26.1	0.0	30.0	11.4
=	-25.8	0.0	30.0	12.1
=	-25.6	0.0	30.0	12.6
=	-25.4	0.0	30.0	13.2
=	-25.2	0.0	30.0	13.8
=	-25.1	0.0	30.0	14.2
=	-24.9	0.0	30.0	14.9
=	-24.8	0.0	30.0	15.3
=	-24.7	0.0	30.0	15.9
=	-24.5	0.0	30.0	16.8
=	-24.3	0.0	30.0	17.6
=	-24.2	0.0	30.0	18.1
=	-24.0	0.0	30.0	18.9
=	-23.9	0.0	30.0	19.6
=	-23.8	0.0	30.0	20.2
=	-23.6	0.0	30.0	21.2
=	-23.4	0.0	30.0	23.1
=	-23.2	0.0	30.0	24.6
=	-23.1	0.0	30.0	25.7
=	-22.9	0.0	30.0	27.9
=	-22.6	0.0	30.0	30.0
=	-22.4	0.0	30.0	32.1
=	-22.3	0.0	30.0	33.9
=	-22.0	0.0	30.0	36.3
=	-21.9	0.0	30.0	38.0
=	-21.7	0.0	30.0	40.1
=	-21.5	0.0	30.0	42.3
=	-21.3	0.0	30.0	44.8
=	-21.2	0.0	30.0	46.2
=	-21.1	0.0	30.0	47.6
=	-20.9	0.0	30.0	50.5
=	-20.7	0.0	30.0	53.1
=	-20.5	0.0	30.0	55.5
=	-20.2	0.0	30.0	58.2
=	-20.0	0.0	30.0	60.8
=	-19.9	0.0	30.0	62.4
=	-19.8	0.0	30.0	64.3
=	-19.6	0.0	30.0	66.0
=	-19.4	0.0	30.0	68.3
=	-19.2	0.0	30.0	70.9
=	-19.0	0.0	30.0	73.4
=	-18.8	0.0	30.0	76.0
=	-18.6	0.0	30.0	78.1
=	-18.4	0.0	30.0	80.3
=	-18.3	0.0	30.0	81.4
=	-18.2	0.0	30.0	82.9
=	-18.0	0.0	30.0	84.8
=	-17.8	0.0	30.0	86.5
=	-17.6	0.0	30.0	88.7
=	-17.4	0.0	30.0	90.2
=	-17.2	0.0	30.0	91.9
=	-17.0	0.0	30.0	93.3
=	-16.7	0.0	30.0	95.2
=	-16.5	0.0	30.0	96.6
=	-16.4	0.0	30.0	97.4
=	-16.1	0.0	30.0	98.4
=	-16.0	0.0	30.0	99.2
=	-15.8	0.0	30.0	99.9
=	-15.5	0.0	30.0	100.8
=	-15.3	0.0	30.0	101.5
=	-15.1	0.0	30.0	102.0
=	-14.9	0.0	30.0	102.6
=	-14.7	0.0	30.0	102.9
=	-14.6	0.0	30.0	103.1
=	-14.5	0.0	30.0	103.3
=	-14.4	0.0	30.0	103.6
=	-14.1	0.0	30.0	104.0
=	-14.0	0.0	30.0	104.4
=	-13.9	0.0	30.0	104.5
=	-13.7	0.0	30.0	104.6
=	-13.6	0.0	30.0	104.7
=	-13.5	0.0	30.0	104.8
=	-13.3	0.0	30.0	105.0
=	-13.1	0.0	30.0	105.1
=	-12.9	0.0	30.0	105.3
=	-12.8	0.0	30.0	105.3
=	-12.6	0.0	30.0	105.4
=	-12.5	0.0	30.0	105.4
=	-12.3	0.0	30.0	105.5
=	-12.2	0.0	30.0	105.5
=	-12.0	0.0	30.0	105.5
=	-11.8	0.0	30.0	105.6
=	-11.7	0.0	30.0	105.6
=	-11.6	0.0	30.0	105.6
=	-11.5	0.0	30.0	105.6
=	-11.3	0.0	30.0	105.6
=	-11.1	0.0	30.0	105.6
=	-10.9	0.0	30.0	105.6
=	-10.7	0.0	30.0	105.6
=	-10.5	0.0	30.0	105.6
=	-10.3	0.0	30.0	105.6
=	-10.0	0.0	30.0	105.6
=	-9.9	0.0	30.0	105.6
=	-9.6	0.0	30.0	105.6
=	-9.5	0.0	30.0	105.6
=	-9.4	0.0	30.0	105.6
=	-9.2	0.0	30.0	105.6
=	-9.1	0.0	30.0	105.6
=	-9.0	0.0	30.0	105.5
=	-8.8	0.0	30.0	105.5
=	-8.6	0.0	30.0	105.5
=	-8.4	0.0	30.0	105.5
=	-8.2	0.0	30.0	105.4
=	-8.0	0.0	30.0	105.3
=	-7.8	0.0	30.0	105.1
=	-7.6	0.0	30.0	104.9
=	-7.4	0.0	30.0	104.9
=	-7.2	0.0	30.0	104.7
=	-7.0	0.0	30.0	104.6
=	-6.7	0.0	30.0	104.6
=	-6.5	0.0	30.0	104.5
=	-6.3	0.0	30.0	104.4
=	-6.2	0.0	30.0	104.3
=	-6.0	0.0	30.0	104.2
=	-5.8	0.0	30.0	104.0
=	-5.6	0.0	30.0	103.9
=	-5.3	0.0	30.0	103.8
=	-5.1	0.0	30.0	103.7
=	-4.9	0.0	30.0	103.5
=	-4.7	0.0	30.0	103.3
=	-4.5	0.0	30.0	103.1
=	-4.3	0.0	30.0	103.0
=	-4.1	0.0	30.0	102.8
=	-3.9	0.0	30.0	102.6
=	-3.7	0.0	30.0	102.6
=	-3.5	0.0	30.0	102.5
=	-3.3	0.0	30.0	102.5
=	-3.1	0.0	30.0	102.4
=	-2.9	0.0	30.0	102.3
=	-2.7	0.0	30.0	102.0
=	-2.5	0.0	30.0	101.8
=	-2.3	0.0	30.0	101.7
=	-2.1	0.0	30.0	101.4
=	-1.9	0.0	30.0	101.2
=	-1.7	0.0	30.0	101.1
=	-1.5	0.0	30.0	100.9
=	-1.4	0.0	30.0	100.9
=	-1.3	0.0	30.0	100.8
=	-1.1	0.0	30.0	100.7
=	-1.0	0.0	30.0	100.7
=	-0.9	0.0	30.0	100.6
=	-0.7	0.0	30.0	100.5
=	-0.4	0.0	30.0	100.3
=	-0.3	0.0	30.0	100.2
=	-0.2	0.0	30.0	100.1
=	-0.1	0.0	30.0	100.0
=	0.1	0.0	30.0	99.9
=	0.2	0.0	30.0	99.8
=	0.3	0.0	30.0	99.7
=	0.5	0.0	30.0	99.5
=	0.6	0.0	30.0	99.5
=	0.8	0.0	30.0	99.4
=	0.9	0.0	30.0	99.3
=	1.0	0.0	30.0	99.3
=	1.2	0.0	30.0	99.2
=	1.3	0.0	30.0	99.2
=	1.5	0.0	30.0	99.1
=	1.6	0.0	30.0	98.9
=	1.7	0.0	30.0	98.7
=	1.8	0.0	30.0	98.6
=	2.0	0.0	30.0	98.5
=	2.1	0.0	30.0	98.3
=	2.3	0.0	30.0	98.2
=	2.5	0.0	30.0	98.0
=	2.6	0.0	30.0	98.0
=	2.7	0.0	30.0	97.9
=	2.9	0.0	30.0	97.7
=	3.1	0.0	30.0	97.6
=	3.2	0.0	30.0	97.5
=	3.3	0.0	30.0	97.4
=	3.4	0.0	30.0	97.3
=	3.6	0.0	30.0	97.2
=	3.7	0.0	30.0	97.2
=	3.8	0.0	30.0	97.1
=	4.0	0.0	30.0	97.0
=	4.1	0.0	30.0	96.9
=	4.3	0.0	30.0	96.7
=	4.5	0.0	30.0	96.6
=	4.7	0.0	30.0	96.5
=	4.9	0.0	30.0	96.4
=	5.0	0.0	30.0	96.3
=	5.1	0.0	30.0	96.2
=	5.3	0.0	30.0	96.0
=	5.6	0.0	30.0	95.8
=	5.7	0.0	30.0	95.7
=	6.0	0.0	30.0	95.5
=	6.2	0.0	30.0	95.4
=	6.4	0.0	30.0	95.2
=	6.5	0.0	30.0	95.1
=	6.7	0.0	30.0	95.0
=	6.9	0.0	30.0	94.9
=	7.0	0.0	30.0	94.7
=	7.2	0.0	30.0	94.5
=	7.4	0.0	30.0	94.3
=	7.6	0.0	30.0	94.0
=	7.8	0.0	30.0	93.9
=	8.0	0.0	30.0	93.8
=	8.2	0.0	30.0	93.6
=	8.4	0.0	30.0	93.4
=	8.5	0.0	30.0	93.3
=	8.7	0.0	30.0	93.2
=	8.8	0.0	30.0	93.1
=	9.0	0.0	30.0	92.9
=	9.2	0.0	30.0	92.7
=	9.4	0.0	30.0	92.5
=	9.6	0.0	30.0	92.2
=	9.8	0.0	30.0	92.0
=	10.0	0.0	30.0	91.7
=	10.2	0.0	30.0	91.5
=	10.5	0.0	30.0	91.1
=	10.6	0.0	30.0	90.9
=	10.8	0.0	30.0	90.8
=	11.0	0.0	30.0	90.6
=	11.1	0.0	30.0	90.4
=	11.2	0.0	30.0	90.3
=	11.5	0.0	30.0	90.0
=	11.7	0.0	30.0	89.7
=	11.9	0.0	30.0	89.5
=	12.1	0.0	30.0	89.2
=	12.3	0.0	30.0	88.9
=	12.5	0.0	30.0	88.6
=	12.7	0.0	30.0	88.3
=	12.9	0.0	30.0	88.0
=	13.1	0.0	30.0	87.7
=	13.3	0.0	30.0	87.4
=	13.5	0.0	30.0	86.9
=	13.7	0.0	30.0	86.6
=	13.9	0.0	30.0	86.2
=	14.1	0.0	30.0	85.6
=	14.3	0.0	30.0	85.0
=	14.5	0.0	30.0	84.6
=	14.7	0.0	30.0	83.9
=	14.9	0.0	30.0	83.4
=	15.1	0.0	30.0	82.8
=	15.3	0.0	30.0	82.4
=	15.5	0.0	30.0	81.7
=	15.7	0.0	30.0	81.0
=	15.9	0.0	30.0	80.3
=	16.1	0.0	30.0	79.6
=	16.3	0.0	30.0	78.7
=	16.5	0.0	30.0	78.0
=	16.8	0.0	30.0	76.9
=	16.9	0.0	30.0	75.8
=	17.2	0.0	30.0	74.1
=	17.3	0.0	30.0	73.4
=	17.4	0.0	30.0	72.8
=	17.5	0.0	30.0	71.9
=	17.7	0.0	30.0	71.0
=	17.8	0.0	30.0	70.2
=	17.9	0.0	30.0	68.9
=	18.1	0.0	30.0	67.4
=	18.4	0.0	30.0	65.4
=	18.5	0.0	30.0	64.0
=	18.8	0.0	30.0	61.4
=	18.9	0.0	30.0	60.3
=	19.0	0.0	30.0	59.5
=	19.2	0.0	30.0	57.8
=	19.3	0.0	30.0	56.8
=	19.5	0.0	30.0	55.6
=	19.6	0.0	30.0	54.0
=	19.8	0.0	30.0	51.9
=	20.0	0.0	30.0	50.2
=	20.1	0.0	30.0	49.0
=	20.3	0.0	30.0	47.8
=	20.4	0.0	30.0	45.9
=	20.6	0.0	30.0	44.0
=	20.8	0.0	30.0	41.9
=	21.0	0.0	30.0	39.9
=	21.2	0.0	30.0	37.8
=	21.5	0.0	30.0	35.9
=	21.6	0.0	30.0	34.1
=	21.8	0.0	30.0	32.5
=	22.0	0.0	30.0	30.6
=	22.2	0.0	30.0	29.5
=	22.3	0.0	30.0	28.5
=	22.5	0.0	30.0	27.0
=	22.7	0.0	30.0	25.0
=	22.8	0.0	30.0	23.9
=	23.1	0.0	30.0	22.2
=	23.3	0.0	30.0	20.5
=	23.5	0.0	30.0	19.3
=	23.7	0.0	30.0	18.2
=	23.9	0.0	30.0	17.0
=	24.1	0.0	30.0	16.1
=	24.3	0.0	30.0	15.1
=	24.5	0.0	30.0	14.4
=	24.7	0.0	30.0	13.5
=	24.9	0.0	30.0	12.8
=	25.1	0.0	30.0	12.0
=	25.3	0.0	30.0	11.5
=	25.5	0.0	30.0	10.8
=	25.7	0.0	30.0	10.3
=	25.9	0.0	30.0	9.8
=	26.1	0.0	30.0	9.3
=	26.3	0.0	30.0	8.9
=	26.5	0.0	30.0	8.6
=	26.7	0.0	30.0	8.2
=	26.9	0.0	30.0	7.8
=	27.1	0.0	30.0	7.5
=	27.3	0.0	30.0	7.2
=	27.5	0.0	30.0	6.9
=	27.8	0.0	30.0	6.5
=	27.9	0.0	30.0	6.4
=	28.1	0.0	30.0	6.0
=	28.4	0.0	30.0	5.8
=	28.6	0.0	30.0	5.7
=	28.7	0.0	30.0	5.7
=	29.0	0.0	30.0	5.4
=	29.2	0.0	30.0	5.2
=	29.4	0.0	30.0	5.0
=	29.5	0.0	30.0	4.9
=	29.8	0.0	30.0	4.6
=	30.0	0.0	30.0	4.5
=	30.2	0.0	30.0	4.4
=	30.4	0.0	30.0	4.3
=	30.5	0.0	30.0	4.2
=	30.6	0.0	30.0	4.2
=	30.7	0.0	30.0	4.1
=	31.0	0.0	30.0	4.0
=	31.2	0.0	30.0	3.9
=	31.4	0.0	30.0	3.8
=	31.6	0.0	30.0	3.7
=	31.8	0.0	30.0	3.6
=	32.0	0.0	30.0	3.5
=	32.2	0.0	30.0	3.5
=	32.3	0.0	30.0	3.4
=	32.4	0.0	30.0	3.4
=	32.6	0.0	30.0	3.3
=	32.7	0.0	30.0	3.3
=	32.9	0.0	30.0	3.2
=	33.0	0.0	30.0	3.2
=	33.2	0.0	30.0	3.1
=	33.3	0.0	30.0	3.1
=	33.4	0.0	30.0	3.0
=	33.5	0.0	30.0	3.0
=	33.6	0.0	30.0	3.0
=	33.8	0.0	30.0	3.0
=	34.1	0.0	30.0	2.9
=	34.3	0.0	30.0	2.8
=	34.4	0.0	30.0	2.8
=	34.6	0.0	30.0	2.8
=	34.8	0.0	30.0	2.7
=	35.0	0.0	30.0	2.7
=	35.2	0.0	30.0	2.6
=	35.5	0.0	30.0	2.6
=	35.7	0.0	30.0	2.5
=	35.8	0.0	30.0	2.5
=	36.1	0.0	30.0	2.5
=	36.2	0.0	30.0	2.4
=	36.3	0.0	30.0	2.4
=	36.5	0.0	30.0	2.4
=	36.6	0.0	30.0	2.3
=	36.8	0.0	30.0	2.3
=	37.0	0.0	30.0	2.3
=	37.2	0.0	30.0	2.3
=	37.5	0.0	30.0	2.2
=	37.7	0.0	30.0	2.2
=	37.9	0.0	30.0	2.2
=	38.1	0.0	30.0	2.2
=	38.3	0.0	30.0	2.2
=	38.5	0.0	30.0	2.1
=	38.7	0.0	30.0	2.1
=	38.9	0.0	30.0	2.1
=	39.1	0.0	30.0	2.1
=	39.3	0.0	30.0	2.0
=	39.5	0.0	30.0	2.0
=	39.7	0.0	30.0	2.0
=	39.9	0.0	30.0	2.0
=	40.1	0.0	30.0	2.0
=	40.3	0.0	30.0	2.0
=	40.5	0.0	30.0	2.0
=	40.7	0.0	30.0	1.9
=	40.9	0.0	30.0	1.9
=	41.1	0.0	30.0	1.9
=	41.3	0.0	30.0	1.9
=	41.5	0.0	30.0	1.9
=	41.7	0.0	30.0	1.8
=	41.9	0.0	30.0	1.8
=	42.1	0.0	30.0	1.8
=	42.3	0.0	30.0	1.8
=	42.4	0.0	30.0	1.8
=	42.5	0.0	30.0	1.8
=	42.7	0.0	30.0	1.7
=	42.9	0.0	30.0	1.7
=	43.1	0.0	30.0	1.7
=	43.3	0.0	30.0	1.7
=	43.5	0.0	30.0	1.7
=	43.7	0.0	30.0	1.7
=	43.8	0.0	30.0	1.7
=	43.9	0.0	30.0	1.7
=	44.1	0.0	30.0	1.6
=	44.4	0.0	30.0	1.6
=	44.5	0.0	30.0	1.6
=	44.8	0.0	30.0	1.6
=	44.9	0.0	30.0	1.6
=	45.2	0.0	30.0	1.6
=	45.3	0.0	30.0	1.6
=	45.6	0.0	30.0	1.6
=	45.7	0.0	30.0	1.6
=	46.0	0.0	30.0	1.5
=	46.1	0.0	30.0	1.5
=	46.2	0.0	30.0	1.5
=	46.4	0.0	30.0	1.5
=	46.6	0.0	30.0	1.5
=	46.8	0.0	30.0	1.5
=	46.9	0.0	30.0	1.5
=	47.0	0.0	30.0	1.5
=	47.2	0.0	30.0	1.5
=	47.3	0.0	30.0	1.5
=	47.5	0.0	30.0	1.5
=	47.6	0.0	30.0	1.5
=	47.7	0.0	30.0	1.5
=	47.9	0.0	30.0	1.5
=	48.1	0.0	30.0	1.5
=	48.3	0.0	30.0	1.5
=	48.4	0.0	30.0	1.4
=	48.6	0.0	30.0	1.4
=	48.8	0.0	30.0	1.4
=	49.0	0.0	30.0	1.4
=	49.3	0.0	30.0	1.4
=	49.5	0.0	30.0	1.4
=	49.6	0.0	30.0	1.4
=	49.7	0.0	30.0	1.4
=	49.9	0.0	30.0	1.4
=	50.0	0.0	30.0	1.4
=	50.2	0.0	30.0	1.4
=	50.5	0.0	30.0	1.4
=	50.7	0.0	30.0	1.4
=	50.9	0.0	30.0	1.3
=	51.1	0.0	30.0	1.3
=	51.3	0.0	30.0	1.3
=	51.5	0.0	30.0	1.3
=	51.7	0.0	30.0	1.3
=	51.9	0.0	30.0	1.3
=	52.1	0.0	30.0	1.3
=	52.3	0.0	30.0	1.3
=	52.5	0.0	30.0	1.3
=	52.7	0.0	30.0	1.3
=	52.9	0.0	30.0	1.3
=	53.0	0.0	30.0	1.3
=	53.1	0.0	30.0	1.3
=	53.4	0.0	30.0	1.3
=	53.5	0.0	30.0	1.3
=	53.7	0.0	30.0	1.3
=	53.8	0.0	30.0	1.3
=	54.1	0.0	30.0	1.3
=	54.2	0.0	30.0	1.3
=	54.3	0.0	30.0	1.3
=	54.5	0.0	30.0	1.2
=	54.7	0.0	30.0	1.2
=	54.9	0.0	30.0	1.2
=	55.1	0.0	30.0	1.2
=	55.4	0.0	30.0	1.2
=	55.6	0.0	30.0	1.2
=	55.8	0.0	30.0	1.2
=	56.0	0.0	30.0	1.2
=	56.2	0.0	30.0	1.2
=	56.4	0.0	30.0	1.2
=	56.6	0.0	30.0	1.2
=	56.8	0.0	30.0	1.2
=	56.9	0.0	30.0	1.2
=	57.1	0.0	30.0	1.2
=	57.2	0.0	30.0	1.2
=	57.3	0.0	30.0	1.2
=	57.5	0.0	30.0	1.1
=	57.8	0.0	30.0	1.1
=	57.9	0.0	30.0	1.1
=	58.2	0.0	30.0	1.1
=	58.3	0.0	30.0	1.1
=	58.6	0.0	30.0	1.1
=	58.8	0.0	30.0	1.1
=	59.0	0.0	30.0	1.1
=	59.2	0.0	30.0	1.1
=	59.4	0.0	30.0	1.1
=	59.6	0.0	30.0	1.1
=	59.8	0.0	30.0	1.1
=	60.0	0.0	30.0	1.1
=	60.2	0.0	30.0	1.1
=	60.4	0.0	30.0	1.1
=	60.6	0.0	30.0	1.1
=	60.9	0.0	30.0	1.1
=	61.0	0.0	30.0	1.1
=	61.2	0.0	30.0	1.1
=	61.5	0.0	30.0	1.1
=	61.7	0.0	30.0	1.1
=	61.9	0.0	30.0	1.1
=	62.1	0.0	30.0	1.1
=	62.3	0.0	30.0	1.1
=	62.4	0.0	30.0	1.1
=	62.6	0.0	30.0	1.1
=	62.7	0.0	30.0	1.1
=	62.9	0.0	30.0	1.1
=	63.0	0.0	30.0	1.1
=	63.1	0.0	30.0	1.1
=	63.3	0.0	30.0	1.1
=	63.4	0.0	30.0	1.1
=	63.6	0.0	30.0	1.1
=	63.8	0.0	30.0	1.1
=	63.9	0.0	30.0	1.1
=	64.1	0.0	30.0	1.0
=	64.2	0.0	30.0	1.0
=	64.3	0.0	30.0	1.0
=	64.5	0.0	30.0	1.0
=	64.7	0.0	30.0	1.0
=	64.8	0.0	30.0	1.0
=	64.9	0.0	30.0	1.0
=	65.1	0.0	30.0	1.0
=	65.3	0.0	30.0	1.0
=	65.5	0.0	30.0	1.0
=	65.7	0.0	30.0	1.0
=	65.9	0.0	30.0	1.0
=	66.0	0.0	30.0	1.0
=	66.2	0.0	30.0	1.0
=	66.3	0.0	30.0	1.0
=	66.6	0.0	30.0	1.0
=	66.7	0.0	30.0	1.0
=	66.9	0.0	30.0	1.0
=	67.0	0.0	30.0	1.0
=	67.2	0.0	30.0	1.0
=	67.3	0.0	30.0	1.0
=	67.5	0.0	30.0	1.0
=	67.6	0.0	30.0	1.0
=	67.9	0.0	30.0	1.0
=	68.1	0.0	30.0	1.0
=	68.2	0.0	30.0	1.0
=	68.3	0.0	30.0	1.0
=	68.5	0.0	30.0	1.0
=	68.7	0.0	30.0	0.9
=	68.9	0.0	30.0	0.9
=	69.1	0.0	30.0	0.9
=	69.3	0.0	30.0	0.9
=	69.5	0.0	30.0	0.9
=	69.6	0.0	30.0	0.9
=	69.8	0.0	30.0	0.9
=	69.9	0.0	30.0	0.9
=	70.1	0.0	30.0	0.9
=	70.3	0.0	30.0	0.9
=	70.5	0.0	30.0	0.9
:EOM # End of Measurement
#
# RFA300 ASCII Measurement Dump ( BDS format )
#
# Measurement number 	2
#
%VNR 1.0
%MOD 	RAT
%TYP 	SCN
%SCN 	PRO
%FLD 	ION
%DAT 	09-26-2011
%TIM 	12:00:00
%FSZ 	040	040
%BMT 	PHO	   15.0
%SSD 	1000
%BUP 	0
%BRD 	1000
%FSH 	1
%ASC 	0
%WEG 	60
%GPO 	0
%CPO 	0
%MEA 	6
%PRD 	50,0
%PTS 	792
%STS 	    -71.0	  0.0	   50.0 # Start Scan values in mm ( X , Y , Z )
%EDS 	    70.9	   0.0	   50.0 # End Scan values in mm ( X , Y , Z )
#
#	  X      Y      Z     Dose
#
=	-71.0	0.0	50.0	1.3
=	-70.8	0.0	50.0	1.3
=	-70.6	0.0	50.0	1.3
=	-70.4	0.0	50.0	1.3
=	-70.1	0.0	50.0	1.3
=	-69.9	0.0	50.0	1.4
=	-69.8	0.0	50.0	1.4
=	-69.6	0.0	50.0	1.4
=	-69.3	0.0	50.0	1.4
=	-69.1	0.0	50.0	1.4
=	-68.9	0.0	50.0	1.4
=	-68.7	0.0	50.0	1.4
=	-68.5	0.0	50.0	1.4
=	-68.3	0.0	50.0	1.4
=	-68.1	0.0	50.0	1.4
=	-67.9	0.0	50.0	1.4
=	-67.7	0.0	50.0	1.4
=	-67.5	0.0	50.0	1.4
=	-67.3	0.0	50.0	1.4
=	-67.1	0.0	50.0	1.4
=	-66.9	0.0	50.0	1.4
=	-66.7	0.0	50.0	1.4
=	-66.5	0.0	50.0	1.4
=	-66.2	0.0	50.0	1.4
=	-66.0	0.0	50.0	1.4
=	-65.8	0.0	50.0	1.4
=	-65.6	0.0	50.0	1.4
=	-65.4	0.0	50.0	1.4
=	-65.2	0.0	50.0	1.4
=	-65.0	0.0	50.0	1.4
=	-64.8	0.0	50.0	1.4
=	-64.6	0.0	50.0	1.4
=	-64.3	0.0	50.0	1.4
=	-64.2	0.0	50.0	1.4
=	-64.0	0.0	50.0	1.4
=	-63.8	0.0	50.0	1.4
=	-63.7	0.0	50.0	1.4
=	-63.5	0.0	50.0	1.4
=	-63.3	0.0	50.0	1.4
=	-63.2	0.0	50.0	1.4
=	-63.0	0.0	50.0	1.5
=	-62.8	0.0	50.0	1.5
=	-62.6	0.0	50.0	1.5
=	-62.4	0.0	50.0	1.5
=	-62.2	0.0	50.0	1.5
=	-62.0	0.0	50.0	1.5
=	-61.8	0.0	50.0	1.5
=	-61.6	0.0	50.0	1.5
=	-61.4	0.0	50.0	1.5
=	-61.2	0.0	50.0	1.5
=	-61.0	0.0	50.0	1.5
=	-60.8	0.0	50.0	1.5
=	-60.6	0.0	50.0	1.5
=	-60.3	0.0	50.0	1.5
=	-60.2	0.0	50.0	1.5
=	-59.9	0.0	50.0	1.5
=	-59.7	0.0	50.0	1.5
=	-59.5	0.0	50.0	1.5
=	-59.3	0.0	50.0	1.5
=	-59.1	0.0	50.0	1.5
=	-58.9	0.0	50.0	1.5
=	-58.7	0.0	50.0	1.6
=	-58.6	0.0	50.0	1.6
=	-58.3	0.0	50.0	1.6
=	-58.1	0.0	50.0	1.6
=	-57.9	0.0	50.0	1.6
=	-57.7	0.0	50.0	1.6
=	-57.6	0.0	50.0	1.6
=	-57.5	0.0	50.0	1.6
=	-57.3	0.0	50.0	1.6
=	-57.0	0.0	50.0	1.6
=	-56.9	0.0	50.0	1.6
=	-56.8	0.0	50.0	1.6
=	-56.5	0.0	50.0	1.6
=	-56.3	0.0	50.0	1.6
=	-56.2	0.0	50.0	1.6
=	-55.9	0.0	50.0	1.6
=	-55.8	0.0	50.0	1.6
=	-55.5	0.0	50.0	1.6
=	-55.3	0.0	50.0	1.6
=	-55.2	0.0	50.0	1.6
=	-55.1	0.0	50.0	1.7
=	-54.9	0.0	50.0	1.7
=	-54.7	0.0	50.0	1.7
=	-54.5	0.0	50.0	1.7
=	-54.3	0.0	50.0	1.7
=	-54.1	0.0	50.0	1.7
=	-53.9	0.0	50.0	1.7
=	-53.7	0.0	50.0	1.7
=	-53.5	0.0	50.0	1.7
=	-53.3	0.0	50.0	1.7
=	-53.0	0.0	50.0	1.7
=	-52.9	0.0	50.0	1.7
=	-52.6	0.0	50.0	1.7
=	-52.4	0.0	50.0	1.8
=	-52.2	0.0	50.0	1.8
=	-52.1	0.0	50.0	1.8
=	-52.0	0.0	50.0	1.8
=	-51.8	0.0	50.0	1.8
=	-51.6	0.0	50.0	1.8
=	-51.4	0.0	50.0	1.8
=	-51.3	0.0	50.0	1.8
=	-51.1	0.0	50.0	1.8
=	-51.0	0.0	50.0	1.8
=	-50.9	0.0	50.0	1.8
=	-50.8	0.0	50.0	1.8
=	-50.6	0.0	50.0	1.8
=	-50.5	0.0	50.0	1.8
=	-50.3	0.0	50.0	1.8
=	-50.0	0.0	50.0	1.8
=	-49.8	0.0	50.0	1.8
=	-49.6	0.0	50.0	1.8
=	-49.4	0.0	50.0	1.9
=	-49.2	0.0	50.0	1.9
=	-49.0	0.0	50.0	1.9
=	-48.8	0.0	50.0	1.9
=	-48.6	0.0	50.0	1.9
=	-48.4	0.0	50.0	1.9
=	-48.2	0.0	50.0	1.9
=	-48.1	0.0	50.0	1.9
=	-48.0	0.0	50.0	1.9
=	-47.8	0.0	50.0	1.9
=	-47.7	0.0	50.0	2.0
=	-47.6	0.0	50.0	2.0
=	-47.4	0.0	50.0	2.0
=	-47.3	0.0	50.0	2.0
=	-47.1	0.0	50.0	2.0
=	-47.0	0.0	50.0	2.0
=	-46.9	0.0	50.0	2.0
=	-46.8	0.0	50.0	2.0
=	-46.6	0.0	50.0	2.0
=	-46.5	0.0	50.0	2.0
=	-46.3	0.0	50.0	2.0
=	-46.2	0.0	50.0	2.0
=	-46.1	0.0	50.0	2.1
=	-45.9	0.0	50.0	2.1
=	-45.7	0.0	50.0	2.1
=	-45.6	0.0	50.0	2.1
=	-45.4	0.0	50.0	2.1
=	-45.3	0.0	50.0	2.1
=	-45.2	0.0	50.0	2.1
=	-45.1	0.0	50.0	2.1
=	-44.9	0.0	50.0	2.2
=	-44.8	0.0	50.0	2.2
=	-44.6	0.0	50.0	2.2
=	-44.4	0.0	50.0	2.2
=	-44.1	0.0	50.0	2.2
=	-44.0	0.0	50.0	2.2
=	-43.7	0.0	50.0	2.3
=	-43.6	0.0	50.0	2.3
=	-43.3	0.0	50.0	2.3
=	-43.1	0.0	50.0	2.3
=	-42.9	0.0	50.0	2.3
=	-42.7	0.0	50.0	2.4
=	-42.5	0.0	50.0	2.4
=	-42.4	0.0	50.0	2.4
=	-42.2	0.0	50.0	2.4
=	-42.1	0.0	50.0	2.4
=	-42.0	0.0	50.0	2.4
=	-41.8	0.0	50.0	2.5
=	-41.7	0.0	50.0	2.5
=	-41.5	0.0	50.0	2.5
=	-41.4	0.0	50.0	2.5
=	-41.3	0.0	50.0	2.5
=	-41.1	0.0	50.0	2.6
=	-41.0	0.0	50.0	2.6
=	-40.7	0.0	50.0	2.6
=	-40.5	0.0	50.0	2.6
=	-40.3	0.0	50.0	2.7
=	-40.1	0.0	50.0	2.7
=	-40.0	0.0	50.0	2.7
=	-39.9	0.0	50.0	2.7
=	-39.7	0.0	50.0	2.7
=	-39.5	0.0	50.0	2.8
=	-39.3	0.0	50.0	2.8
=	-39.2	0.0	50.0	2.8
=	-39.1	0.0	50.0	2.8
=	-38.9	0.0	50.0	2.9
=	-38.7	0.0	50.0	2.9
=	-38.5	0.0	50.0	2.9
=	-38.2	0.0	50.0	3.0
=	-38.0	0.0	50.0	3.1
=	-37.9	0.0	50.0	3.1
=	-37.6	0.0	50.0	3.1
=	-37.4	0.0	50.0	3.2
=	-37.2	0.0	50.0	3.2
=	-37.0	0.0	50.0	3.2
=	-36.8	0.0	50.0	3.3
=	-36.7	0.0	50.0	3.3
=	-36.5	0.0	50.0	3.4
=	-36.3	0.0	50.0	3.5
=	-36.0	0.0	50.0	3.5
=	-35.8	0.0	50.0	3.5
=	-35.7	0.0	50.0	3.6
=	-35.4	0.0	50.0	3.7
=	-35.3	0.0	50.0	3.7
=	-35.0	0.0	50.0	3.8
=	-34.9	0.0	50.0	3.8
=	-34.8	0.0	50.0	3.8
=	-34.6	0.0	50.0	3.9
=	-34.5	0.0	50.0	3.9
=	-34.2	0.0	50.0	4.1
=	-34.0	0.0	50.0	4.2
=	-33.8	0.0	50.0	4.3
=	-33.6	0.0	50.0	4.3
=	-33.4	0.0	50.0	4.4
=	-33.2	0.0	50.0	4.4
=	-33.0	0.0	50.0	4.5
=	-32.9	0.0	50.0	4.6
=	-32.8	0.0	50.0	4.7
=	-32.6	0.0	50.0	4.9
=	-32.5	0.0	50.0	4.9
=	-32.3	0.0	50.0	5.0
=	-32.2	0.0	50.0	5.0
=	-32.1	0.0	50.0	5.0
=	-31.9	0.0	50.0	5.1
=	-31.7	0.0	50.0	5.3
=	-31.5	0.0	50.0	5.4
=	-31.3	0.0	50.0	5.5
=	-31.2	0.0	50.0	5.5
=	-31.0	0.0	50.0	5.7
=	-30.8	0.0	50.0	5.8
=	-30.7	0.0	50.0	5.9
=	-30.5	0.0	50.0	6.1
=	-30.4	0.0	50.0	6.3
=	-30.3	0.0	50.0	6.3
=	-30.1	0.0	50.0	6.4
=	-30.0	0.0	50.0	6.5
=	-29.9	0.0	50.0	6.6
=	-29.8	0.0	50.0	6.7
=	-29.6	0.0	50.0	7.0
=	-29.5	0.0	50.0	7.1
=	-29.3	0.0	50.0	7.3
=	-29.2	0.0	50.0	7.4
=	-29.0	0.0	50.0	7.7
=	-28.8	0.0	50.0	8.0
=	-28.5	0.0	50.0	8.4
=	-28.3	0.0	50.0	8.6
=	-28.2	0.0	50.0	8.8
=	-28.0	0.0	50.0	9.2
=	-27.7	0.0	50.0	9.6
=	-27.6	0.0	50.0	9.9
=	-27.4	0.0	50.0	10.2
=	-27.3	0.0	50.0	10.3
=	-27.2	0.0	50.0	10.5
=	-27.0	0.0	50.0	10.9
=	-26.9	0.0	50.0	11.1
=	-26.8	0.0	50.0	11.4
=	-26.7	0.0	50.0	11.7
=	-26.5	0.0	50.0	12.1
=	-26.3	0.0	50.0	12.5
=	-26.2	0.0	50.0	12.9
=	-26.1	0.0	50.0	13.2
=	-25.9	0.0	50.0	13.7
=	-25.8	0.0	50.0	14.2
=	-25.6	0.0	50.0	14.8
=	-25.5	0.0	50.0	15.1
=	-25.2	0.0	50.0	16.0
=	-25.0	0.0	50.0	16.9
=	-24.9	0.0	50.0	17.5
=	-24.8	0.0	50.0	18.0
=	-24.6	0.0	50.0	19.1
=	-24.4	0.0	50.0	19.6
=	-24.3	0.0	50.0	20.2
=	-24.1	0.0	50.0	21.3
=	-23.9	0.0	50.0	22.7
=	-23.7	0.0	50.0	23.9
=	-23.6	0.0	50.0	24.9
=	-23.4	0.0	50.0	26.5
=	-23.2	0.0	50.0	28.0
=	-23.1	0.0	50.0	29.1
=	-22.9	0.0	50.0	30.9
=	-22.8	0.0	50.0	32.0
=	-22.6	0.0	50.0	33.9
=	-22.5	0.0	50.0	35.6
=	-22.3	0.0	50.0	37.3
=	-22.1	0.0	50.0	39.4
=	-22.0	0.0	50.0	40.6
=	-21.9	0.0	50.0	41.9
=	-21.8	0.0	50.0	43.3
=	-21.6	0.0	50.0	45.6
=	-21.5	0.0	50.0	46.7
=	-21.4	0.0	50.0	47.8
=	-21.3	0.0	50.0	49.2
=	-21.1	0.0	50.0	51.6
=	-20.9	0.0	50.0	54.1
=	-20.7	0.0	50.0	56.6
=	-20.5	0.0	50.0	58.6
=	-20.4	0.0	50.0	60.3
=	-20.3	0.0	50.0	61.6
=	-20.2	0.0	50.0	62.9
=	-19.9	0.0	50.0	65.5
=	-19.7	0.0	50.0	68.0
=	-19.6	0.0	50.0	70.1
=	-19.5	0.0	50.0	71.4
=	-19.4	0.0	50.0	72.6
=	-19.3	0.0	50.0	73.9
=	-19.1	0.0	50.0	75.1
=	-18.9	0.0	50.0	77.3
=	-18.8	0.0	50.0	78.5
=	-18.6	0.0	50.0	80.3
=	-18.4	0.0	50.0	82.6
=	-18.3	0.0	50.0	83.8
=	-18.1	0.0	50.0	85.2
=	-17.9	0.0	50.0	86.9
=	-17.8	0.0	50.0	88.6
=	-17.6	0.0	50.0	90.0
=	-17.5	0.0	50.0	90.7
=	-17.3	0.0	50.0	91.6
=	-17.2	0.0	50.0	92.6
=	-17.1	0.0	50.0	93.6
=	-16.9	0.0	50.0	94.5
=	-16.8	0.0	50.0	95.0
=	-16.7	0.0	50.0	95.5
=	-16.5	0.0	50.0	96.4
=	-16.4	0.0	50.0	97.3
=	-16.2	0.0	50.0	98.2
=	-15.9	0.0	50.0	98.9
=	-15.7	0.0	50.0	99.7
=	-15.6	0.0	50.0	100.4
=	-15.3	0.0	50.0	100.8
=	-15.1	0.0	50.0	101.4
=	-14.9	0.0	50.0	101.8
=	-14.7	0.0	50.0	102.3
=	-14.5	0.0	50.0	102.8
=	-14.3	0.0	50.0	103.2
=	-14.1	0.0	50.0	103.6
=	-13.9	0.0	50.0	103.8
=	-13.7	0.0	50.0	104.0
=	-13.5	0.0	50.0	104.2
=	-13.3	0.0	50.0	104.4
=	-13.1	0.0	50.0	104.5
=	-12.9	0.0	50.0	104.6
=	-12.7	0.0	50.0	104.6
=	-12.5	0.0	50.0	104.8
=	-12.3	0.0	50.0	104.8
=	-12.2	0.0	50.0	104.9
=	-12.1	0.0	50.0	104.9
=	-11.9	0.0	50.0	104.9
=	-11.7	0.0	50.0	105.0
=	-11.5	0.0	50.0	105.1
=	-11.3	0.0	50.0	105.1
=	-11.1	0.0	50.0	105.1
=	-10.8	0.0	50.0	105.1
=	-10.6	0.0	50.0	105.1
=	-10.4	0.0	50.0	105.1
=	-10.2	0.0	50.0	105.1
=	-10.0	0.0	50.0	105.1
=	-9.8	0.0	50.0	105.1
=	-9.6	0.0	50.0	105.1
=	-9.4	0.0	50.0	105.1
=	-9.2	0.0	50.0	105.0
=	-9.0	0.0	50.0	105.0
=	-8.8	0.0	50.0	105.0
=	-8.6	0.0	50.0	104.9
=	-8.4	0.0	50.0	104.8
=	-8.2	0.0	50.0	104.8
=	-8.0	0.0	50.0	104.7
=	-7.8	0.0	50.0	104.7
=	-7.6	0.0	50.0	104.6
=	-7.4	0.0	50.0	104.5
=	-7.2	0.0	50.0	104.5
=	-6.9	0.0	50.0	104.4
=	-6.8	0.0	50.0	104.4
=	-6.5	0.0	50.0	104.3
=	-6.3	0.0	50.0	104.2
=	-6.1	0.0	50.0	104.0
=	-5.9	0.0	50.0	103.8
=	-5.7	0.0	50.0	103.6
=	-5.5	0.0	50.0	103.5
=	-5.3	0.0	50.0	103.5
=	-5.1	0.0	50.0	103.3
=	-4.9	0.0	50.0	103.1
=	-4.8	0.0	50.0	102.9
=	-4.5	0.0	50.0	102.8
=	-4.3	0.0	50.0	102.7
=	-4.1	0.0	50.0	102.6
=	-3.9	0.0	50.0	102.5
=	-3.7	0.0	50.0	102.3
=	-3.5	0.0	50.0	102.2
=	-3.3	0.0	50.0	102.1
=	-3.1	0.0	50.0	102.0
=	-2.9	0.0	50.0	101.8
=	-2.7	0.0	50.0	101.7
=	-2.5	0.0	50.0	101.6
=	-2.3	0.0	50.0	101.6
=	-2.1	0.0	50.0	101.4
=	-1.9	0.0	50.0	101.3
=	-1.7	0.0	50.0	101.1
=	-1.5	0.0	50.0	101.0
=	-1.3	0.0	50.0	100.9
=	-1.1	0.0	50.0	100.8
=	-0.8	0.0	50.0	100.5
=	-0.7	0.0	50.0	100.4
=	-0.4	0.0	50.0	100.2
=	-0.3	0.0	50.0	100.1
=	-0.2	0.0	50.0	100.1
=	0.0	0.0	50.0	100.0
=	0.1	0.0	50.0	99.9
=	0.2	0.0	50.0	99.9
=	0.4	0.0	50.0	99.7
=	0.5	0.0	50.0	99.4
=	0.6	0.0	50.0	99.3
=	0.8	0.0	50.0	99.2
=	1.0	0.0	50.0	99.1
=	1.2	0.0	50.0	99.0
=	1.4	0.0	50.0	99.0
=	1.6	0.0	50.0	98.9
=	1.7	0.0	50.0	98.8
=	1.9	0.0	50.0	98.7
=	2.0	0.0	50.0	98.5
=	2.2	0.0	50.0	98.4
=	2.4	0.0	50.0	98.1
=	2.6	0.0	50.0	98.0
=	2.8	0.0	50.0	97.8
=	3.0	0.0	50.0	97.7
=	3.1	0.0	50.0	97.6
=	3.2	0.0	50.0	97.6
=	3.3	0.0	50.0	97.6
=	3.5	0.0	50.0	97.5
=	3.6	0.0	50.0	97.4
=	3.9	0.0	50.0	97.2
=	4.1	0.0	50.0	97.0
=	4.2	0.0	50.0	96.9
=	4.4	0.0	50.0	96.7
=	4.6	0.0	50.0	96.7
=	4.7	0.0	50.0	96.5
=	5.0	0.0	50.0	96.3
=	5.1	0.0	50.0	96.1
=	5.3	0.0	50.0	96.1
=	5.5	0.0	50.0	95.9
=	5.6	0.0	50.0	95.7
=	5.8	0.0	50.0	95.5
=	6.0	0.0	50.0	95.3
=	6.2	0.0	50.0	95.2
=	6.4	0.0	50.0	95.1
=	6.6	0.0	50.0	95.0
=	6.8	0.0	50.0	94.7
=	7.0	0.0	50.0	94.4
=	7.2	0.0	50.0	94.2
=	7.4	0.0	50.0	94.0
=	7.5	0.0	50.0	94.0
=	7.6	0.0	50.0	93.9
=	7.8	0.0	50.0	93.8
=	8.0	0.0	50.0	93.7
=	8.3	0.0	50.0	93.5
=	8.5	0.0	50.0	93.3
=	8.7	0.0	50.0	93.1
=	8.9	0.0	50.0	93.0
=	9.1	0.0	50.0	92.8
=	9.3	0.0	50.0	92.6
=	9.5	0.0	50.0	92.3
=	9.7	0.0	50.0	92.0
=	9.9	0.0	50.0	91.8
=	10.1	0.0	50.0	91.7
=	10.3	0.0	50.0	91.4
=	10.5	0.0	50.0	91.2
=	10.7	0.0	50.0	91.0
=	10.9	0.0	50.0	90.7
=	11.1	0.0	50.0	90.5
=	11.3	0.0	50.0	90.3
=	11.5	0.0	50.0	90.1
=	11.7	0.0	50.0	89.8
=	11.9	0.0	50.0	89.4
=	12.1	0.0	50.0	89.1
=	12.4	0.0	50.0	88.8
=	12.5	0.0	50.0	88.6
=	12.7	0.0	50.0	88.4
=	12.9	0.0	50.0	88.0
=	13.1	0.0	50.0	87.8
=	13.3	0.0	50.0	87.5
=	13.5	0.0	50.0	87.1
=	13.7	0.0	50.0	86.6
=	13.9	0.0	50.0	86.4
=	14.1	0.0	50.0	86.0
=	14.3	0.0	50.0	85.6
=	14.6	0.0	50.0	85.0
=	14.7	0.0	50.0	84.6
=	15.0	0.0	50.0	84.1
=	15.2	0.0	50.0	83.6
=	15.4	0.0	50.0	82.9
=	15.5	0.0	50.0	82.6
=	15.7	0.0	50.0	82.1
=	15.9	0.0	50.0	81.6
=	16.0	0.0	50.0	81.1
=	16.2	0.0	50.0	80.4
=	16.4	0.0	50.0	79.5
=	16.6	0.0	50.0	78.5
=	16.8	0.0	50.0	78.1
=	17.0	0.0	50.0	77.3
=	17.2	0.0	50.0	76.6
=	17.4	0.0	50.0	74.8
=	17.6	0.0	50.0	73.9
=	17.8	0.0	50.0	72.7
=	18.0	0.0	50.0	71.6
=	18.2	0.0	50.0	69.8
=	18.4	0.0	50.0	68.7
=	18.6	0.0	50.0	66.5
=	18.8	0.0	50.0	65.6
=	18.9	0.0	50.0	64.8
=	19.0	0.0	50.0	63.4
=	19.2	0.0	50.0	61.7
=	19.4	0.0	50.0	60.0
=	19.6	0.0	50.0	58.3
=	19.8	0.0	50.0	56.8
=	20.0	0.0	50.0	54.7
=	20.2	0.0	50.0	53.4
=	20.5	0.0	50.0	50.5
=	20.6	0.0	50.0	49.4
=	20.7	0.0	50.0	48.3
=	20.9	0.0	50.0	46.7
=	21.0	0.0	50.0	45.2
=	21.3	0.0	50.0	42.6
=	21.4	0.0	50.0	41.3
=	21.7	0.0	50.0	38.9
=	21.8	0.0	50.0	37.7
=	21.9	0.0	50.0	36.8
=	22.1	0.0	50.0	35.2
=	22.2	0.0	50.0	34.2
=	22.3	0.0	50.0	33.1
=	22.5	0.0	50.0	31.5
=	22.6	0.0	50.0	30.6
=	22.7	0.0	50.0	29.6
=	22.9	0.0	50.0	28.2
=	23.0	0.0	50.0	27.1
=	23.3	0.0	50.0	25.1
=	23.4	0.0	50.0	24.0
=	23.5	0.0	50.0	23.2
=	23.6	0.0	50.0	22.4
=	23.8	0.0	50.0	21.2
=	23.9	0.0	50.0	20.4
=	24.1	0.0	50.0	19.3
=	24.3	0.0	50.0	18.8
=	24.5	0.0	50.0	17.4
=	24.7	0.0	50.0	16.6
=	24.9	0.0	50.0	15.6
=	25.1	0.0	50.0	14.9
=	25.2	0.0	50.0	14.5
=	25.3	0.0	50.0	14.1
=	25.4	0.0	50.0	13.7
=	25.5	0.0	50.0	13.2
=	25.7	0.0	50.0	12.8
=	25.9	0.0	50.0	12.3
=	26.1	0.0	50.0	11.5
=	26.3	0.0	50.0	11.3
=	26.6	0.0	50.0	10.7
=	26.7	0.0	50.0	10.4
=	27.0	0.0	50.0	9.7
=	27.1	0.0	50.0	9.5
=	27.2	0.0	50.0	9.3
=	27.4	0.0	50.0	8.9
=	27.6	0.0	50.0	8.5
=	27.7	0.0	50.0	8.3
=	27.9	0.0	50.0	8.1
=	28.0	0.0	50.0	7.8
=	28.1	0.0	50.0	7.6
=	28.3	0.0	50.0	7.5
=	28.5	0.0	50.0	7.4
=	28.6	0.0	50.0	7.2
=	28.8	0.0	50.0	7.0
=	28.9	0.0	50.0	6.8
=	29.0	0.0	50.0	6.7
=	29.3	0.0	50.0	6.3
=	29.4	0.0	50.0	6.1
=	29.6	0.0	50.0	6.1
=	29.8	0.0	50.0	5.9
=	30.0	0.0	50.0	5.7
=	30.2	0.0	50.0	5.5
=	30.4	0.0	50.0	5.3
=	30.6	0.0	50.0	5.3
=	30.9	0.0	50.0	5.1
=	31.0	0.0	50.0	4.9
=	31.3	0.0	50.0	4.8
=	31.4	0.0	50.0	4.7
=	31.7	0.0	50.0	4.5
=	31.9	0.0	50.0	4.4
=	32.0	0.0	50.0	4.3
=	32.2	0.0	50.0	4.2
=	32.5	0.0	50.0	4.1
=	32.6	0.0	50.0	4.1
=	32.9	0.0	50.0	3.9
=	33.0	0.0	50.0	3.9
=	33.3	0.0	50.0	3.7
=	33.5	0.0	50.0	3.7
=	33.6	0.0	50.0	3.6
=	33.9	0.0	50.0	3.5
=	34.1	0.0	50.0	3.4
=	34.3	0.0	50.0	3.4
=	34.5	0.0	50.0	3.3
=	34.7	0.0	50.0	3.2
=	34.9	0.0	50.0	3.2
=	35.2	0.0	50.0	3.1
=	35.3	0.0	50.0	3.1
=	35.5	0.0	50.0	3.0
=	35.7	0.0	50.0	3.0
