:MSR 	40	 # No. of measurement in file
:SYS BDS 0   # Beam Data Scanner System
#
# RFA300 ASCII Measurement Dump ( BDS format )
#
# Measurement number 	1
#
%VNR 1.0
%MOD 	RAT
%TYP 	SCN
%SCN 	PRO
%FLD 	ION
%DAT 	01-30-2012
%TIM 	12:00:00
%FSZ 	030	030
%BMT 	PHO	   6.0
%SSD 	1000
%BUP 	0
%BRD 	1000
%FSH 	1
%ASC 	0
%WEG 	0
%GPO 	0
%CPO 	0
%MEA 	2
%PRD 	15,0
%PTS 	753
%STS 	    -65.1	  0.0	   15.0 # Start Scan values in mm ( X , Y , Z )
%EDS 	    65.1	   0.0	   15.0 # End Scan values in mm ( X , Y , Z )
#
#	  X      Y      Z     Dose
#
=	-65.1	0.0	15.0	0.4
=	-64.8	0.0	15.0	0.4
=	-64.4	0.0	15.0	0.4
=	-64.2	0.0	15.0	0.4
=	-64.0	0.0	15.0	0.4
=	-63.8	0.0	15.0	0.4
=	-63.6	0.0	15.0	0.4
=	-63.5	0.0	15.0	0.4
=	-63.3	0.0	15.0	0.4
=	-63.2	0.0	15.0	0.4
=	-63.0	0.0	15.0	0.4
=	-62.7	0.0	15.0	0.4
=	-62.5	0.0	15.0	0.4
=	-62.3	0.0	15.0	0.4
=	-62.2	0.0	15.0	0.4
=	-62.0	0.0	15.0	0.4
=	-61.9	0.0	15.0	0.4
=	-61.7	0.0	15.0	0.4
=	-61.4	0.0	15.0	0.4
=	-61.2	0.0	15.0	0.4
=	-61.1	0.0	15.0	0.4
=	-60.8	0.0	15.0	0.4
=	-60.7	0.0	15.0	0.4
=	-60.5	0.0	15.0	0.4
=	-60.2	0.0	15.0	0.4
=	-60.0	0.0	15.0	0.4
=	-59.9	0.0	15.0	0.4
=	-59.7	0.0	15.0	0.4
=	-59.6	0.0	15.0	0.4
=	-59.3	0.0	15.0	0.4
=	-59.1	0.0	15.0	0.4
=	-58.9	0.0	15.0	0.4
=	-58.8	0.0	15.0	0.4
=	-58.5	0.0	15.0	0.4
=	-58.3	0.0	15.0	0.4
=	-58.2	0.0	15.0	0.4
=	-58.1	0.0	15.0	0.4
=	-57.9	0.0	15.0	0.4
=	-57.8	0.0	15.0	0.4
=	-57.6	0.0	15.0	0.4
=	-57.5	0.0	15.0	0.4
=	-57.3	0.0	15.0	0.4
=	-57.1	0.0	15.0	0.4
=	-57.0	0.0	15.0	0.4
=	-56.8	0.0	15.0	0.4
=	-56.7	0.0	15.0	0.4
=	-56.5	0.0	15.0	0.4
=	-56.4	0.0	15.0	0.4
=	-56.2	0.0	15.0	0.4
=	-56.0	0.0	15.0	0.4
=	-55.9	0.0	15.0	0.4
=	-55.7	0.0	15.0	0.4
=	-55.4	0.0	15.0	0.4
=	-55.3	0.0	15.0	0.4
=	-55.1	0.0	15.0	0.4
=	-54.8	0.0	15.0	0.4
=	-54.7	0.0	15.0	0.4
=	-54.5	0.0	15.0	0.5
=	-54.4	0.0	15.0	0.5
=	-54.2	0.0	15.0	0.5
=	-54.1	0.0	15.0	0.5
=	-53.9	0.0	15.0	0.5
=	-53.8	0.0	15.0	0.5
=	-53.7	0.0	15.0	0.5
=	-53.5	0.0	15.0	0.5
=	-53.2	0.0	15.0	0.5
=	-52.9	0.0	15.0	0.5
=	-52.6	0.0	15.0	0.5
=	-52.4	0.0	15.0	0.5
=	-52.3	0.0	15.0	0.5
=	-52.0	0.0	15.0	0.5
=	-51.9	0.0	15.0	0.5
=	-51.7	0.0	15.0	0.5
=	-51.5	0.0	15.0	0.5
=	-51.3	0.0	15.0	0.5
=	-51.1	0.0	15.0	0.5
=	-50.9	0.0	15.0	0.5
=	-50.8	0.0	15.0	0.5
=	-50.7	0.0	15.0	0.5
=	-50.5	0.0	15.0	0.5
=	-50.4	0.0	15.0	0.5
=	-50.2	0.0	15.0	0.5
=	-50.1	0.0	15.0	0.5
=	-49.9	0.0	15.0	0.5
=	-49.7	0.0	15.0	0.5
=	-49.6	0.0	15.0	0.5
=	-49.5	0.0	15.0	0.5
=	-49.3	0.0	15.0	0.5
=	-49.1	0.0	15.0	0.5
=	-49.0	0.0	15.0	0.5
=	-48.8	0.0	15.0	0.5
=	-48.7	0.0	15.0	0.5
=	-48.5	0.0	15.0	0.5
=	-48.4	0.0	15.0	0.5
=	-48.1	0.0	15.0	0.5
=	-47.9	0.0	15.0	0.5
=	-47.8	0.0	15.0	0.5
=	-47.6	0.0	15.0	0.5
=	-47.4	0.0	15.0	0.5
=	-47.3	0.0	15.0	0.5
=	-47.1	0.0	15.0	0.5
=	-47.0	0.0	15.0	0.5
=	-46.8	0.0	15.0	0.5
=	-46.7	0.0	15.0	0.5
=	-46.5	0.0	15.0	0.5
=	-46.4	0.0	15.0	0.5
=	-46.3	0.0	15.0	0.5
=	-46.0	0.0	15.0	0.5
=	-45.9	0.0	15.0	0.6
=	-45.6	0.0	15.0	0.6
=	-45.4	0.0	15.0	0.6
=	-45.2	0.0	15.0	0.6
=	-45.1	0.0	15.0	0.6
=	-44.9	0.0	15.0	0.6
=	-44.7	0.0	15.0	0.6
=	-44.5	0.0	15.0	0.6
=	-44.4	0.0	15.0	0.6
=	-44.3	0.0	15.0	0.6
=	-44.1	0.0	15.0	0.6
=	-43.9	0.0	15.0	0.6
=	-43.8	0.0	15.0	0.6
=	-43.5	0.0	15.0	0.6
=	-43.3	0.0	15.0	0.6
=	-43.2	0.0	15.0	0.6
=	-42.9	0.0	15.0	0.6
=	-42.7	0.0	15.0	0.6
=	-42.5	0.0	15.0	0.6
=	-42.3	0.0	15.0	0.6
=	-42.2	0.0	15.0	0.6
=	-42.1	0.0	15.0	0.6
=	-41.9	0.0	15.0	0.6
=	-41.7	0.0	15.0	0.6
=	-41.4	0.0	15.0	0.6
=	-41.3	0.0	15.0	0.6
=	-41.1	0.0	15.0	0.6
=	-40.8	0.0	15.0	0.6
=	-40.5	0.0	15.0	0.7
=	-40.2	0.0	15.0	0.7
=	-40.0	0.0	15.0	0.7
=	-39.9	0.0	15.0	0.7
=	-39.6	0.0	15.0	0.7
=	-39.2	0.0	15.0	0.7
=	-39.1	0.0	15.0	0.7
=	-38.9	0.0	15.0	0.7
=	-38.8	0.0	15.0	0.7
=	-38.7	0.0	15.0	0.7
=	-38.4	0.0	15.0	0.7
=	-38.2	0.0	15.0	0.7
=	-38.1	0.0	15.0	0.7
=	-37.9	0.0	15.0	0.7
=	-37.8	0.0	15.0	0.7
=	-37.7	0.0	15.0	0.7
=	-37.5	0.0	15.0	0.7
=	-37.3	0.0	15.0	0.7
=	-37.1	0.0	15.0	0.7
=	-37.0	0.0	15.0	0.7
=	-36.9	0.0	15.0	0.7
=	-36.7	0.0	15.0	0.7
=	-36.5	0.0	15.0	0.7
=	-36.4	0.0	15.0	0.7
=	-36.3	0.0	15.0	0.8
=	-36.1	0.0	15.0	0.8
=	-36.0	0.0	15.0	0.8
=	-35.8	0.0	15.0	0.8
=	-35.6	0.0	15.0	0.8
=	-35.5	0.0	15.0	0.8
=	-35.4	0.0	15.0	0.8
=	-35.2	0.0	15.0	0.8
=	-35.0	0.0	15.0	0.8
=	-34.8	0.0	15.0	0.8
=	-34.5	0.0	15.0	0.8
=	-34.4	0.0	15.0	0.8
=	-34.2	0.0	15.0	0.8
=	-34.0	0.0	15.0	0.8
=	-33.8	0.0	15.0	0.8
=	-33.7	0.0	15.0	0.9
=	-33.5	0.0	15.0	0.9
=	-33.2	0.0	15.0	0.9
=	-33.1	0.0	15.0	0.9
=	-32.9	0.0	15.0	0.9
=	-32.6	0.0	15.0	0.9
=	-32.5	0.0	15.0	0.9
=	-32.3	0.0	15.0	0.9
=	-32.2	0.0	15.0	0.9
=	-32.0	0.0	15.0	0.9
=	-31.9	0.0	15.0	0.9
=	-31.7	0.0	15.0	0.9
=	-31.6	0.0	15.0	0.9
=	-31.4	0.0	15.0	1.0
=	-31.2	0.0	15.0	1.0
=	-31.1	0.0	15.0	1.0
=	-30.9	0.0	15.0	1.0
=	-30.8	0.0	15.0	1.0
=	-30.5	0.0	15.0	1.0
=	-30.4	0.0	15.0	1.0
=	-30.2	0.0	15.0	1.0
=	-30.0	0.0	15.0	1.0
=	-29.9	0.0	15.0	1.0
=	-29.7	0.0	15.0	1.0
=	-29.6	0.0	15.0	1.1
=	-29.4	0.0	15.0	1.1
=	-29.3	0.0	15.0	1.1
=	-29.1	0.0	15.0	1.1
=	-29.0	0.0	15.0	1.1
=	-28.8	0.0	15.0	1.1
=	-28.7	0.0	15.0	1.1
=	-28.5	0.0	15.0	1.2
=	-28.4	0.0	15.0	1.2
=	-28.1	0.0	15.0	1.2
=	-28.0	0.0	15.0	1.2
=	-27.8	0.0	15.0	1.2
=	-27.6	0.0	15.0	1.2
=	-27.5	0.0	15.0	1.2
=	-27.3	0.0	15.0	1.3
=	-27.1	0.0	15.0	1.3
=	-26.9	0.0	15.0	1.3
=	-26.8	0.0	15.0	1.3
=	-26.7	0.0	15.0	1.3
=	-26.5	0.0	15.0	1.3
=	-26.4	0.0	15.0	1.4
=	-26.3	0.0	15.0	1.4
=	-26.1	0.0	15.0	1.4
=	-26.0	0.0	15.0	1.4
=	-25.8	0.0	15.0	1.5
=	-25.6	0.0	15.0	1.5
=	-25.5	0.0	15.0	1.5
=	-25.3	0.0	15.0	1.5
=	-25.2	0.0	15.0	1.6
=	-25.0	0.0	15.0	1.6
=	-24.9	0.0	15.0	1.6
=	-24.8	0.0	15.0	1.6
=	-24.6	0.0	15.0	1.7
=	-24.4	0.0	15.0	1.7
=	-24.3	0.0	15.0	1.8
=	-24.1	0.0	15.0	1.8
=	-24.0	0.0	15.0	1.9
=	-23.8	0.0	15.0	1.9
=	-23.7	0.0	15.0	1.9
=	-23.5	0.0	15.0	2.0
=	-23.3	0.0	15.0	2.1
=	-23.2	0.0	15.0	2.1
=	-22.9	0.0	15.0	2.2
=	-22.7	0.0	15.0	2.3
=	-22.5	0.0	15.0	2.4
=	-22.3	0.0	15.0	2.5
=	-22.1	0.0	15.0	2.7
=	-22.0	0.0	15.0	2.8
=	-21.7	0.0	15.0	3.0
=	-21.6	0.0	15.0	3.1
=	-21.4	0.0	15.0	3.2
=	-21.2	0.0	15.0	3.5
=	-20.9	0.0	15.0	3.7
=	-20.8	0.0	15.0	3.9
=	-20.6	0.0	15.0	4.1
=	-20.5	0.0	15.0	4.3
=	-20.4	0.0	15.0	4.5
=	-20.2	0.0	15.0	4.8
=	-20.0	0.0	15.0	5.2
=	-19.8	0.0	15.0	5.5
=	-19.7	0.0	15.0	5.9
=	-19.5	0.0	15.0	6.3
=	-19.3	0.0	15.0	7.0
=	-19.2	0.0	15.0	7.3
=	-18.9	0.0	15.0	8.3
=	-18.8	0.0	15.0	8.7
=	-18.6	0.0	15.0	9.7
=	-18.4	0.0	15.0	10.8
=	-18.3	0.0	15.0	11.7
=	-18.2	0.0	15.0	12.6
=	-18.0	0.0	15.0	13.5
=	-17.9	0.0	15.0	15.0
=	-17.7	0.0	15.0	16.1
=	-17.6	0.0	15.0	17.1
=	-17.5	0.0	15.0	18.8
=	-17.3	0.0	15.0	20.5
=	-17.1	0.0	15.0	22.1
=	-17.0	0.0	15.0	23.7
=	-16.9	0.0	15.0	25.2
=	-16.7	0.0	15.0	27.2
=	-16.5	0.0	15.0	29.1
=	-16.4	0.0	15.0	30.5
=	-16.2	0.0	15.0	33.1
=	-16.1	0.0	15.0	34.4
=	-15.9	0.0	15.0	36.5
=	-15.7	0.0	15.0	39.0
=	-15.6	0.0	15.0	40.5
=	-15.4	0.0	15.0	43.4
=	-15.2	0.0	15.0	45.4
=	-15.1	0.0	15.0	48.0
=	-14.9	0.0	15.0	51.0
=	-14.7	0.0	15.0	52.7
=	-14.6	0.0	15.0	54.7
=	-14.4	0.0	15.0	56.9
=	-14.3	0.0	15.0	59.1
=	-14.2	0.0	15.0	60.6
=	-14.0	0.0	15.0	62.3
=	-13.8	0.0	15.0	65.5
=	-13.7	0.0	15.0	66.9
=	-13.5	0.0	15.0	69.0
=	-13.4	0.0	15.0	70.7
=	-13.2	0.0	15.0	72.6
=	-12.9	0.0	15.0	75.7
=	-12.8	0.0	15.0	77.4
=	-12.6	0.0	15.0	79.0
=	-12.5	0.0	15.0	80.1
=	-12.3	0.0	15.0	81.6
=	-12.2	0.0	15.0	83.0
=	-12.1	0.0	15.0	84.2
=	-12.0	0.0	15.0	85.3
=	-11.7	0.0	15.0	87.6
=	-11.6	0.0	15.0	88.6
=	-11.4	0.0	15.0	89.9
=	-11.1	0.0	15.0	91.5
=	-11.0	0.0	15.0	92.1
=	-10.8	0.0	15.0	93.2
=	-10.7	0.0	15.0	93.6
=	-10.4	0.0	15.0	94.3
=	-10.3	0.0	15.0	94.7
=	-10.2	0.0	15.0	95.0
=	-10.1	0.0	15.0	95.3
=	-9.9	0.0	15.0	95.6
=	-9.8	0.0	15.0	96.0
=	-9.5	0.0	15.0	96.5
=	-9.4	0.0	15.0	96.7
=	-9.2	0.0	15.0	96.9
=	-9.1	0.0	15.0	97.1
=	-8.9	0.0	15.0	97.3
=	-8.7	0.0	15.0	97.6
=	-8.5	0.0	15.0	97.8
=	-8.3	0.0	15.0	98.0
=	-8.1	0.0	15.0	98.1
=	-8.0	0.0	15.0	98.2
=	-7.9	0.0	15.0	98.3
=	-7.8	0.0	15.0	98.4
=	-7.5	0.0	15.0	98.7
=	-7.1	0.0	15.0	98.8
=	-7.0	0.0	15.0	98.9
=	-6.9	0.0	15.0	99.0
=	-6.7	0.0	15.0	99.1
=	-6.6	0.0	15.0	99.1
=	-6.3	0.0	15.0	99.2
=	-6.2	0.0	15.0	99.2
=	-6.1	0.0	15.0	99.3
=	-5.9	0.0	15.0	99.3
=	-5.7	0.0	15.0	99.4
=	-5.3	0.0	15.0	99.5
=	-5.1	0.0	15.0	99.6
=	-5.0	0.0	15.0	99.6
=	-4.8	0.0	15.0	99.6
=	-4.7	0.0	15.0	99.6
=	-4.4	0.0	15.0	99.7
=	-4.3	0.0	15.0	99.7
=	-4.1	0.0	15.0	99.7
=	-4.0	0.0	15.0	99.7
=	-3.8	0.0	15.0	99.8
=	-3.7	0.0	15.0	99.8
=	-3.5	0.0	15.0	99.8
=	-3.3	0.0	15.0	99.8
=	-3.2	0.0	15.0	99.8
=	-2.9	0.0	15.0	99.9
=	-2.7	0.0	15.0	99.9
=	-2.5	0.0	15.0	99.9
=	-2.3	0.0	15.0	99.9
=	-2.1	0.0	15.0	99.9
=	-2.0	0.0	15.0	100.0
=	-1.7	0.0	15.0	100.0
=	-1.5	0.0	15.0	100.0
=	-1.3	0.0	15.0	100.0
=	-1.1	0.0	15.0	100.0
=	-0.9	0.0	15.0	100.0
=	-0.7	0.0	15.0	100.0
=	-0.4	0.0	15.0	100.0
=	-0.3	0.0	15.0	100.0
=	-0.1	0.0	15.0	100.0
=	0.0	0.0	15.0	100.0
=	0.2	0.0	15.0	100.0
=	0.3	0.0	15.0	100.0
=	0.4	0.0	15.0	100.0
=	0.7	0.0	15.0	100.0
=	0.9	0.0	15.0	100.0
=	1.1	0.0	15.0	100.0
=	1.3	0.0	15.0	100.0
=	1.5	0.0	15.0	99.9
=	1.6	0.0	15.0	99.9
=	1.9	0.0	15.0	99.9
=	2.0	0.0	15.0	99.9
=	2.3	0.0	15.0	99.9
=	2.5	0.0	15.0	99.9
=	2.6	0.0	15.0	99.9
=	2.8	0.0	15.0	99.9
=	3.1	0.0	15.0	99.8
=	3.2	0.0	15.0	99.8
=	3.5	0.0	15.0	99.8
=	3.7	0.0	15.0	99.7
=	3.8	0.0	15.0	99.7
=	4.0	0.0	15.0	99.7
=	4.1	0.0	15.0	99.7
=	4.4	0.0	15.0	99.6
=	4.7	0.0	15.0	99.5
=	4.8	0.0	15.0	99.5
=	5.0	0.0	15.0	99.5
=	5.3	0.0	15.0	99.4
=	5.6	0.0	15.0	99.4
=	5.9	0.0	15.0	99.3
=	6.1	0.0	15.0	99.3
=	6.2	0.0	15.0	99.3
=	6.3	0.0	15.0	99.2
=	6.5	0.0	15.0	99.1
=	6.7	0.0	15.0	98.9
=	6.8	0.0	15.0	98.8
=	7.0	0.0	15.0	98.8
=	7.1	0.0	15.0	98.7
=	7.4	0.0	15.0	98.6
=	7.5	0.0	15.0	98.6
=	7.6	0.0	15.0	98.4
=	7.8	0.0	15.0	98.3
=	7.9	0.0	15.0	98.2
=	8.0	0.0	15.0	98.1
=	8.1	0.0	15.0	98.0
=	8.3	0.0	15.0	97.8
=	8.5	0.0	15.0	97.6
=	8.6	0.0	15.0	97.5
=	8.9	0.0	15.0	97.2
=	9.1	0.0	15.0	97.0
=	9.3	0.0	15.0	96.7
=	9.4	0.0	15.0	96.5
=	9.5	0.0	15.0	96.4
=	9.8	0.0	15.0	95.9
=	9.9	0.0	15.0	95.5
=	10.2	0.0	15.0	94.9
=	10.3	0.0	15.0	94.5
=	10.5	0.0	15.0	94.0
=	10.6	0.0	15.0	93.6
=	10.7	0.0	15.0	93.3
=	10.8	0.0	15.0	92.9
=	11.0	0.0	15.0	92.0
=	11.1	0.0	15.0	91.5
=	11.3	0.0	15.0	90.7
=	11.4	0.0	15.0	89.9
=	11.5	0.0	15.0	89.0
=	11.7	0.0	15.0	87.7
=	11.8	0.0	15.0	86.7
=	11.9	0.0	15.0	85.6
=	12.1	0.0	15.0	84.3
=	12.3	0.0	15.0	82.3
=	12.4	0.0	15.0	80.8
=	12.6	0.0	15.0	79.5
=	12.8	0.0	15.0	77.5
=	12.9	0.0	15.0	75.8
=	13.0	0.0	15.0	74.5
=	13.2	0.0	15.0	72.9
=	13.3	0.0	15.0	71.2
=	13.5	0.0	15.0	68.8
=	13.6	0.0	15.0	67.2
=	13.8	0.0	15.0	64.9
=	13.9	0.0	15.0	63.4
=	14.1	0.0	15.0	60.9
=	14.2	0.0	15.0	59.6
=	14.4	0.0	15.0	57.5
=	14.5	0.0	15.0	56.0
=	14.6	0.0	15.0	54.5
=	14.7	0.0	15.0	53.0
=	14.9	0.0	15.0	51.0
=	15.0	0.0	15.0	48.7
=	15.2	0.0	15.0	45.6
=	15.3	0.0	15.0	44.1
=	15.6	0.0	15.0	40.5
=	15.7	0.0	15.0	39.0
=	15.9	0.0	15.0	36.5
=	16.1	0.0	15.0	34.4
=	16.2	0.0	15.0	32.7
=	16.5	0.0	15.0	29.8
=	16.6	0.0	15.0	28.4
=	16.8	0.0	15.0	25.9
=	17.0	0.0	15.0	23.5
=	17.1	0.0	15.0	22.2
=	17.3	0.0	15.0	20.9
=	17.4	0.0	15.0	19.1
=	17.6	0.0	15.0	17.9
=	17.8	0.0	15.0	16.1
=	18.0	0.0	15.0	13.8
=	18.3	0.0	15.0	11.4
=	18.6	0.0	15.0	9.9
=	18.8	0.0	15.0	8.7
=	19.2	0.0	15.0	7.3
=	19.3	0.0	15.0	6.9
=	19.5	0.0	15.0	6.3
=	19.6	0.0	15.0	6.0
=	19.7	0.0	15.0	5.7
=	19.9	0.0	15.0	5.3
=	20.0	0.0	15.0	5.1
=	20.1	0.0	15.0	4.8
=	20.3	0.0	15.0	4.5
=	20.5	0.0	15.0	4.3
=	20.6	0.0	15.0	4.1
=	20.8	0.0	15.0	3.9
=	20.9	0.0	15.0	3.7
=	21.1	0.0	15.0	3.5
=	21.4	0.0	15.0	3.3
=	21.6	0.0	15.0	3.1
=	21.7	0.0	15.0	3.0
=	21.9	0.0	15.0	2.8
=	22.1	0.0	15.0	2.7
=	22.3	0.0	15.0	2.5
=	22.5	0.0	15.0	2.4
=	22.7	0.0	15.0	2.3
=	22.9	0.0	15.0	2.2
=	23.1	0.0	15.0	2.1
=	23.3	0.0	15.0	2.1
=	23.5	0.0	15.0	2.0
=	23.6	0.0	15.0	2.0
=	23.8	0.0	15.0	1.9
=	23.9	0.0	15.0	1.9
=	24.1	0.0	15.0	1.8
=	24.2	0.0	15.0	1.8
=	24.4	0.0	15.0	1.7
=	24.5	0.0	15.0	1.7
=	24.7	0.0	15.0	1.7
=	24.8	0.0	15.0	1.6
=	25.0	0.0	15.0	1.6
=	25.1	0.0	15.0	1.6
=	25.3	0.0	15.0	1.5
=	25.5	0.0	15.0	1.5
=	25.6	0.0	15.0	1.5
=	25.8	0.0	15.0	1.4
=	25.9	0.0	15.0	1.4
=	26.1	0.0	15.0	1.4
=	26.2	0.0	15.0	1.4
=	26.3	0.0	15.0	1.4
=	26.5	0.0	15.0	1.3
=	26.6	0.0	15.0	1.3
=	26.8	0.0	15.0	1.3
=	26.9	0.0	15.0	1.3
=	27.1	0.0	15.0	1.3
=	27.3	0.0	15.0	1.3
=	27.5	0.0	15.0	1.2
=	27.6	0.0	15.0	1.2
=	27.7	0.0	15.0	1.2
=	27.8	0.0	15.0	1.2
=	28.0	0.0	15.0	1.2
=	28.1	0.0	15.0	1.2
=	28.4	0.0	15.0	1.2
=	28.5	0.0	15.0	1.1
=	28.7	0.0	15.0	1.1
=	28.8	0.0	15.0	1.1
=	28.9	0.0	15.0	1.1
=	29.2	0.0	15.0	1.1
=	29.3	0.0	15.0	1.1
=	29.6	0.0	15.0	1.1
=	29.7	0.0	15.0	1.1
=	29.9	0.0	15.0	1.0
=	30.1	0.0	15.0	1.0
=	30.5	0.0	15.0	1.0
=	30.8	0.0	15.0	1.0
=	31.1	0.0	15.0	1.0
=	31.2	0.0	15.0	1.0
=	31.4	0.0	15.0	1.0
=	31.7	0.0	15.0	0.9
=	32.0	0.0	15.0	0.9
=	32.1	0.0	15.0	0.9
=	32.3	0.0	15.0	0.9
=	32.4	0.0	15.0	0.9
=	32.6	0.0	15.0	0.9
=	32.8	0.0	15.0	0.9
=	32.9	0.0	15.0	0.9
=	33.1	0.0	15.0	0.9
=	33.2	0.0	15.0	0.9
=	33.5	0.0	15.0	0.8
=	33.7	0.0	15.0	0.8
=	33.8	0.0	15.0	0.8
=	34.0	0.0	15.0	0.8
=	34.1	0.0	15.0	0.8
=	34.4	0.0	15.0	0.8
=	34.5	0.0	15.0	0.8
=	34.7	0.0	15.0	0.8
=	34.9	0.0	15.0	0.8
=	35.1	0.0	15.0	0.8
=	35.2	0.0	15.0	0.8
=	35.3	0.0	15.0	0.8
=	35.6	0.0	15.0	0.8
=	35.8	0.0	15.0	0.8
=	35.9	0.0	15.0	0.8
=	36.0	0.0	15.0	0.8
=	36.2	0.0	15.0	0.8
=	36.4	0.0	15.0	0.8
=	36.5	0.0	15.0	0.7
=	36.7	0.0	15.0	0.7
=	36.8	0.0	15.0	0.7
=	36.9	0.0	15.0	0.7
=	37.1	0.0	15.0	0.7
=	37.2	0.0	15.0	0.7
=	37.4	0.0	15.0	0.7
=	37.6	0.0	15.0	0.7
=	37.7	0.0	15.0	0.7
=	37.9	0.0	15.0	0.7
=	38.1	0.0	15.0	0.7
=	38.2	0.0	15.0	0.7
=	38.4	0.0	15.0	0.7
=	38.5	0.0	15.0	0.7
=	38.7	0.0	15.0	0.7
=	38.8	0.0	15.0	0.7
=	39.0	0.0	15.0	0.7
=	39.1	0.0	15.0	0.7
=	39.3	0.0	15.0	0.7
=	39.4	0.0	15.0	0.7
=	39.5	0.0	15.0	0.7
=	39.7	0.0	15.0	0.7
=	39.8	0.0	15.0	0.7
=	40.0	0.0	15.0	0.7
=	40.2	0.0	15.0	0.7
=	40.4	0.0	15.0	0.6
=	40.5	0.0	15.0	0.6
=	40.7	0.0	15.0	0.6
=	40.8	0.0	15.0	0.6
=	41.0	0.0	15.0	0.6
=	41.2	0.0	15.0	0.6
=	41.3	0.0	15.0	0.6
=	41.6	0.0	15.0	0.6
=	41.9	0.0	15.0	0.6
=	42.0	0.0	15.0	0.6
=	42.3	0.0	15.0	0.6
=	42.5	0.0	15.0	0.6
=	42.6	0.0	15.0	0.6
=	42.9	0.0	15.0	0.6
=	43.1	0.0	15.0	0.6
=	43.2	0.0	15.0	0.6
=	43.3	0.0	15.0	0.6
=	43.5	0.0	15.0	0.6
=	43.7	0.0	15.0	0.6
=	43.9	0.0	15.0	0.6
=	44.1	0.0	15.0	0.6
=	44.3	0.0	15.0	0.6
=	44.4	0.0	15.0	0.6
=	44.5	0.0	15.0	0.6
=	44.7	0.0	15.0	0.6
=	44.9	0.0	15.0	0.6
=	45.0	0.0	15.0	0.6
=	45.1	0.0	15.0	0.6
=	45.2	0.0	15.0	0.6
=	45.3	0.0	15.0	0.6
=	45.6	0.0	15.0	0.6
=	45.9	0.0	15.0	0.6
=	46.0	0.0	15.0	0.6
=	46.2	0.0	15.0	0.6
=	46.3	0.0	15.0	0.6
=	46.4	0.0	15.0	0.6
=	46.5	0.0	15.0	0.5
=	46.7	0.0	15.0	0.5
=	46.8	0.0	15.0	0.5
=	47.0	0.0	15.0	0.5
=	47.1	0.0	15.0	0.5
=	47.3	0.0	15.0	0.5
=	47.5	0.0	15.0	0.5
=	47.6	0.0	15.0	0.5
=	47.8	0.0	15.0	0.5
=	47.9	0.0	15.0	0.5
=	48.0	0.0	15.0	0.5
=	48.3	0.0	15.0	0.5
=	48.5	0.0	15.0	0.5
=	48.6	0.0	15.0	0.5
=	48.8	0.0	15.0	0.5
=	49.0	0.0	15.0	0.5
=	49.1	0.0	15.0	0.5
=	49.3	0.0	15.0	0.5
=	49.4	0.0	15.0	0.5
=	49.6	0.0	15.0	0.5
=	49.7	0.0	15.0	0.5
=	49.8	0.0	15.0	0.5
=	50.1	0.0	15.0	0.5
=	50.2	0.0	15.0	0.5
=	50.4	0.0	15.0	0.5
=	50.5	0.0	15.0	0.5
=	50.6	0.0	15.0	0.5
=	50.8	0.0	15.0	0.5
=	51.0	0.0	15.0	0.5
=	51.3	0.0	15.0	0.5
=	51.5	0.0	15.0	0.5
=	51.6	0.0	15.0	0.5
=	51.9	0.0	15.0	0.5
=	52.0	0.0	15.0	0.5
=	52.2	0.0	15.0	0.5
=	52.3	0.0	15.0	0.5
=	52.4	0.0	15.0	0.5
=	52.6	0.0	15.0	0.5
=	52.8	0.0	15.0	0.5
=	53.0	0.0	15.0	0.5
=	53.2	0.0	15.0	0.5
=	53.5	0.0	15.0	0.5
=	53.7	0.0	15.0	0.5
=	53.8	0.0	15.0	0.5
=	53.9	0.0	15.0	0.5
=	54.0	0.0	15.0	0.5
=	54.1	0.0	15.0	0.5
=	54.2	0.0	15.0	0.5
=	54.4	0.0	15.0	0.5
=	54.5	0.0	15.0	0.5
=	54.7	0.0	15.0	0.5
=	54.8	0.0	15.0	0.5
=	55.0	0.0	15.0	0.5
=	55.3	0.0	15.0	0.5
=	55.5	0.0	15.0	0.4
=	55.6	0.0	15.0	0.4
=	55.9	0.0	15.0	0.4
=	56.0	0.0	15.0	0.4
=	56.2	0.0	15.0	0.4
=	56.3	0.0	15.0	0.4
=	56.5	0.0	15.0	0.4
=	56.8	0.0	15.0	0.4
=	57.1	0.0	15.0	0.4
=	57.4	0.0	15.0	0.4
=	57.6	0.0	15.0	0.4
=	57.8	0.0	15.0	0.4
=	58.0	0.0	15.0	0.4
=	58.2	0.0	15.0	0.4
=	58.3	0.0	15.0	0.4
=	58.5	0.0	15.0	0.4
=	58.7	0.0	15.0	0.4
=	58.8	0.0	15.0	0.4
=	58.9	0.0	15.0	0.4
=	59.1	0.0	15.0	0.4
=	59.2	0.0	15.0	0.4
=	59.4	0.0	15.0	0.4
=	59.5	0.0	15.0	0.4
=	59.7	0.0	15.0	0.4
=	59.9	0.0	15.0	0.4
=	60.0	0.0	15.0	0.4
=	60.2	0.0	15.0	0.4
=	60.4	0.0	15.0	0.4
=	60.7	0.0	15.0	0.4
=	60.8	0.0	15.0	0.4
=	61.0	0.0	15.0	0.4
=	61.2	0.0	15.0	0.4
=	61.4	0.0	15.0	0.4
=	61.6	0.0	15.0	0.4
=	62.0	0.0	15.0	0.4
=	62.1	0.0	15.0	0.4
=	62.2	0.0	15.0	0.4
=	62.5	0.0	15.0	0.4
=	62.6	0.0	15.0	0.4
=	62.9	0.0	15.0	0.4
=	63.2	0.0	15.0	0.4
=	63.4	0.0	15.0	0.4
=	63.6	0.0	15.0	0.4
=	63.8	0.0	15.0	0.4
=	63.9	0.0	15.0	0.4
=	64.1	0.0	15.0	0.4
=	64.3	0.0	15.0	0.4
=	64.4	0.0	15.0	0.4
=	64.6	0.0	15.0	0.4
=	64.8	0.0	15.0	0.4
=	64.9	0.0	15.0	0.4
=	65.0	0.0	15.0	0.4
=	65.1	0.0	15.0	0.4
:EOM # End of Measurement
#
# RFA300 ASCII Measurement Dump ( BDS format )
#
# Measurement number 	2
#
%VNR 1.0
%MOD 	RAT
%TYP 	SCN
%SCN 	PRO
%FLD 	ION
%DAT 	01-30-2012
%TIM 	12:00:00
%FSZ 	030	030
%BMT 	PHO	   6.0
%SSD 	1000
%BUP 	0
%BRD 	1000
%FSH 	1
%ASC 	0
%WEG 	0
%GPO 	0
%CPO 	0
%MEA 	2
%PRD 	50,0
%PTS 	615
%STS 	    -65.6	  0.0	   50.0 # Start Scan values in mm ( X , Y , Z )
%EDS 	    65.6	   0.0	   50.0 # End Scan values in mm ( X , Y , Z )
#
#	  X      Y      Z     Dose
#
=	-65.6	0.0	50.0	0.5
=	-65.4	0.0	50.0	0.5
=	-65.2	0.0	50.0	0.5
=	-64.8	0.0	50.0	0.5
=	-64.7	0.0	50.0	0.5
=	-64.5	0.0	50.0	0.5
=	-64.3	0.0	50.0	0.5
=	-64.0	0.0	50.0	0.6
=	-63.9	0.0	50.0	0.6
=	-63.8	0.0	50.0	0.6
=	-63.6	0.0	50.0	0.6
=	-63.5	0.0	50.0	0.6
=	-63.3	0.0	50.0	0.6
=	-63.2	0.0	50.0	0.6
=	-63.0	0.0	50.0	0.6
=	-62.7	0.0	50.0	0.6
=	-62.5	0.0	50.0	0.6
=	-62.4	0.0	50.0	0.6
=	-61.9	0.0	50.0	0.6
=	-61.7	0.0	50.0	0.6
=	-61.5	0.0	50.0	0.6
=	-61.2	0.0	50.0	0.6
=	-61.0	0.0	50.0	0.6
=	-60.8	0.0	50.0	0.6
=	-60.5	0.0	50.0	0.6
=	-60.3	0.0	50.0	0.6
=	-59.9	0.0	50.0	0.6
=	-59.8	0.0	50.0	0.6
=	-59.6	0.0	50.0	0.6
=	-59.1	0.0	50.0	0.6
=	-58.8	0.0	50.0	0.6
=	-58.7	0.0	50.0	0.6
=	-58.4	0.0	50.0	0.6
=	-58.2	0.0	50.0	0.6
=	-57.9	0.0	50.0	0.6
=	-57.6	0.0	50.0	0.6
=	-57.5	0.0	50.0	0.7
=	-57.3	0.0	50.0	0.7
=	-57.0	0.0	50.0	0.7
=	-56.9	0.0	50.0	0.7
=	-56.8	0.0	50.0	0.7
=	-56.6	0.0	50.0	0.7
=	-56.4	0.0	50.0	0.7
=	-56.3	0.0	50.0	0.7
=	-56.0	0.0	50.0	0.7
=	-55.9	0.0	50.0	0.7
=	-55.5	0.0	50.0	0.7
=	-55.3	0.0	50.0	0.7
=	-55.0	0.0	50.0	0.7
=	-54.8	0.0	50.0	0.7
=	-54.7	0.0	50.0	0.7
=	-54.3	0.0	50.0	0.7
=	-54.2	0.0	50.0	0.7
=	-54.0	0.0	50.0	0.7
=	-53.8	0.0	50.0	0.7
=	-53.6	0.0	50.0	0.7
=	-53.4	0.0	50.0	0.7
=	-53.2	0.0	50.0	0.7
=	-53.0	0.0	50.0	0.7
=	-52.8	0.0	50.0	0.7
=	-52.6	0.0	50.0	0.7
=	-52.4	0.0	50.0	0.7
=	-52.2	0.0	50.0	0.7
=	-52.0	0.0	50.0	0.7
=	-51.8	0.0	50.0	0.8
=	-51.6	0.0	50.0	0.8
=	-51.5	0.0	50.0	0.8
=	-51.3	0.0	50.0	0.8
=	-51.1	0.0	50.0	0.8
=	-51.0	0.0	50.0	0.8
=	-50.8	0.0	50.0	0.8
=	-50.6	0.0	50.0	0.8
=	-50.4	0.0	50.0	0.8
=	-50.2	0.0	50.0	0.8
=	-49.9	0.0	50.0	0.8
=	-49.7	0.0	50.0	0.8
=	-49.6	0.0	50.0	0.8
=	-49.5	0.0	50.0	0.8
=	-49.4	0.0	50.0	0.8
=	-49.2	0.0	50.0	0.8
=	-49.0	0.0	50.0	0.8
=	-48.7	0.0	50.0	0.8
=	-48.6	0.0	50.0	0.8
=	-48.5	0.0	50.0	0.8
=	-48.2	0.0	50.0	0.8
=	-47.8	0.0	50.0	0.9
=	-47.6	0.0	50.0	0.9
=	-47.4	0.0	50.0	0.9
=	-47.2	0.0	50.0	0.9
=	-47.0	0.0	50.0	0.9
=	-46.8	0.0	50.0	0.9
=	-46.6	0.0	50.0	0.9
=	-46.4	0.0	50.0	0.9
=	-46.2	0.0	50.0	0.9
=	-46.1	0.0	50.0	0.9
=	-45.8	0.0	50.0	0.9
=	-45.7	0.0	50.0	0.9
=	-45.5	0.0	50.0	0.9
=	-45.4	0.0	50.0	0.9
=	-45.1	0.0	50.0	0.9
=	-45.0	0.0	50.0	0.9
=	-44.7	0.0	50.0	0.9
=	-44.5	0.0	50.0	1.0
=	-44.3	0.0	50.0	1.0
=	-44.1	0.0	50.0	1.0
=	-44.0	0.0	50.0	1.0
=	-43.7	0.0	50.0	1.0
=	-43.6	0.0	50.0	1.0
=	-43.3	0.0	50.0	1.0
=	-43.1	0.0	50.0	1.0
=	-42.9	0.0	50.0	1.0
=	-42.7	0.0	50.0	1.0
=	-42.5	0.0	50.0	1.0
=	-42.3	0.0	50.0	1.0
=	-42.1	0.0	50.0	1.1
=	-41.9	0.0	50.0	1.1
=	-41.7	0.0	50.0	1.1
=	-41.5	0.0	50.0	1.1
=	-41.3	0.0	50.0	1.1
=	-41.1	0.0	50.0	1.1
=	-40.9	0.0	50.0	1.1
=	-40.6	0.0	50.0	1.1
=	-40.5	0.0	50.0	1.1
=	-40.3	0.0	50.0	1.1
=	-40.1	0.0	50.0	1.1
=	-39.8	0.0	50.0	1.2
=	-39.7	0.0	50.0	1.2
=	-39.4	0.0	50.0	1.2
=	-39.2	0.0	50.0	1.2
=	-39.0	0.0	50.0	1.2
=	-38.8	0.0	50.0	1.2
=	-38.7	0.0	50.0	1.2
=	-38.5	0.0	50.0	1.2
=	-38.3	0.0	50.0	1.2
=	-38.2	0.0	50.0	1.3
=	-38.0	0.0	50.0	1.3
=	-37.8	0.0	50.0	1.3
=	-37.6	0.0	50.0	1.3
=	-37.4	0.0	50.0	1.3
=	-37.3	0.0	50.0	1.3
=	-37.0	0.0	50.0	1.3
=	-36.9	0.0	50.0	1.3
=	-36.7	0.0	50.0	1.4
=	-36.6	0.0	50.0	1.4
=	-36.4	0.0	50.0	1.4
=	-36.2	0.0	50.0	1.4
=	-35.9	0.0	50.0	1.4
=	-35.8	0.0	50.0	1.4
=	-35.5	0.0	50.0	1.4
=	-35.4	0.0	50.0	1.5
=	-35.2	0.0	50.0	1.5
=	-35.0	0.0	50.0	1.5
=	-34.8	0.0	50.0	1.5
=	-34.6	0.0	50.0	1.5
=	-34.4	0.0	50.0	1.5
=	-34.1	0.0	50.0	1.5
=	-34.0	0.0	50.0	1.6
=	-33.8	0.0	50.0	1.6
=	-33.6	0.0	50.0	1.6
=	-33.3	0.0	50.0	1.6
=	-33.1	0.0	50.0	1.6
=	-32.9	0.0	50.0	1.7
=	-32.8	0.0	50.0	1.7
=	-32.6	0.0	50.0	1.7
=	-32.5	0.0	50.0	1.7
=	-32.4	0.0	50.0	1.7
=	-32.1	0.0	50.0	1.8
=	-31.9	0.0	50.0	1.8
=	-31.7	0.0	50.0	1.8
=	-31.6	0.0	50.0	1.8
=	-31.3	0.0	50.0	1.8
=	-31.1	0.0	50.0	1.9
=	-30.9	0.0	50.0	1.9
=	-30.7	0.0	50.0	1.9
=	-30.5	0.0	50.0	2.0
=	-30.3	0.0	50.0	2.0
=	-30.0	0.0	50.0	2.0
=	-29.9	0.0	50.0	2.0
=	-29.8	0.0	50.0	2.0
=	-29.5	0.0	50.0	2.1
=	-29.2	0.0	50.0	2.1
=	-28.8	0.0	50.0	2.2
=	-28.4	0.0	50.0	2.2
=	-28.1	0.0	50.0	2.3
=	-27.9	0.0	50.0	2.3
=	-27.6	0.0	50.0	2.4
=	-27.5	0.0	50.0	2.4
=	-27.1	0.0	50.0	2.5
=	-26.9	0.0	50.0	2.5
=	-26.7	0.0	50.0	2.6
=	-26.2	0.0	50.0	2.7
=	-26.0	0.0	50.0	2.8
=	-25.8	0.0	50.0	2.8
=	-25.5	0.0	50.0	2.9
=	-25.3	0.0	50.0	3.0
=	-25.1	0.0	50.0	3.1
=	-24.7	0.0	50.0	3.2
=	-24.6	0.0	50.0	3.3
=	-24.2	0.0	50.0	3.4
=	-24.0	0.0	50.0	3.5
=	-23.9	0.0	50.0	3.6
=	-23.4	0.0	50.0	3.9
=	-23.2	0.0	50.0	4.0
=	-22.9	0.0	50.0	4.2
=	-22.6	0.0	50.0	4.4
=	-22.5	0.0	50.0	4.6
=	-22.1	0.0	50.0	5.0
=	-21.9	0.0	50.0	5.1
=	-21.8	0.0	50.0	5.3
=	-21.4	0.0	50.0	5.8
=	-21.3	0.0	50.0	6.0
=	-21.1	0.0	50.0	6.3
=	-20.8	0.0	50.0	6.7
=	-20.7	0.0	50.0	6.9
=	-20.5	0.0	50.0	7.4
=	-20.4	0.0	50.0	7.8
=	-20.0	0.0	50.0	8.9
=	-19.9	0.0	50.0	9.2
=	-19.7	0.0	50.0	9.9
=	-19.6	0.0	50.0	10.3
=	-19.5	0.0	50.0	10.8
=	-19.2	0.0	50.0	11.8
=	-19.1	0.0	50.0	12.7
=	-19.0	0.0	50.0	13.3
=	-18.8	0.0	50.0	14.6
=	-18.6	0.0	50.0	15.6
=	-18.4	0.0	50.0	17.6
=	-18.2	0.0	50.0	18.7
=	-18.0	0.0	50.0	21.0
=	-17.9	0.0	50.0	22.1
=	-17.7	0.0	50.0	24.1
=	-17.6	0.0	50.0	25.1
=	-17.1	0.0	50.0	29.8
=	-16.9	0.0	50.0	31.9
=	-16.7	0.0	50.0	35.1
=	-16.3	0.0	50.0	39.7
=	-16.2	0.0	50.0	41.3
=	-15.9	0.0	50.0	44.5
=	-15.5	0.0	50.0	49.6
=	-15.0	0.0	50.0	55.9
=	-14.8	0.0	50.0	59.2
=	-14.3	0.0	50.0	64.9
=	-14.2	0.0	50.0	66.6
=	-14.1	0.0	50.0	67.8
=	-13.9	0.0	50.0	70.1
=	-13.8	0.0	50.0	71.3
=	-13.5	0.0	50.0	74.5
=	-13.3	0.0	50.0	76.0
=	-13.0	0.0	50.0	79.9
=	-12.7	0.0	50.0	82.6
=	-12.5	0.0	50.0	83.8
=	-12.3	0.0	50.0	85.7
=	-12.1	0.0	50.0	86.8
=	-11.9	0.0	50.0	88.2
=	-11.8	0.0	50.0	89.1
=	-11.5	0.0	50.0	90.4
=	-11.3	0.0	50.0	91.4
=	-11.2	0.0	50.0	92.1
=	-11.0	0.0	50.0	92.9
=	-10.8	0.0	50.0	93.4
=	-10.5	0.0	50.0	94.4
=	-10.2	0.0	50.0	95.1
=	-10.0	0.0	50.0	95.4
=	-9.9	0.0	50.0	95.8
=	-9.7	0.0	50.0	96.1
=	-9.4	0.0	50.0	96.5
=	-9.3	0.0	50.0	96.7
=	-9.1	0.0	50.0	97.0
=	-9.0	0.0	50.0	97.1
=	-8.8	0.0	50.0	97.3
=	-8.6	0.0	50.0	97.5
=	-8.4	0.0	50.0	97.7
=	-8.3	0.0	50.0	97.8
=	-8.1	0.0	50.0	97.9
=	-7.8	0.0	50.0	98.1
=	-7.7	0.0	50.0	98.2
=	-7.6	0.0	50.0	98.3
=	-7.4	0.0	50.0	98.4
=	-7.2	0.0	50.0	98.6
=	-7.0	0.0	50.0	98.7
=	-6.9	0.0	50.0	98.8
=	-6.6	0.0	50.0	98.9
=	-6.4	0.0	50.0	99.0
=	-6.2	0.0	50.0	99.0
=	-6.0	0.0	50.0	99.1
=	-5.8	0.0	50.0	99.2
=	-5.6	0.0	50.0	99.3
=	-5.5	0.0	50.0	99.3
=	-5.2	0.0	50.0	99.4
=	-5.0	0.0	50.0	99.4
=	-4.9	0.0	50.0	99.4
=	-4.7	0.0	50.0	99.5
=	-4.5	0.0	50.0	99.5
=	-4.4	0.0	50.0	99.6
=	-4.2	0.0	50.0	99.6
=	-4.0	0.0	50.0	99.6
=	-3.6	0.0	50.0	99.7
=	-3.5	0.0	50.0	99.7
=	-3.3	0.0	50.0	99.7
=	-2.9	0.0	50.0	99.8
=	-2.8	0.0	50.0	99.8
=	-2.6	0.0	50.0	99.9
=	-2.4	0.0	50.0	99.9
=	-2.1	0.0	50.0	99.9
=	-1.9	0.0	50.0	99.9
=	-1.6	0.0	50.0	100.0
=	-1.4	0.0	50.0	100.0
=	-1.2	0.0	50.0	100.0
=	-0.8	0.0	50.0	100.0
=	-0.7	0.0	50.0	100.0
=	-0.4	0.0	50.0	100.0
=	0.0	0.0	50.0	100.0
=	0.3	0.0	50.0	100.0
=	0.7	0.0	50.0	100.0
=	0.9	0.0	50.0	100.0
=	1.2	0.0	50.0	100.0
=	1.5	0.0	50.0	100.0
=	1.6	0.0	50.0	100.0
=	2.0	0.0	50.0	99.9
=	2.4	0.0	50.0	99.9
=	2.8	0.0	50.0	99.9
=	2.9	0.0	50.0	99.9
=	3.1	0.0	50.0	99.8
=	3.2	0.0	50.0	99.8
=	3.6	0.0	50.0	99.8
=	3.8	0.0	50.0	99.7
=	4.0	0.0	50.0	99.7
=	4.3	0.0	50.0	99.6
=	4.5	0.0	50.0	99.5
=	4.7	0.0	50.0	99.5
=	4.8	0.0	50.0	99.4
=	5.0	0.0	50.0	99.4
=	5.2	0.0	50.0	99.3
=	5.4	0.0	50.0	99.2
=	5.6	0.0	50.0	99.2
=	5.8	0.0	50.0	99.2
=	6.0	0.0	50.0	99.1
=	6.2	0.0	50.0	99.0
=	6.4	0.0	50.0	98.9
=	6.6	0.0	50.0	98.8
=	6.8	0.0	50.0	98.8
=	7.0	0.0	50.0	98.6
=	7.2	0.0	50.0	98.5
=	7.3	0.0	50.0	98.5
=	7.4	0.0	50.0	98.4
=	7.6	0.0	50.0	98.2
=	7.8	0.0	50.0	98.1
=	8.0	0.0	50.0	97.9
=	8.2	0.0	50.0	97.7
=	8.4	0.0	50.0	97.6
=	8.6	0.0	50.0	97.4
=	8.7	0.0	50.0	97.2
=	8.8	0.0	50.0	97.1
=	9.0	0.0	50.0	97.0
=	9.2	0.0	50.0	96.7
=	9.3	0.0	50.0	96.5
=	9.4	0.0	50.0	96.4
=	9.7	0.0	50.0	96.0
=	9.8	0.0	50.0	95.7
=	10.0	0.0	50.0	95.3
=	10.2	0.0	50.0	95.0
=	10.5	0.0	50.0	94.3
=	10.8	0.0	50.0	93.4
=	11.0	0.0	50.0	92.7
=	11.2	0.0	50.0	91.9
=	11.3	0.0	50.0	91.3
=	11.5	0.0	50.0	90.4
=	11.8	0.0	50.0	89.2
=	11.9	0.0	50.0	88.2
=	12.1	0.0	50.0	86.9
=	12.3	0.0	50.0	85.8
=	12.5	0.0	50.0	83.8
=	12.7	0.0	50.0	82.6
=	13.0	0.0	50.0	80.0
=	13.3	0.0	50.0	75.9
=	13.5	0.0	50.0	74.4
=	13.7	0.0	50.0	71.9
=	13.9	0.0	50.0	70.1
=	14.1	0.0	50.0	67.3
=	14.3	0.0	50.0	65.0
=	14.4	0.0	50.0	63.7
=	14.7	0.0	50.0	60.5
=	14.8	0.0	50.0	58.7
=	15.0	0.0	50.0	55.9
=	15.1	0.0	50.0	54.4
=	15.5	0.0	50.0	50.0
=	15.8	0.0	50.0	45.6
=	16.2	0.0	50.0	41.0
=	16.5	0.0	50.0	37.4
=	16.7	0.0	50.0	35.2
=	16.9	0.0	50.0	32.6
=	17.1	0.0	50.0	30.0
=	17.5	0.0	50.0	25.6
=	17.9	0.0	50.0	22.3
=	18.0	0.0	50.0	21.2
=	18.2	0.0	50.0	18.9
=	18.4	0.0	50.0	17.8
=	18.6	0.0	50.0	15.7
=	18.8	0.0	50.0	14.6
=	19.0	0.0	50.0	13.0
=	19.2	0.0	50.0	11.8
=	19.5	0.0	50.0	10.8
=	19.6	0.0	50.0	10.2
=	19.7	0.0	50.0	9.8
=	19.9	0.0	50.0	9.2
=	20.0	0.0	50.0	8.8
=	20.3	0.0	50.0	7.8
=	20.6	0.0	50.0	7.2
=	20.7	0.0	50.0	6.9
=	20.8	0.0	50.0	6.7
=	21.1	0.0	50.0	6.3
=	21.3	0.0	50.0	5.9
=	21.4	0.0	50.0	5.7
=	21.7	0.0	50.0	5.3
=	22.0	0.0	50.0	5.0
=	22.5	0.0	50.0	4.5
=	22.7	0.0	50.0	4.4
=	22.9	0.0	50.0	4.2
=	23.2	0.0	50.0	4.0
=	23.4	0.0	50.0	3.9
=	23.8	0.0	50.0	3.7
=	23.9	0.0	50.0	3.6
=	24.1	0.0	50.0	3.5
=	24.6	0.0	50.0	3.2
=	24.8	0.0	50.0	3.2
=	25.1	0.0	50.0	3.1
=	25.3	0.0	50.0	3.0
=	25.5	0.0	50.0	2.9
=	25.8	0.0	50.0	2.8
=	26.0	0.0	50.0	2.8
=	26.2	0.0	50.0	2.7
=	26.7	0.0	50.0	2.6
=	26.9	0.0	50.0	2.5
=	27.1	0.0	50.0	2.5
=	27.4	0.0	50.0	2.4
=	27.6	0.0	50.0	2.4
=	27.9	0.0	50.0	2.3
=	28.1	0.0	50.0	2.3
=	28.3	0.0	50.0	2.3
=	28.7	0.0	50.0	2.2
=	28.8	0.0	50.0	2.2
=	29.0	0.0	50.0	2.2
=	29.2	0.0	50.0	2.1
=	29.5	0.0	50.0	2.1
=	29.7	0.0	50.0	2.1
=	29.9	0.0	50.0	2.0
=	30.0	0.0	50.0	2.0
=	30.2	0.0	50.0	2.0
=	30.4	0.0	50.0	1.9
=	30.7	0.0	50.0	1.9
=	30.8	0.0	50.0	1.9
=	30.9	0.0	50.0	1.9
=	31.1	0.0	50.0	1.9
=	31.3	0.0	50.0	1.9
=	31.6	0.0	50.0	1.8
=	31.7	0.0	50.0	1.8
=	31.8	0.0	50.0	1.8
=	32.1	0.0	50.0	1.8
=	32.3	0.0	50.0	1.7
=	32.5	0.0	50.0	1.7
=	32.8	0.0	50.0	1.7
=	32.9	0.0	50.0	1.7
=	33.0	0.0	50.0	1.6
=	33.2	0.0	50.0	1.6
=	33.6	0.0	50.0	1.6
=	33.7	0.0	50.0	1.6
=	33.9	0.0	50.0	1.6
=	34.1	0.0	50.0	1.6
=	34.4	0.0	50.0	1.5
=	34.6	0.0	50.0	1.5
=	34.8	0.0	50.0	1.5
=	35.0	0.0	50.0	1.5
=	35.2	0.0	50.0	1.5
=	35.3	0.0	50.0	1.5
=	35.5	0.0	50.0	1.4
=	35.8	0.0	50.0	1.4
=	35.9	0.0	50.0	1.4
=	36.2	0.0	50.0	1.4
=	36.4	0.0	50.0	1.4
=	36.6	0.0	50.0	1.4
=	36.7	0.0	50.0	1.4
=	37.0	0.0	50.0	1.3
=	37.2	0.0	50.0	1.3
=	37.3	0.0	50.0	1.3
=	37.5	0.0	50.0	1.3
=	37.8	0.0	50.0	1.3
=	38.0	0.0	50.0	1.3
=	38.2	0.0	50.0	1.2
=	38.5	0.0	50.0	1.2
=	38.6	0.0	50.0	1.2
=	38.7	0.0	50.0	1.2
=	38.8	0.0	50.0	1.2
=	38.9	0.0	50.0	1.2
=	39.2	0.0	50.0	1.2
=	39.4	0.0	50.0	1.2
=	39.6	0.0	50.0	1.2
=	39.8	0.0	50.0	1.1
=	40.0	0.0	50.0	1.1
=	40.3	0.0	50.0	1.1
=	40.5	0.0	50.0	1.1
=	40.6	0.0	50.0	1.1
=	40.8	0.0	50.0	1.1
=	41.0	0.0	50.0	1.1
=	41.1	0.0	50.0	1.1
=	41.3	0.0	50.0	1.1
=	41.5	0.0	50.0	1.1
=	41.7	0.0	50.0	1.1
=	41.8	0.0	50.0	1.1
=	42.1	0.0	50.0	1.1
=	42.3	0.0	50.0	1.0
=	42.5	0.0	50.0	1.0
=	42.7	0.0	50.0	1.0
=	42.9	0.0	50.0	1.0
=	43.1	0.0	50.0	1.0
=	43.3	0.0	50.0	1.0
=	43.6	0.0	50.0	1.0
=	43.7	0.0	50.0	1.0
=	43.9	0.0	50.0	1.0
=	44.1	0.0	50.0	1.0
=	44.3	0.0	50.0	1.0
=	44.5	0.0	50.0	0.9
=	44.7	0.0	50.0	0.9
=	45.0	0.0	50.0	0.9
=	45.1	0.0	50.0	0.9
=	45.3	0.0	50.0	0.9
=	45.5	0.0	50.0	0.9
=	45.7	0.0	50.0	0.9
=	46.1	0.0	50.0	0.9
=	46.3	0.0	50.0	0.9
=	46.4	0.0	50.0	0.9
=	46.6	0.0	50.0	0.9
=	46.8	0.0	50.0	0.9
=	47.0	0.0	50.0	0.9
=	47.1	0.0	50.0	0.9
=	47.4	0.0	50.0	0.9
=	47.6	0.0	50.0	0.9
=	47.8	0.0	50.0	0.9
=	48.2	0.0	50.0	0.8
=	48.5	0.0	50.0	0.8
=	48.7	0.0	50.0	0.8
=	49.0	0.0	50.0	0.8
=	49.1	0.0	50.0	0.8
=	49.4	0.0	50.0	0.8
=	49.5	0.0	50.0	0.8
=	49.7	0.0	50.0	0.8
=	49.9	0.0	50.0	0.8
=	50.2	0.0	50.0	0.8
=	50.4	0.0	50.0	0.8
=	50.5	0.0	50.0	0.8
=	50.6	0.0	50.0	0.8
=	50.8	0.0	50.0	0.8
=	51.0	0.0	50.0	0.8
=	51.1	0.0	50.0	0.8
=	51.3	0.0	50.0	0.8
=	51.5	0.0	50.0	0.8
=	51.6	0.0	50.0	0.8
=	51.8	0.0	50.0	0.8
=	52.0	0.0	50.0	0.8
=	52.2	0.0	50.0	0.7
=	52.4	0.0	50.0	0.7
=	52.6	0.0	50.0	0.7
=	52.8	0.0	50.0	0.7
=	53.0	0.0	50.0	0.7
=	53.2	0.0	50.0	0.7
=	53.3	0.0	50.0	0.7
=	53.5	0.0	50.0	0.7
=	53.8	0.0	50.0	0.7
=	54.0	0.0	50.0	0.7
=	54.2	0.0	50.0	0.7
=	54.3	0.0	50.0	0.7
=	54.7	0.0	50.0	0.7
=	54.8	0.0	50.0	0.7
=	55.0	0.0	50.0	0.7
=	55.5	0.0	50.0	0.7
=	55.9	0.0	50.0	0.7
=	56.0	0.0	50.0	0.7
=	56.2	0.0	50.0	0.7
=	56.3	0.0	50.0	0.7
=	56.4	0.0	50.0	0.7
=	56.6	0.0	50.0	0.7
=	56.9	0.0	50.0	0.7
=	57.0	0.0	50.0	0.7
=	57.3	0.0	50.0	0.7
=	57.5	0.0	50.0	0.6
=	57.6	0.0	50.0	0.6
=	57.9	0.0	50.0	0.6
=	58.3	0.0	50.0	0.6
=	58.7	0.0	50.0	0.6
=	59.0	0.0	50.0	0.6
=	59.5	0.0	50.0	0.6
=	59.7	0.0	50.0	0.6
=	59.9	0.0	50.0	0.6
=	60.3	0.0	50.0	0.6
=	60.5	0.0	50.0	0.6
=	60.8	0.0	50.0	0.6
=	61.1	0.0	50.0	0.6
=	61.5	0.0	50.0	0.6
=	61.9	0.0	50.0	0.6
=	62.3	0.0	50.0	0.6
=	62.6	0.0	50.0	0.6
=	62.7	0.0	50.0	0.6
=	63.0	0.0	50.0	0.6
=	63.2	0.0	50.0	0.6
=	63.3	0.0	50.0	0.6
=	63.5	0.0	50.0	0.6
=	63.6	0.0	50.0	0.6
=	63.9	0.0	50.0	0.6
=	64.0	0.0	50.0	0.6
=	64.3	0.0	50.0	0.6
=	64.5	0.0	50.0	0.6
=	64.7	0.0	50.0	0.6
=	64.8	0.0	50.0	0.6
=	65.1	0.0	50.0	0.6
=	65.4	0.0	50.0	0.5
=	65.6	0.0	50.0	0.5
:EOM # End of Measurement
#
# RFA300 ASCII Measurement Dump ( BDS format )
#
# Measurement number 	3
#
%VNR 1.0
%MOD 	RAT
%TYP 	SCN
%SCN 	PRO
%FLD 	ION
%DAT 	01-30-2012
%TIM 	12:00:00
%FSZ 	030	030
%BMT 	PHO	   6.0
%SSD 	1000
%BUP 	0
%BRD 	1000
%FSH 	1
%ASC 	0
%WEG 	0
%GPO 	0
%CPO 	0
%MEA 	2
%PRD 	100,0
%PTS 	643
%STS 	    -66.3	  0.0	   100.0 # Start Scan values in mm ( X , Y , Z )
%EDS 	    66.3	   0.0	   100.0 # End Scan values in mm ( X , Y , Z )
#
#	  X      Y      Z     Dose
#
=	-66.3	0.0	100.0	0.9
=	-66.2	0.0	100.0	0.9
=	-66.0	0.0	100.0	0.9
=	-65.6	0.0	100.0	0.9
=	-65.5	0.0	100.0	0.9
=	-65.3	0.0	100.0	0.9
=	-65.2	0.0	100.0	0.9
=	-64.8	0.0	100.0	0.9
=	-64.7	0.0	100.0	0.9
