:MSR 	40	 # No. of measurement in file
:SYS BDS 0   # Beam Data Scanner System
#
# RFA300 ASCII Measurement Dump ( BDS format )
#
# Measurement number 	1
#
%VNR 1.0
%MOD 	RAT
%TYP 	SCN
%SCN 	PRO
%FLD 	ION
%DAT 	01-30-2012
%TIM 	12:00:00
%FSZ 	030	030
%BMT 	PHO	   6.0
%SSD 	1000
%BUP 	0
%BRD 	1000
%FSH 	1
%ASC 	0
%WEG 	0
%GPO 	0
%CPO 	0
%MEA 	2
%PRD 	15,0
%PTS 	753
%STS 	    0.0	  -65.1	   15.0 # Start Scan values in mm ( X , Y , Z )
%EDS 	    0.0	   65.1	   15.0 # End Scan values in mm ( X , Y , Z )
#
#	  X      Y      Z     Dose
#
=	0.0	-65.1	15.0	0.4
=	0.0	-64.8	15.0	0.4
=	0.0	-64.4	15.0	0.4
=	0.0	-64.2	15.0	0.4
=	0.0	-64.0	15.0	0.4
=	0.0	-63.8	15.0	0.4
=	0.0	-63.6	15.0	0.4
=	0.0	-63.5	15.0	0.4
=	0.0	-63.3	15.0	0.4
=	0.0	-63.2	15.0	0.4
=	0.0	-63.0	15.0	0.4
=	0.0	-62.7	15.0	0.4
=	0.0	-62.5	15.0	0.4
=	0.0	-62.3	15.0	0.4
=	0.0	-62.2	15.0	0.4
=	0.0	-62.0	15.0	0.4
=	0.0	-61.9	15.0	0.4
=	0.0	-61.7	15.0	0.4
=	0.0	-61.4	15.0	0.4
=	0.0	-61.2	15.0	0.4
=	0.0	-61.1	15.0	0.4
=	0.0	-60.8	15.0	0.4
=	0.0	-60.7	15.0	0.4
=	0.0	-60.5	15.0	0.4
=	0.0	-60.2	15.0	0.4
=	0.0	-60.0	15.0	0.4
=	0.0	-59.9	15.0	0.4
=	0.0	-59.7	15.0	0.4
=	0.0	-59.6	15.0	0.4
=	0.0	-59.3	15.0	0.4
=	0.0	-59.1	15.0	0.4
=	0.0	-58.9	15.0	0.4
=	0.0	-58.8	15.0	0.4
=	0.0	-58.5	15.0	0.4
=	0.0	-58.3	15.0	0.4
=	0.0	-58.2	15.0	0.4
=	0.0	-58.1	15.0	0.4
=	0.0	-57.9	15.0	0.4
=	0.0	-57.8	15.0	0.4
=	0.0	-57.6	15.0	0.4
=	0.0	-57.5	15.0	0.4
=	0.0	-57.3	15.0	0.4
=	0.0	-57.1	15.0	0.4
=	0.0	-57.0	15.0	0.4
=	0.0	-56.8	15.0	0.4
=	0.0	-56.7	15.0	0.4
=	0.0	-56.5	15.0	0.4
=	0.0	-56.4	15.0	0.4
=	0.0	-56.2	15.0	0.4
=	0.0	-56.0	15.0	0.4
=	0.0	-55.9	15.0	0.4
=	0.0	-55.7	15.0	0.4
=	0.0	-55.4	15.0	0.4
=	0.0	-55.3	15.0	0.4
=	0.0	-55.1	15.0	0.4
=	0.0	-54.8	15.0	0.4
=	0.0	-54.7	15.0	0.4
=	0.0	-54.5	15.0	0.5
=	0.0	-54.4	15.0	0.5
=	0.0	-54.2	15.0	0.5
=	0.0	-54.1	15.0	0.5
=	0.0	-53.9	15.0	0.5
=	0.0	-53.8	15.0	0.5
=	0.0	-53.7	15.0	0.5
=	0.0	-53.5	15.0	0.5
=	0.0	-53.2	15.0	0.5
=	0.0	-52.9	15.0	0.5
=	0.0	-52.6	15.0	0.5
=	0.0	-52.4	15.0	0.5
=	0.0	-52.3	15.0	0.5
=	0.0	-52.0	15.0	0.5
=	0.0	-51.9	15.0	0.5
=	0.0	-51.7	15.0	0.5
=	0.0	-51.5	15.0	0.5
=	0.0	-51.3	15.0	0.5
=	0.0	-51.1	15.0	0.5
=	0.0	-50.9	15.0	0.5
=	0.0	-50.8	15.0	0.5
=	0.0	-50.7	15.0	0.5
=	0.0	-50.5	15.0	0.5
=	0.0	-50.4	15.0	0.5
=	0.0	-50.2	15.0	0.5
=	0.0	-50.1	15.0	0.5
=	0.0	-49.9	15.0	0.5
=	0.0	-49.7	15.0	0.5
=	0.0	-49.6	15.0	0.5
=	0.0	-49.5	15.0	0.5
=	0.0	-49.3	15.0	0.5
=	0.0	-49.1	15.0	0.5
=	0.0	-49.0	15.0	0.5
=	0.0	-48.8	15.0	0.5
=	0.0	-48.7	15.0	0.5
=	0.0	-48.5	15.0	0.5
=	0.0	-48.4	15.0	0.5
=	0.0	-48.1	15.0	0.5
=	0.0	-47.9	15.0	0.5
=	0.0	-47.8	15.0	0.5
=	0.0	-47.6	15.0	0.5
=	0.0	-47.4	15.0	0.5
=	0.0	-47.3	15.0	0.5
=	0.0	-47.1	15.0	0.5
=	0.0	-47.0	15.0	0.5
=	0.0	-46.8	15.0	0.5
=	0.0	-46.7	15.0	0.5
=	0.0	-46.5	15.0	0.5
=	0.0	-46.4	15.0	0.5
=	0.0	-46.3	15.0	0.5
=	0.0	-46.0	15.0	0.5
=	0.0	-45.9	15.0	0.6
=	0.0	-45.6	15.0	0.6
=	0.0	-45.4	15.0	0.6
=	0.0	-45.2	15.0	0.6
=	0.0	-45.1	15.0	0.6
=	0.0	-44.9	15.0	0.6
=	0.0	-44.7	15.0	0.6
=	0.0	-44.5	15.0	0.6
=	0.0	-44.4	15.0	0.6
=	0.0	-44.3	15.0	0.6
=	0.0	-44.1	15.0	0.6
=	0.0	-43.9	15.0	0.6
=	0.0	-43.8	15.0	0.6
=	0.0	-43.5	15.0	0.6
=	0.0	-43.3	15.0	0.6
=	0.0	-43.2	15.0	0.6
=	0.0	-42.9	15.0	0.6
=	0.0	-42.7	15.0	0.6
=	0.0	-42.5	15.0	0.6
=	0.0	-42.3	15.0	0.6
=	0.0	-42.2	15.0	0.6
=	0.0	-42.1	15.0	0.6
=	0.0	-41.9	15.0	0.6
=	0.0	-41.7	15.0	0.6
=	0.0	-41.4	15.0	0.6
=	0.0	-41.3	15.0	0.6
=	0.0	-41.1	15.0	0.6
=	0.0	-40.8	15.0	0.6
=	0.0	-40.5	15.0	0.7
=	0.0	-40.2	15.0	0.7
=	0.0	-40.0	15.0	0.7
=	0.0	-39.9	15.0	0.7
=	0.0	-39.6	15.0	0.7
=	0.0	-39.2	15.0	0.7
=	0.0	-39.1	15.0	0.7
=	0.0	-38.9	15.0	0.7
=	0.0	-38.8	15.0	0.7
=	0.0	-38.7	15.0	0.7
=	0.0	-38.4	15.0	0.7
=	0.0	-38.2	15.0	0.7
=	0.0	-38.1	15.0	0.7
=	0.0	-37.9	15.0	0.7
=	0.0	-37.8	15.0	0.7
=	0.0	-37.7	15.0	0.7
=	0.0	-37.5	15.0	0.7
=	0.0	-37.3	15.0	0.7
=	0.0	-37.1	15.0	0.7
=	0.0	-37.0	15.0	0.7
=	0.0	-36.9	15.0	0.7
=	0.0	-36.7	15.0	0.7
=	0.0	-36.5	15.0	0.7
=	0.0	-36.4	15.0	0.7
=	0.0	-36.3	15.0	0.8
=	0.0	-36.1	15.0	0.8
=	0.0	-36.0	15.0	0.8
=	0.0	-35.8	15.0	0.8
=	0.0	-35.6	15.0	0.8
=	0.0	-35.5	15.0	0.8
=	0.0	-35.4	15.0	0.8
=	0.0	-35.2	15.0	0.8
=	0.0	-35.0	15.0	0.8
=	0.0	-34.8	15.0	0.8
=	0.0	-34.5	15.0	0.8
=	0.0	-34.4	15.0	0.8
=	0.0	-34.2	15.0	0.8
=	0.0	-34.0	15.0	0.8
=	0.0	-33.8	15.0	0.8
=	0.0	-33.7	15.0	0.9
=	0.0	-33.5	15.0	0.9
=	0.0	-33.2	15.0	0.9
=	0.0	-33.1	15.0	0.9
=	0.0	-32.9	15.0	0.9
=	0.0	-32.6	15.0	0.9
=	0.0	-32.5	15.0	0.9
=	0.0	-32.3	15.0	0.9
=	0.0	-32.2	15.0	0.9
=	0.0	-32.0	15.0	0.9
=	0.0	-31.9	15.0	0.9
=	0.0	-31.7	15.0	0.9
=	0.0	-31.6	15.0	0.9
=	0.0	-31.4	15.0	1.0
=	0.0	-31.2	15.0	1.0
=	0.0	-31.1	15.0	1.0
=	0.0	-30.9	15.0	1.0
=	0.0	-30.8	15.0	1.0
=	0.0	-30.5	15.0	1.0
=	0.0	-30.4	15.0	1.0
=	0.0	-30.2	15.0	1.0
=	0.0	-30.0	15.0	1.0
=	0.0	-29.9	15.0	1.0
=	0.0	-29.7	15.0	1.0
=	0.0	-29.6	15.0	1.1
=	0.0	-29.4	15.0	1.1
=	0.0	-29.3	15.0	1.1
=	0.0	-29.1	15.0	1.1
=	0.0	-29.0	15.0	1.1
=	0.0	-28.8	15.0	1.1
=	0.0	-28.7	15.0	1.1
=	0.0	-28.5	15.0	1.2
=	0.0	-28.4	15.0	1.2
=	0.0	-28.1	15.0	1.2
=	0.0	-28.0	15.0	1.2
=	0.0	-27.8	15.0	1.2
=	0.0	-27.6	15.0	1.2
=	0.0	-27.5	15.0	1.2
=	0.0	-27.3	15.0	1.3
=	0.0	-27.1	15.0	1.3
=	0.0	-26.9	15.0	1.3
=	0.0	-26.8	15.0	1.3
=	0.0	-26.7	15.0	1.3
=	0.0	-26.5	15.0	1.3
=	0.0	-26.4	15.0	1.4
=	0.0	-26.3	15.0	1.4
=	0.0	-26.1	15.0	1.4
=	0.0	-26.0	15.0	1.4
=	0.0	-25.8	15.0	1.5
=	0.0	-25.6	15.0	1.5
=	0.0	-25.5	15.0	1.5
=	0.0	-25.3	15.0	1.5
=	0.0	-25.2	15.0	1.6
=	0.0	-25.0	15.0	1.6
=	0.0	-24.9	15.0	1.6
=	0.0	-24.8	15.0	1.6
=	0.0	-24.6	15.0	1.7
=	0.0	-24.4	15.0	1.7
=	0.0	-24.3	15.0	1.8
=	0.0	-24.1	15.0	1.8
=	0.0	-24.0	15.0	1.9
=	0.0	-23.8	15.0	1.9
=	0.0	-23.7	15.0	1.9
=	0.0	-23.5	15.0	2.0
=	0.0	-23.3	15.0	2.1
=	0.0	-23.2	15.0	2.1
=	0.0	-22.9	15.0	2.2
=	0.0	-22.7	15.0	2.3
=	0.0	-22.5	15.0	2.4
=	0.0	-22.3	15.0	2.5
=	0.0	-22.1	15.0	2.7
=	0.0	-22.0	15.0	2.8
=	0.0	-21.7	15.0	3.0
=	0.0	-21.6	15.0	3.1
=	0.0	-21.4	15.0	3.2
=	0.0	-21.2	15.0	3.5
=	0.0	-20.9	15.0	3.7
=	0.0	-20.8	15.0	3.9
=	0.0	-20.6	15.0	4.1
=	0.0	-20.5	15.0	4.3
=	0.0	-20.4	15.0	4.5
=	0.0	-20.2	15.0	4.8
=	0.0	-20.0	15.0	5.2
=	0.0	-19.8	15.0	5.5
=	0.0	-19.7	15.0	5.9
=	0.0	-19.5	15.0	6.3
=	0.0	-19.3	15.0	7.0
=	0.0	-19.2	15.0	7.3
=	0.0	-18.9	15.0	8.3
=	0.0	-18.8	15.0	8.7
=	0.0	-18.6	15.0	9.7
=	0.0	-18.4	15.0	10.8
=	0.0	-18.3	15.0	11.7
=	0.0	-18.2	15.0	12.6
=	0.0	-18.0	15.0	13.5
=	0.0	-17.9	15.0	15.0
=	0.0	-17.7	15.0	16.1
=	0.0	-17.6	15.0	17.1
=	0.0	-17.5	15.0	18.8
=	0.0	-17.3	15.0	20.5
=	0.0	-17.1	15.0	22.1
=	0.0	-17.0	15.0	23.7
=	0.0	-16.9	15.0	25.2
=	0.0	-16.7	15.0	27.2
=	0.0	-16.5	15.0	29.1
=	0.0	-16.4	15.0	30.5
=	0.0	-16.2	15.0	33.1
=	0.0	-16.1	15.0	34.4
=	0.0	-15.9	15.0	36.5
=	0.0	-15.7	15.0	39.0
=	0.0	-15.6	15.0	40.5
=	0.0	-15.4	15.0	43.4
=	0.0	-15.2	15.0	45.4
=	0.0	-15.1	15.0	48.0
=	0.0	-14.9	15.0	51.0
=	0.0	-14.7	15.0	52.7
=	0.0	-14.6	15.0	54.7
=	0.0	-14.4	15.0	56.9
=	0.0	-14.3	15.0	59.1
=	0.0	-14.2	15.0	60.6
=	0.0	-14.0	15.0	62.3
=	0.0	-13.8	15.0	65.5
=	0.0	-13.7	15.0	66.9
=	0.0	-13.5	15.0	69.0
=	0.0	-13.4	15.0	70.7
=	0.0	-13.2	15.0	72.6
=	0.0	-12.9	15.0	75.7
=	0.0	-12.8	15.0	77.4
=	0.0	-12.6	15.0	79.0
=	0.0	-12.5	15.0	80.1
=	0.0	-12.3	15.0	81.6
=	0.0	-12.2	15.0	83.0
=	0.0	-12.1	15.0	84.2
=	0.0	-12.0	15.0	85.3
=	0.0	-11.7	15.0	87.6
=	0.0	-11.6	15.0	88.6
=	0.0	-11.4	15.0	89.9
=	0.0	-11.1	15.0	91.5
=	0.0	-11.0	15.0	92.1
=	0.0	-10.8	15.0	93.2
=	0.0	-10.7	15.0	93.6
=	0.0	-10.4	15.0	94.3
=	0.0	-10.3	15.0	94.7
=	0.0	-10.2	15.0	95.0
=	0.0	-10.1	15.0	95.3
=	0.0	-9.9	15.0	95.6
=	0.0	-9.8	15.0	96.0
=	0.0	-9.5	15.0	96.5
=	0.0	-9.4	15.0	96.7
=	0.0	-9.2	15.0	96.9
=	0.0	-9.1	15.0	97.1
=	0.0	-8.9	15.0	97.3
=	0.0	-8.7	15.0	97.6
=	0.0	-8.5	15.0	97.8
=	0.0	-8.3	15.0	98.0
=	0.0	-8.1	15.0	98.1
=	0.0	-8.0	15.0	98.2
=	0.0	-7.9	15.0	98.3
=	0.0	-7.8	15.0	98.4
=	0.0	-7.5	15.0	98.7
=	0.0	-7.1	15.0	98.8
=	0.0	-7.0	15.0	98.9
=	0.0	-6.9	15.0	99.0
=	0.0	-6.7	15.0	99.1
=	0.0	-6.6	15.0	99.1
=	0.0	-6.3	15.0	99.2
=	0.0	-6.2	15.0	99.2
=	0.0	-6.1	15.0	99.3
=	0.0	-5.9	15.0	99.3
=	0.0	-5.7	15.0	99.4
=	0.0	-5.3	15.0	99.5
=	0.0	-5.1	15.0	99.6
=	0.0	-5.0	15.0	99.6
=	0.0	-4.8	15.0	99.6
=	0.0	-4.7	15.0	99.6
=	0.0	-4.4	15.0	99.7
=	0.0	-4.3	15.0	99.7
=	0.0	-4.1	15.0	99.7
=	0.0	-4.0	15.0	99.7
=	0.0	-3.8	15.0	99.8
=	0.0	-3.7	15.0	99.8
=	0.0	-3.5	15.0	99.8
=	0.0	-3.3	15.0	99.8
=	0.0	-3.2	15.0	99.8
=	0.0	-2.9	15.0	99.9
=	0.0	-2.7	15.0	99.9
=	0.0	-2.5	15.0	99.9
=	0.0	-2.3	15.0	99.9
=	0.0	-2.1	15.0	99.9
=	0.0	-2.0	15.0	100.0
=	0.0	-1.7	15.0	100.0
=	0.0	-1.5	15.0	100.0
=	0.0	-1.3	15.0	100.0
=	0.0	-1.1	15.0	100.0
=	0.0	-0.9	15.0	100.0
=	0.0	-0.7	15.0	100.0
=	0.0	-0.4	15.0	100.0
=	0.0	-0.3	15.0	100.0
=	0.0	-0.1	15.0	100.0
=	0.0	0.0	15.0	100.0
=	0.0	0.2	15.0	100.0
=	0.0	0.3	15.0	100.0
=	0.0	0.4	15.0	100.0
=	0.0	0.7	15.0	100.0
=	0.0	0.9	15.0	100.0
=	0.0	1.1	15.0	100.0
=	0.0	1.3	15.0	100.0
=	0.0	1.5	15.0	99.9
=	0.0	1.6	15.0	99.9
=	0.0	1.9	15.0	99.9
=	0.0	2.0	15.0	99.9
=	0.0	2.3	15.0	99.9
=	0.0	2.5	15.0	99.9
=	0.0	2.6	15.0	99.9
=	0.0	2.8	15.0	99.9
=	0.0	3.1	15.0	99.8
=	0.0	3.2	15.0	99.8
=	0.0	3.5	15.0	99.8
=	0.0	3.7	15.0	99.7
=	0.0	3.8	15.0	99.7
=	0.0	4.0	15.0	99.7
=	0.0	4.1	15.0	99.7
=	0.0	4.4	15.0	99.6
=	0.0	4.7	15.0	99.5
=	0.0	4.8	15.0	99.5
=	0.0	5.0	15.0	99.5
=	0.0	5.3	15.0	99.4
=	0.0	5.6	15.0	99.4
=	0.0	5.9	15.0	99.3
=	0.0	6.1	15.0	99.3
=	0.0	6.2	15.0	99.3
=	0.0	6.3	15.0	99.2
=	0.0	6.5	15.0	99.1
=	0.0	6.7	15.0	98.9
=	0.0	6.8	15.0	98.8
=	0.0	7.0	15.0	98.8
=	0.0	7.1	15.0	98.7
=	0.0	7.4	15.0	98.6
=	0.0	7.5	15.0	98.6
=	0.0	7.6	15.0	98.4
=	0.0	7.8	15.0	98.3
=	0.0	7.9	15.0	98.2
=	0.0	8.0	15.0	98.1
=	0.0	8.1	15.0	98.0
=	0.0	8.3	15.0	97.8
=	0.0	8.5	15.0	97.6
=	0.0	8.6	15.0	97.5
=	0.0	8.9	15.0	97.2
=	0.0	9.1	15.0	97.0
=	0.0	9.3	15.0	96.7
=	0.0	9.4	15.0	96.5
=	0.0	9.5	15.0	96.4
=	0.0	9.8	15.0	95.9
=	0.0	9.9	15.0	95.5
=	0.0	10.2	15.0	94.9
=	0.0	10.3	15.0	94.5
=	0.0	10.5	15.0	94.0
=	0.0	10.6	15.0	93.6
=	0.0	10.7	15.0	93.3
=	0.0	10.8	15.0	92.9
=	0.0	11.0	15.0	92.0
=	0.0	11.1	15.0	91.5
=	0.0	11.3	15.0	90.7
=	0.0	11.4	15.0	89.9
=	0.0	11.5	15.0	89.0
=	0.0	11.7	15.0	87.7
=	0.0	11.8	15.0	86.7
=	0.0	11.9	15.0	85.6
=	0.0	12.1	15.0	84.3
=	0.0	12.3	15.0	82.3
=	0.0	12.4	15.0	80.8
=	0.0	12.6	15.0	79.5
=	0.0	12.8	15.0	77.5
=	0.0	12.9	15.0	75.8
=	0.0	13.0	15.0	74.5
=	0.0	13.2	15.0	72.9
=	0.0	13.3	15.0	71.2
=	0.0	13.5	15.0	68.8
=	0.0	13.6	15.0	67.2
=	0.0	13.8	15.0	64.9
=	0.0	13.9	15.0	63.4
=	0.0	14.1	15.0	60.9
=	0.0	14.2	15.0	59.6
=	0.0	14.4	15.0	57.5
=	0.0	14.5	15.0	56.0
=	0.0	14.6	15.0	54.5
=	0.0	14.7	15.0	53.0
=	0.0	14.9	15.0	51.0
=	0.0	15.0	15.0	48.7
=	0.0	15.2	15.0	45.6
=	0.0	15.3	15.0	44.1
=	0.0	15.6	15.0	40.5
=	0.0	15.7	15.0	39.0
=	0.0	15.9	15.0	36.5
=	0.0	16.1	15.0	34.4
=	0.0	16.2	15.0	32.7
=	0.0	16.5	15.0	29.8
=	0.0	16.6	15.0	28.4
=	0.0	16.8	15.0	25.9
=	0.0	17.0	15.0	23.5
=	0.0	17.1	15.0	22.2
=	0.0	17.3	15.0	20.9
=	0.0	17.4	15.0	19.1
=	0.0	17.6	15.0	17.9
=	0.0	17.8	15.0	16.1
=	0.0	18.0	15.0	13.8
=	0.0	18.3	15.0	11.4
=	0.0	18.6	15.0	9.9
=	0.0	18.8	15.0	8.7
=	0.0	19.2	15.0	7.3
=	0.0	19.3	15.0	6.9
=	0.0	19.5	15.0	6.3
=	0.0	19.6	15.0	6.0
=	0.0	19.7	15.0	5.7
=	0.0	19.9	15.0	5.3
=	0.0	20.0	15.0	5.1
=	0.0	20.1	15.0	4.8
=	0.0	20.3	15.0	4.5
=	0.0	20.5	15.0	4.3
=	0.0	20.6	15.0	4.1
=	0.0	20.8	15.0	3.9
=	0.0	20.9	15.0	3.7
=	0.0	21.1	15.0	3.5
=	0.0	21.4	15.0	3.3
=	0.0	21.6	15.0	3.1
=	0.0	21.7	15.0	3.0
=	0.0	21.9	15.0	2.8
=	0.0	22.1	15.0	2.7
=	0.0	22.3	15.0	2.5
=	0.0	22.5	15.0	2.4
=	0.0	22.7	15.0	2.3
=	0.0	22.9	15.0	2.2
=	0.0	23.1	15.0	2.1
=	0.0	23.3	15.0	2.1
=	0.0	23.5	15.0	2.0
=	0.0	23.6	15.0	2.0
=	0.0	23.8	15.0	1.9
=	0.0	23.9	15.0	1.9
=	0.0	24.1	15.0	1.8
=	0.0	24.2	15.0	1.8
=	0.0	24.4	15.0	1.7
=	0.0	24.5	15.0	1.7
=	0.0	24.7	15.0	1.7
=	0.0	24.8	15.0	1.6
=	0.0	25.0	15.0	1.6
=	0.0	25.1	15.0	1.6
=	0.0	25.3	15.0	1.5
=	0.0	25.5	15.0	1.5
=	0.0	25.6	15.0	1.5
=	0.0	25.8	15.0	1.4
=	0.0	25.9	15.0	1.4
=	0.0	26.1	15.0	1.4
=	0.0	26.2	15.0	1.4
=	0.0	26.3	15.0	1.4
=	0.0	26.5	15.0	1.3
=	0.0	26.6	15.0	1.3
=	0.0	26.8	15.0	1.3
=	0.0	26.9	15.0	1.3
=	0.0	27.1	15.0	1.3
=	0.0	27.3	15.0	1.3
=	0.0	27.5	15.0	1.2
=	0.0	27.6	15.0	1.2
=	0.0	27.7	15.0	1.2
=	0.0	27.8	15.0	1.2
=	0.0	28.0	15.0	1.2
=	0.0	28.1	15.0	1.2
=	0.0	28.4	15.0	1.2
=	0.0	28.5	15.0	1.1
=	0.0	28.7	15.0	1.1
=	0.0	28.8	15.0	1.1
=	0.0	28.9	15.0	1.1
=	0.0	29.2	15.0	1.1
=	0.0	29.3	15.0	1.1
=	0.0	29.6	15.0	1.1
=	0.0	29.7	15.0	1.1
=	0.0	29.9	15.0	1.0
=	0.0	30.1	15.0	1.0
=	0.0	30.5	15.0	1.0
=	0.0	30.8	15.0	1.0
=	0.0	31.1	15.0	1.0
=	0.0	31.2	15.0	1.0
=	0.0	31.4	15.0	1.0
=	0.0	31.7	15.0	0.9
=	0.0	32.0	15.0	0.9
=	0.0	32.1	15.0	0.9
=	0.0	32.3	15.0	0.9
=	0.0	32.4	15.0	0.9
=	0.0	32.6	15.0	0.9
=	0.0	32.8	15.0	0.9
=	0.0	32.9	15.0	0.9
=	0.0	33.1	15.0	0.9
=	0.0	33.2	15.0	0.9
=	0.0	33.5	15.0	0.8
=	0.0	33.7	15.0	0.8
=	0.0	33.8	15.0	0.8
=	0.0	34.0	15.0	0.8
=	0.0	34.1	15.0	0.8
=	0.0	34.4	15.0	0.8
=	0.0	34.5	15.0	0.8
=	0.0	34.7	15.0	0.8
=	0.0	34.9	15.0	0.8
=	0.0	35.1	15.0	0.8
=	0.0	35.2	15.0	0.8
=	0.0	35.3	15.0	0.8
=	0.0	35.6	15.0	0.8
=	0.0	35.8	15.0	0.8
=	0.0	35.9	15.0	0.8
=	0.0	36.0	15.0	0.8
=	0.0	36.2	15.0	0.8
=	0.0	36.4	15.0	0.8
=	0.0	36.5	15.0	0.7
=	0.0	36.7	15.0	0.7
=	0.0	36.8	15.0	0.7
=	0.0	36.9	15.0	0.7
=	0.0	37.1	15.0	0.7
=	0.0	37.2	15.0	0.7
=	0.0	37.4	15.0	0.7
=	0.0	37.6	15.0	0.7
=	0.0	37.7	15.0	0.7
=	0.0	37.9	15.0	0.7
=	0.0	38.1	15.0	0.7
=	0.0	38.2	15.0	0.7
=	0.0	38.4	15.0	0.7
=	0.0	38.5	15.0	0.7
=	0.0	38.7	15.0	0.7
=	0.0	38.8	15.0	0.7
=	0.0	39.0	15.0	0.7
=	0.0	39.1	15.0	0.7
=	0.0	39.3	15.0	0.7
=	0.0	39.4	15.0	0.7
=	0.0	39.5	15.0	0.7
=	0.0	39.7	15.0	0.7
=	0.0	39.8	15.0	0.7
=	0.0	40.0	15.0	0.7
=	0.0	40.2	15.0	0.7
=	0.0	40.4	15.0	0.6
=	0.0	40.5	15.0	0.6
=	0.0	40.7	15.0	0.6
=	0.0	40.8	15.0	0.6
=	0.0	41.0	15.0	0.6
=	0.0	41.2	15.0	0.6
=	0.0	41.3	15.0	0.6
=	0.0	41.6	15.0	0.6
=	0.0	41.9	15.0	0.6
=	0.0	42.0	15.0	0.6
=	0.0	42.3	15.0	0.6
=	0.0	42.5	15.0	0.6
=	0.0	42.6	15.0	0.6
=	0.0	42.9	15.0	0.6
=	0.0	43.1	15.0	0.6
=	0.0	43.2	15.0	0.6
=	0.0	43.3	15.0	0.6
=	0.0	43.5	15.0	0.6
=	0.0	43.7	15.0	0.6
=	0.0	43.9	15.0	0.6
=	0.0	44.1	15.0	0.6
=	0.0	44.3	15.0	0.6
=	0.0	44.4	15.0	0.6
=	0.0	44.5	15.0	0.6
=	0.0	44.7	15.0	0.6
=	0.0	44.9	15.0	0.6
=	0.0	45.0	15.0	0.6
=	0.0	45.1	15.0	0.6
=	0.0	45.2	15.0	0.6
=	0.0	45.3	15.0	0.6
=	0.0	45.6	15.0	0.6
=	0.0	45.9	15.0	0.6
=	0.0	46.0	15.0	0.6
=	0.0	46.2	15.0	0.6
=	0.0	46.3	15.0	0.6
=	0.0	46.4	15.0	0.6
=	0.0	46.5	15.0	0.5
=	0.0	46.7	15.0	0.5
=	0.0	46.8	15.0	0.5
=	0.0	47.0	15.0	0.5
=	0.0	47.1	15.0	0.5
=	0.0	47.3	15.0	0.5
=	0.0	47.5	15.0	0.5
=	0.0	47.6	15.0	0.5
=	0.0	47.8	15.0	0.5
=	0.0	47.9	15.0	0.5
=	0.0	48.0	15.0	0.5
=	0.0	48.3	15.0	0.5
=	0.0	48.5	15.0	0.5
=	0.0	48.6	15.0	0.5
=	0.0	48.8	15.0	0.5
=	0.0	49.0	15.0	0.5
=	0.0	49.1	15.0	0.5
=	0.0	49.3	15.0	0.5
=	0.0	49.4	15.0	0.5
=	0.0	49.6	15.0	0.5
=	0.0	49.7	15.0	0.5
=	0.0	49.8	15.0	0.5
=	0.0	50.1	15.0	0.5
=	0.0	50.2	15.0	0.5
=	0.0	50.4	15.0	0.5
=	0.0	50.5	15.0	0.5
=	0.0	50.6	15.0	0.5
=	0.0	50.8	15.0	0.5
=	0.0	51.0	15.0	0.5
=	0.0	51.3	15.0	0.5
=	0.0	51.5	15.0	0.5
=	0.0	51.6	15.0	0.5
=	0.0	51.9	15.0	0.5
=	0.0	52.0	15.0	0.5
=	0.0	52.2	15.0	0.5
=	0.0	52.3	15.0	0.5
=	0.0	52.4	15.0	0.5
=	0.0	52.6	15.0	0.5
=	0.0	52.8	15.0	0.5
=	0.0	53.0	15.0	0.5
=	0.0	53.2	15.0	0.5
=	0.0	53.5	15.0	0.5
=	0.0	53.7	15.0	0.5
=	0.0	53.8	15.0	0.5
=	0.0	53.9	15.0	0.5
=	0.0	54.0	15.0	0.5
=	0.0	54.1	15.0	0.5
=	0.0	54.2	15.0	0.5
=	0.0	54.4	15.0	0.5
=	0.0	54.5	15.0	0.5
=	0.0	54.7	15.0	0.5
=	0.0	54.8	15.0	0.5
=	0.0	55.0	15.0	0.5
=	0.0	55.3	15.0	0.5
=	0.0	55.5	15.0	0.4
=	0.0	55.6	15.0	0.4
=	0.0	55.9	15.0	0.4
=	0.0	56.0	15.0	0.4
=	0.0	56.2	15.0	0.4
=	0.0	56.3	15.0	0.4
=	0.0	56.5	15.0	0.4
=	0.0	56.8	15.0	0.4
=	0.0	57.1	15.0	0.4
=	0.0	57.4	15.0	0.4
=	0.0	57.6	15.0	0.4
=	0.0	57.8	15.0	0.4
=	0.0	58.0	15.0	0.4
=	0.0	58.2	15.0	0.4
=	0.0	58.3	15.0	0.4
=	0.0	58.5	15.0	0.4
=	0.0	58.7	15.0	0.4
=	0.0	58.8	15.0	0.4
=	0.0	58.9	15.0	0.4
=	0.0	59.1	15.0	0.4
=	0.0	59.2	15.0	0.4
=	0.0	59.4	15.0	0.4
=	0.0	59.5	15.0	0.4
=	0.0	59.7	15.0	0.4
=	0.0	59.9	15.0	0.4
=	0.0	60.0	15.0	0.4
=	0.0	60.2	15.0	0.4
=	0.0	60.4	15.0	0.4
=	0.0	60.7	15.0	0.4
=	0.0	60.8	15.0	0.4
=	0.0	61.0	15.0	0.4
=	0.0	61.2	15.0	0.4
=	0.0	61.4	15.0	0.4
=	0.0	61.6	15.0	0.4
=	0.0	62.0	15.0	0.4
=	0.0	62.1	15.0	0.4
=	0.0	62.2	15.0	0.4
=	0.0	62.5	15.0	0.4
=	0.0	62.6	15.0	0.4
=	0.0	62.9	15.0	0.4
=	0.0	63.2	15.0	0.4
=	0.0	63.4	15.0	0.4
=	0.0	63.6	15.0	0.4
=	0.0	63.8	15.0	0.4
=	0.0	63.9	15.0	0.4
=	0.0	64.1	15.0	0.4
=	0.0	64.3	15.0	0.4
=	0.0	64.4	15.0	0.4
=	0.0	64.6	15.0	0.4
=	0.0	64.8	15.0	0.4
=	0.0	64.9	15.0	0.4
=	0.0	65.0	15.0	0.4
=	0.0	65.1	15.0	0.4
:EOM # End of Measurement
#
# RFA300 ASCII Measurement Dump ( BDS format )
#
# Measurement number 	2
#
%VNR 1.0
%MOD 	RAT
%TYP 	SCN
%SCN 	PRO
%FLD 	ION
%DAT 	01-30-2012
%TIM 	12:00:00
%FSZ 	030	030
%BMT 	PHO	   6.0
%SSD 	1000
%BUP 	0
%BRD 	1000
%FSH 	1
%ASC 	0
%WEG 	0
%GPO 	0
%CPO 	0
%MEA 	2
%PRD 	50,0
%PTS 	615
%STS 	    0.0	  -65.6	   50.0 # Start Scan values in mm ( X , Y , Z )
%EDS 	    0.0	   65.6	   50.0 # End Scan values in mm ( X , Y , Z )
#
#	  X      Y      Z     Dose
#
=	0.0	-65.6	50.0	0.5
=	0.0	-65.4	50.0	0.5
=	0.0	-65.2	50.0	0.5
=	0.0	-64.8	50.0	0.5
=	0.0	-64.7	50.0	0.5
=	0.0	-64.5	50.0	0.5
=	0.0	-64.3	50.0	0.5
=	0.0	-64.0	50.0	0.6
=	0.0	-63.9	50.0	0.6
=	0.0	-63.8	50.0	0.6
=	0.0	-63.6	50.0	0.6
=	0.0	-63.5	50.0	0.6
=	0.0	-63.3	50.0	0.6
=	0.0	-63.2	50.0	0.6
=	0.0	-63.0	50.0	0.6
=	0.0	-62.7	50.0	0.6
=	0.0	-62.5	50.0	0.6
=	0.0	-62.4	50.0	0.6
=	0.0	-61.9	50.0	0.6
=	0.0	-61.7	50.0	0.6
=	0.0	-61.5	50.0	0.6
=	0.0	-61.2	50.0	0.6
=	0.0	-61.0	50.0	0.6
=	0.0	-60.8	50.0	0.6
=	0.0	-60.5	50.0	0.6
=	0.0	-60.3	50.0	0.6
=	0.0	-59.9	50.0	0.6
=	0.0	-59.8	50.0	0.6
=	0.0	-59.6	50.0	0.6
=	0.0	-59.1	50.0	0.6
=	0.0	-58.8	50.0	0.6
=	0.0	-58.7	50.0	0.6
=	0.0	-58.4	50.0	0.6
=	0.0	-58.2	50.0	0.6
=	0.0	-57.9	50.0	0.6
=	0.0	-57.6	50.0	0.6
=	0.0	-57.5	50.0	0.7
=	0.0	-57.3	50.0	0.7
=	0.0	-57.0	50.0	0.7
=	0.0	-56.9	50.0	0.7
=	0.0	-56.8	50.0	0.7
=	0.0	-56.6	50.0	0.7
=	0.0	-56.4	50.0	0.7
=	0.0	-56.3	50.0	0.7
=	0.0	-56.0	50.0	0.7
=	0.0	-55.9	50.0	0.7
=	0.0	-55.5	50.0	0.7
=	0.0	-55.3	50.0	0.7
=	0.0	-55.0	50.0	0.7
=	0.0	-54.8	50.0	0.7
=	0.0	-54.7	50.0	0.7
=	0.0	-54.3	50.0	0.7
=	0.0	-54.2	50.0	0.7
=	0.0	-54.0	50.0	0.7
=	0.0	-53.8	50.0	0.7
=	0.0	-53.6	50.0	0.7
=	0.0	-53.4	50.0	0.7
=	0.0	-53.2	50.0	0.7
=	0.0	-53.0	50.0	0.7
=	0.0	-52.8	50.0	0.7
=	0.0	-52.6	50.0	0.7
=	0.0	-52.4	50.0	0.7
=	0.0	-52.2	50.0	0.7
=	0.0	-52.0	50.0	0.7
=	0.0	-51.8	50.0	0.8
=	0.0	-51.6	50.0	0.8
=	0.0	-51.5	50.0	0.8
=	0.0	-51.3	50.0	0.8
=	0.0	-51.1	50.0	0.8
=	0.0	-51.0	50.0	0.8
=	0.0	-50.8	50.0	0.8
=	0.0	-50.6	50.0	0.8
=	0.0	-50.4	50.0	0.8
=	0.0	-50.2	50.0	0.8
=	0.0	-49.9	50.0	0.8
=	0.0	-49.7	50.0	0.8
=	0.0	-49.6	50.0	0.8
=	0.0	-49.5	50.0	0.8
=	0.0	-49.4	50.0	0.8
=	0.0	-49.2	50.0	0.8
=	0.0	-49.0	50.0	0.8
=	0.0	-48.7	50.0	0.8
=	0.0	-48.6	50.0	0.8
=	0.0	-48.5	50.0	0.8
=	0.0	-48.2	50.0	0.8
=	0.0	-47.8	50.0	0.9
=	0.0	-47.6	50.0	0.9
=	0.0	-47.4	50.0	0.9
=	0.0	-47.2	50.0	0.9
=	0.0	-47.0	50.0	0.9
=	0.0	-46.8	50.0	0.9
=	0.0	-46.6	50.0	0.9
=	0.0	-46.4	50.0	0.9
=	0.0	-46.2	50.0	0.9
=	0.0	-46.1	50.0	0.9
=	0.0	-45.8	50.0	0.9
=	0.0	-45.7	50.0	0.9
=	0.0	-45.5	50.0	0.9
=	0.0	-45.4	50.0	0.9
=	0.0	-45.1	50.0	0.9
=	0.0	-45.0	50.0	0.9
=	0.0	-44.7	50.0	0.9
=	0.0	-44.5	50.0	1.0
=	0.0	-44.3	50.0	1.0
=	0.0	-44.1	50.0	1.0
=	0.0	-44.0	50.0	1.0
=	0.0	-43.7	50.0	1.0
=	0.0	-43.6	50.0	1.0
=	0.0	-43.3	50.0	1.0
=	0.0	-43.1	50.0	1.0
=	0.0	-42.9	50.0	1.0
=	0.0	-42.7	50.0	1.0
=	0.0	-42.5	50.0	1.0
=	0.0	-42.3	50.0	1.0
=	0.0	-42.1	50.0	1.1
=	0.0	-41.9	50.0	1.1
=	0.0	-41.7	50.0	1.1
=	0.0	-41.5	50.0	1.1
=	0.0	-41.3	50.0	1.1
=	0.0	-41.1	50.0	1.1
=	0.0	-40.9	50.0	1.1
=	0.0	-40.6	50.0	1.1
=	0.0	-40.5	50.0	1.1
=	0.0	-40.3	50.0	1.1
=	0.0	-40.1	50.0	1.1
=	0.0	-39.8	50.0	1.2
=	0.0	-39.7	50.0	1.2
=	0.0	-39.4	50.0	1.2
=	0.0	-39.2	50.0	1.2
=	0.0	-39.0	50.0	1.2
=	0.0	-38.8	50.0	1.2
=	0.0	-38.7	50.0	1.2
=	0.0	-38.5	50.0	1.2
=	0.0	-38.3	50.0	1.2
=	0.0	-38.2	50.0	1.3
=	0.0	-38.0	50.0	1.3
=	0.0	-37.8	50.0	1.3
=	0.0	-37.6	50.0	1.3
=	0.0	-37.4	50.0	1.3
=	0.0	-37.3	50.0	1.3
=	0.0	-37.0	50.0	1.3
=	0.0	-36.9	50.0	1.3
=	0.0	-36.7	50.0	1.4
=	0.0	-36.6	50.0	1.4
=	0.0	-36.4	50.0	1.4
=	0.0	-36.2	50.0	1.4
=	0.0	-35.9	50.0	1.4
=	0.0	-35.8	50.0	1.4
=	0.0	-35.5	50.0	1.4
=	0.0	-35.4	50.0	1.5
=	0.0	-35.2	50.0	1.5
=	0.0	-35.0	50.0	1.5
=	0.0	-34.8	50.0	1.5
=	0.0	-34.6	50.0	1.5
=	0.0	-34.4	50.0	1.5
=	0.0	-34.1	50.0	1.5
=	0.0	-34.0	50.0	1.6
=	0.0	-33.8	50.0	1.6
=	0.0	-33.6	50.0	1.6
=	0.0	-33.3	50.0	1.6
=	0.0	-33.1	50.0	1.6
=	0.0	-32.9	50.0	1.7
=	0.0	-32.8	50.0	1.7
=	0.0	-32.6	50.0	1.7
=	0.0	-32.5	50.0	1.7
=	0.0	-32.4	50.0	1.7
=	0.0	-32.1	50.0	1.8
=	0.0	-31.9	50.0	1.8
=	0.0	-31.7	50.0	1.8
=	0.0	-31.6	50.0	1.8
=	0.0	-31.3	50.0	1.8
=	0.0	-31.1	50.0	1.9
=	0.0	-30.9	50.0	1.9
=	0.0	-30.7	50.0	1.9
=	0.0	-30.5	50.0	2.0
=	0.0	-30.3	50.0	2.0
=	0.0	-30.0	50.0	2.0
=	0.0	-29.9	50.0	2.0
=	0.0	-29.8	50.0	2.0
=	0.0	-29.5	50.0	2.1
=	0.0	-29.2	50.0	2.1
=	0.0	-28.8	50.0	2.2
=	0.0	-28.4	50.0	2.2
=	0.0	-28.1	50.0	2.3
=	0.0	-27.9	50.0	2.3
=	0.0	-27.6	50.0	2.4
=	0.0	-27.5	50.0	2.4
=	0.0	-27.1	50.0	2.5
=	0.0	-26.9	50.0	2.5
=	0.0	-26.7	50.0	2.6
=	0.0	-26.2	50.0	2.7
=	0.0	-26.0	50.0	2.8
=	0.0	-25.8	50.0	2.8
=	0.0	-25.5	50.0	2.9
=	0.0	-25.3	50.0	3.0
=	0.0	-25.1	50.0	3.1
=	0.0	-24.7	50.0	3.2
=	0.0	-24.6	50.0	3.3
=	0.0	-24.2	50.0	3.4
=	0.0	-24.0	50.0	3.5
=	0.0	-23.9	50.0	3.6
=	0.0	-23.4	50.0	3.9
=	0.0	-23.2	50.0	4.0
=	0.0	-22.9	50.0	4.2
=	0.0	-22.6	50.0	4.4
=	0.0	-22.5	50.0	4.6
=	0.0	-22.1	50.0	5.0
=	0.0	-21.9	50.0	5.1
=	0.0	-21.8	50.0	5.3
=	0.0	-21.4	50.0	5.8
=	0.0	-21.3	50.0	6.0
=	0.0	-21.1	50.0	6.3
=	0.0	-20.8	50.0	6.7
=	0.0	-20.7	50.0	6.9
=	0.0	-20.5	50.0	7.4
=	0.0	-20.4	50.0	7.8
=	0.0	-20.0	50.0	8.9
=	0.0	-19.9	50.0	9.2
=	0.0	-19.7	50.0	9.9
=	0.0	-19.6	50.0	10.3
=	0.0	-19.5	50.0	10.8
=	0.0	-19.2	50.0	11.8
=	0.0	-19.1	50.0	12.7
=	0.0	-19.0	50.0	13.3
=	0.0	-18.8	50.0	14.6
=	0.0	-18.6	50.0	15.6
=	0.0	-18.4	50.0	17.6
=	0.0	-18.2	50.0	18.7
=	0.0	-18.0	50.0	21.0
=	0.0	-17.9	50.0	22.1
=	0.0	-17.7	50.0	24.1
=	0.0	-17.6	50.0	25.1
=	0.0	-17.1	50.0	29.8
=	0.0	-16.9	50.0	31.9
=	0.0	-16.7	50.0	35.1
=	0.0	-16.3	50.0	39.7
=	0.0	-16.2	50.0	41.3
=	0.0	-15.9	50.0	44.5
=	0.0	-15.5	50.0	49.6
=	0.0	-15.0	50.0	55.9
=	0.0	-14.8	50.0	59.2
=	0.0	-14.3	50.0	64.9
=	0.0	-14.2	50.0	66.6
=	0.0	-14.1	50.0	67.8
=	0.0	-13.9	50.0	70.1
=	0.0	-13.8	50.0	71.3
=	0.0	-13.5	50.0	74.5
=	0.0	-13.3	50.0	76.0
=	0.0	-13.0	50.0	79.9
=	0.0	-12.7	50.0	82.6
=	0.0	-12.5	50.0	83.8
=	0.0	-12.3	50.0	85.7
=	0.0	-12.1	50.0	86.8
=	0.0	-11.9	50.0	88.2
=	0.0	-11.8	50.0	89.1
=	0.0	-11.5	50.0	90.4
=	0.0	-11.3	50.0	91.4
=	0.0	-11.2	50.0	92.1
=	0.0	-11.0	50.0	92.9
=	0.0	-10.8	50.0	93.4
=	0.0	-10.5	50.0	94.4
=	0.0	-10.2	50.0	95.1
=	0.0	-10.0	50.0	95.4
=	0.0	-9.9	50.0	95.8
=	0.0	-9.7	50.0	96.1
=	0.0	-9.4	50.0	96.5
=	0.0	-9.3	50.0	96.7
=	0.0	-9.1	50.0	97.0
=	0.0	-9.0	50.0	97.1
=	0.0	-8.8	50.0	97.3
=	0.0	-8.6	50.0	97.5
=	0.0	-8.4	50.0	97.7
=	0.0	-8.3	50.0	97.8
=	0.0	-8.1	50.0	97.9
=	0.0	-7.8	50.0	98.1
=	0.0	-7.7	50.0	98.2
=	0.0	-7.6	50.0	98.3
=	0.0	-7.4	50.0	98.4
=	0.0	-7.2	50.0	98.6
=	0.0	-7.0	50.0	98.7
=	0.0	-6.9	50.0	98.8
=	0.0	-6.6	50.0	98.9
=	0.0	-6.4	50.0	99.0
=	0.0	-6.2	50.0	99.0
=	0.0	-6.0	50.0	99.1
=	0.0	-5.8	50.0	99.2
=	0.0	-5.6	50.0	99.3
=	0.0	-5.5	50.0	99.3
=	0.0	-5.2	50.0	99.4
=	0.0	-5.0	50.0	99.4
=	0.0	-4.9	50.0	99.4
=	0.0	-4.7	50.0	99.5
=	0.0	-4.5	50.0	99.5
=	0.0	-4.4	50.0	99.6
=	0.0	-4.2	50.0	99.6
=	0.0	-4.0	50.0	99.6
=	0.0	-3.6	50.0	99.7
=	0.0	-3.5	50.0	99.7
=	0.0	-3.3	50.0	99.7
=	0.0	-2.9	50.0	99.8
=	0.0	-2.8	50.0	99.8
=	0.0	-2.6	50.0	99.9
=	0.0	-2.4	50.0	99.9
=	0.0	-2.1	50.0	99.9
=	0.0	-1.9	50.0	99.9
=	0.0	-1.6	50.0	100.0
=	0.0	-1.4	50.0	100.0
=	0.0	-1.2	50.0	100.0
=	0.0	-0.8	50.0	100.0
=	0.0	-0.7	50.0	100.0
=	0.0	-0.4	50.0	100.0
=	0.0	0.0	50.0	100.0
=	0.0	0.3	50.0	100.0
=	0.0	0.7	50.0	100.0
=	0.0	0.9	50.0	100.0
=	0.0	1.2	50.0	100.0
=	0.0	1.5	50.0	100.0
=	0.0	1.6	50.0	100.0
=	0.0	2.0	50.0	99.9
=	0.0	2.4	50.0	99.9
=	0.0	2.8	50.0	99.9
=	0.0	2.9	50.0	99.9
=	0.0	3.1	50.0	99.8
=	0.0	3.2	50.0	99.8
=	0.0	3.6	50.0	99.8
=	0.0	3.8	50.0	99.7
=	0.0	4.0	50.0	99.7
=	0.0	4.3	50.0	99.6
=	0.0	4.5	50.0	99.5
=	0.0	4.7	50.0	99.5
=	0.0	4.8	50.0	99.4
=	0.0	5.0	50.0	99.4
=	0.0	5.2	50.0	99.3
=	0.0	5.4	50.0	99.2
=	0.0	5.6	50.0	99.2
=	0.0	5.8	50.0	99.2
=	0.0	6.0	50.0	99.1
=	0.0	6.2	50.0	99.0
=	0.0	6.4	50.0	98.9
=	0.0	6.6	50.0	98.8
=	0.0	6.8	50.0	98.8
=	0.0	7.0	50.0	98.6
=	0.0	7.2	50.0	98.5
=	0.0	7.3	50.0	98.5
=	0.0	7.4	50.0	98.4
=	0.0	7.6	50.0	98.2
=	0.0	7.8	50.0	98.1
=	0.0	8.0	50.0	97.9
=	0.0	8.2	50.0	97.7
=	0.0	8.4	50.0	97.6
=	0.0	8.6	50.0	97.4
=	0.0	8.7	50.0	97.2
=	0.0	8.8	50.0	97.1
=	0.0	9.0	50.0	97.0
=	0.0	9.2	50.0	96.7
=	0.0	9.3	50.0	96.5
=	0.0	9.4	50.0	96.4
=	0.0	9.7	50.0	96.0
=	0.0	9.8	50.0	95.7
=	0.0	10.0	50.0	95.3
=	0.0	10.2	50.0	95.0
=	0.0	10.5	50.0	94.3
=	0.0	10.8	50.0	93.4
=	0.0	11.0	50.0	92.7
=	0.0	11.2	50.0	91.9
=	0.0	11.3	50.0	91.3
=	0.0	11.5	50.0	90.4
=	0.0	11.8	50.0	89.2
=	0.0	11.9	50.0	88.2
=	0.0	12.1	50.0	86.9
=	0.0	12.3	50.0	85.8
=	0.0	12.5	50.0	83.8
=	0.0	12.7	50.0	82.6
=	0.0	13.0	50.0	80.0
=	0.0	13.3	50.0	75.9
=	0.0	13.5	50.0	74.4
=	0.0	13.7	50.0	71.9
=	0.0	13.9	50.0	70.1
=	0.0	14.1	50.0	67.3
=	0.0	14.3	50.0	65.0
=	0.0	14.4	50.0	63.7
=	0.0	14.7	50.0	60.5
=	0.0	14.8	50.0	58.7
=	0.0	15.0	50.0	55.9
=	0.0	15.1	50.0	54.4
=	0.0	15.5	50.0	50.0
=	0.0	15.8	50.0	45.6
=	0.0	16.2	50.0	41.0
=	0.0	16.5	50.0	37.4
=	0.0	16.7	50.0	35.2
=	0.0	16.9	50.0	32.6
=	0.0	17.1	50.0	30.0
=	0.0	17.5	50.0	25.6
=	0.0	17.9	50.0	22.3
=	0.0	18.0	50.0	21.2
=	0.0	18.2	50.0	18.9
=	0.0	18.4	50.0	17.8
=	0.0	18.6	50.0	15.7
=	0.0	18.8	50.0	14.6
=	0.0	19.0	50.0	13.0
=	0.0	19.2	50.0	11.8
=	0.0	19.5	50.0	10.8
=	0.0	19.6	50.0	10.2
=	0.0	19.7	50.0	9.8
=	0.0	19.9	50.0	9.2
=	0.0	20.0	50.0	8.8
=	0.0	20.3	50.0	7.8
=	0.0	20.6	50.0	7.2
=	0.0	20.7	50.0	6.9
=	0.0	20.8	50.0	6.7
=	0.0	21.1	50.0	6.3
=	0.0	21.3	50.0	5.9
=	0.0	21.4	50.0	5.7
=	0.0	21.7	50.0	5.3
=	0.0	22.0	50.0	5.0
=	0.0	22.5	50.0	4.5
=	0.0	22.7	50.0	4.4
=	0.0	22.9	50.0	4.2
=	0.0	23.2	50.0	4.0
=	0.0	23.4	50.0	3.9
=	0.0	23.8	50.0	3.7
=	0.0	23.9	50.0	3.6
=	0.0	24.1	50.0	3.5
=	0.0	24.6	50.0	3.2
=	0.0	24.8	50.0	3.2
=	0.0	25.1	50.0	3.1
=	0.0	25.3	50.0	3.0
=	0.0	25.5	50.0	2.9
=	0.0	25.8	50.0	2.8
=	0.0	26.0	50.0	2.8
=	0.0	26.2	50.0	2.7
=	0.0	26.7	50.0	2.6
=	0.0	26.9	50.0	2.5
=	0.0	27.1	50.0	2.5
=	0.0	27.4	50.0	2.4
=	0.0	27.6	50.0	2.4
=	0.0	27.9	50.0	2.3
=	0.0	28.1	50.0	2.3
=	0.0	28.3	50.0	2.3
=	0.0	28.7	50.0	2.2
=	0.0	28.8	50.0	2.2
=	0.0	29.0	50.0	2.2
=	0.0	29.2	50.0	2.1
=	0.0	29.5	50.0	2.1
=	0.0	29.7	50.0	2.1
=	0.0	29.9	50.0	2.0
=	0.0	30.0	50.0	2.0
=	0.0	30.2	50.0	2.0
=	0.0	30.4	50.0	1.9
=	0.0	30.7	50.0	1.9
=	0.0	30.8	50.0	1.9
=	0.0	30.9	50.0	1.9
=	0.0	31.1	50.0	1.9
=	0.0	31.3	50.0	1.9
=	0.0	31.6	50.0	1.8
=	0.0	31.7	50.0	1.8
=	0.0	31.8	50.0	1.8
=	0.0	32.1	50.0	1.8
=	0.0	32.3	50.0	1.7
=	0.0	32.5	50.0	1.7
=	0.0	32.8	50.0	1.7
=	0.0	32.9	50.0	1.7
=	0.0	33.0	50.0	1.6
=	0.0	33.2	50.0	1.6
=	0.0	33.6	50.0	1.6
=	0.0	33.7	50.0	1.6
=	0.0	33.9	50.0	1.6
=	0.0	34.1	50.0	1.6
=	0.0	34.4	50.0	1.5
=	0.0	34.6	50.0	1.5
=	0.0	34.8	50.0	1.5
=	0.0	35.0	50.0	1.5
=	0.0	35.2	50.0	1.5
=	0.0	35.3	50.0	1.5
=	0.0	35.5	50.0	1.4
=	0.0	35.8	50.0	1.4
=	0.0	35.9	50.0	1.4
=	0.0	36.2	50.0	1.4
=	0.0	36.4	50.0	1.4
=	0.0	36.6	50.0	1.4
=	0.0	36.7	50.0	1.4
=	0.0	37.0	50.0	1.3
=	0.0	37.2	50.0	1.3
=	0.0	37.3	50.0	1.3
=	0.0	37.5	50.0	1.3
=	0.0	37.8	50.0	1.3
=	0.0	38.0	50.0	1.3
=	0.0	38.2	50.0	1.2
=	0.0	38.5	50.0	1.2
=	0.0	38.6	50.0	1.2
=	0.0	38.7	50.0	1.2
=	0.0	38.8	50.0	1.2
=	0.0	38.9	50.0	1.2
=	0.0	39.2	50.0	1.2
=	0.0	39.4	50.0	1.2
=	0.0	39.6	50.0	1.2
=	0.0	39.8	50.0	1.1
=	0.0	40.0	50.0	1.1
=	0.0	40.3	50.0	1.1
=	0.0	40.5	50.0	1.1
=	0.0	40.6	50.0	1.1
=	0.0	40.8	50.0	1.1
=	0.0	41.0	50.0	1.1
=	0.0	41.1	50.0	1.1
=	0.0	41.3	50.0	1.1
=	0.0	41.5	50.0	1.1
=	0.0	41.7	50.0	1.1
=	0.0	41.8	50.0	1.1
=	0.0	42.1	50.0	1.1
=	0.0	42.3	50.0	1.0
=	0.0	42.5	50.0	1.0
=	0.0	42.7	50.0	1.0
=	0.0	42.9	50.0	1.0
=	0.0	43.1	50.0	1.0
=	0.0	43.3	50.0	1.0
=	0.0	43.6	50.0	1.0
=	0.0	43.7	50.0	1.0
=	0.0	43.9	50.0	1.0
=	0.0	44.1	50.0	1.0
=	0.0	44.3	50.0	1.0
=	0.0	44.5	50.0	0.9
=	0.0	44.7	50.0	0.9
=	0.0	45.0	50.0	0.9
=	0.0	45.1	50.0	0.9
=	0.0	45.3	50.0	0.9
=	0.0	45.5	50.0	0.9
=	0.0	45.7	50.0	0.9
=	0.0	46.1	50.0	0.9
=	0.0	46.3	50.0	0.9
=	0.0	46.4	50.0	0.9
=	0.0	46.6	50.0	0.9
=	0.0	46.8	50.0	0.9
=	0.0	47.0	50.0	0.9
=	0.0	47.1	50.0	0.9
=	0.0	47.4	50.0	0.9
=	0.0	47.6	50.0	0.9
=	0.0	47.8	50.0	0.9
=	0.0	48.2	50.0	0.8
=	0.0	48.5	50.0	0.8
=	0.0	48.7	50.0	0.8
=	0.0	49.0	50.0	0.8
=	0.0	49.1	50.0	0.8
=	0.0	49.4	50.0	0.8
=	0.0	49.5	50.0	0.8
=	0.0	49.7	50.0	0.8
=	0.0	49.9	50.0	0.8
=	0.0	50.2	50.0	0.8
=	0.0	50.4	50.0	0.8
=	0.0	50.5	50.0	0.8
=	0.0	50.6	50.0	0.8
=	0.0	50.8	50.0	0.8
=	0.0	51.0	50.0	0.8
=	0.0	51.1	50.0	0.8
=	0.0	51.3	50.0	0.8
=	0.0	51.5	50.0	0.8
=	0.0	51.6	50.0	0.8
=	0.0	51.8	50.0	0.8
=	0.0	52.0	50.0	0.8
=	0.0	52.2	50.0	0.7
=	0.0	52.4	50.0	0.7
=	0.0	52.6	50.0	0.7
=	0.0	52.8	50.0	0.7
=	0.0	53.0	50.0	0.7
=	0.0	53.2	50.0	0.7
=	0.0	53.3	50.0	0.7
=	0.0	53.5	50.0	0.7
=	0.0	53.8	50.0	0.7
=	0.0	54.0	50.0	0.7
=	0.0	54.2	50.0	0.7
=	0.0	54.3	50.0	0.7
=	0.0	54.7	50.0	0.7
=	0.0	54.8	50.0	0.7
=	0.0	55.0	50.0	0.7
=	0.0	55.5	50.0	0.7
=	0.0	55.9	50.0	0.7
=	0.0	56.0	50.0	0.7
=	0.0	56.2	50.0	0.7
=	0.0	56.3	50.0	0.7
=	0.0	56.4	50.0	0.7
=	0.0	56.6	50.0	0.7
=	0.0	56.9	50.0	0.7
=	0.0	57.0	50.0	0.7
=	0.0	57.3	50.0	0.7
=	0.0	57.5	50.0	0.6
=	0.0	57.6	50.0	0.6
=	0.0	57.9	50.0	0.6
=	0.0	58.3	50.0	0.6
=	0.0	58.7	50.0	0.6
=	0.0	59.0	50.0	0.6
=	0.0	59.5	50.0	0.6
=	0.0	59.7	50.0	0.6
=	0.0	59.9	50.0	0.6
=	0.0	60.3	50.0	0.6
=	0.0	60.5	50.0	0.6
=	0.0	60.8	50.0	0.6
=	0.0	61.1	50.0	0.6
=	0.0	61.5	50.0	0.6
=	0.0	61.9	50.0	0.6
=	0.0	62.3	50.0	0.6
=	0.0	62.6	50.0	0.6
=	0.0	62.7	50.0	0.6
=	0.0	63.0	50.0	0.6
=	0.0	63.2	50.0	0.6
=	0.0	63.3	50.0	0.6
=	0.0	63.5	50.0	0.6
=	0.0	63.6	50.0	0.6
=	0.0	63.9	50.0	0.6
=	0.0	64.0	50.0	0.6
=	0.0	64.3	50.0	0.6
=	0.0	64.5	50.0	0.6
=	0.0	64.7	50.0	0.6
=	0.0	64.8	50.0	0.6
=	0.0	65.1	50.0	0.6
=	0.0	65.4	50.0	0.5
=	0.0	65.6	50.0	0.5
:EOM # End of Measurement
#
# RFA300 ASCII Measurement Dump ( BDS format )
#
# Measurement number 	3
#
%VNR 1.0
%MOD 	RAT
%TYP 	SCN
%SCN 	PRO
%FLD 	ION
%DAT 	01-30-2012
%TIM 	12:00:00
%FSZ 	030	030
%BMT 	PHO	   6.0
%SSD 	1000
%BUP 	0
%BRD 	1000
%FSH 	1
%ASC 	0
%WEG 	0
%GPO 	0
%CPO 	0
%MEA 	2
%PRD 	100,0
%PTS 	643
%STS 	    0.0	  -66.3	   100.0 # Start Scan values in mm ( X , Y , Z )
%EDS 	    0.0	   66.3	   100.0 # End Scan values in mm ( X , Y , Z )
#
#	  X      Y      Z     Dose
#
=	0.0	-66.3	100.0	0.9
=	0.0	-66.2	100.0	0.9
=	0.0	-66.0	100.0	0.9
=	0.0	-65.6	100.0	0.9
=	0.0	-65.5	100.0	0.9
=	0.0	-65.3	100.0	0.9
=	0.0	-65.2	100.0	0.9
=	0.0	-64.8	100.0	0.9
=	0.0	-64.7	100.0	0.9
