:MSR 	5	 # No. of measurement in file
:SYS BDS 0   # Beam Data Scanner System
#
# RFA300 ASCII Measurement Dump ( BDS format )
#
# Measurement number 	1
#
%VNR 1.0
%MOD 	RAT
%TYP 	SCN
%SCN 	DIA
%FLD 	ION
%DAT 	09-09-2011
%TIM 	12:00:00
%FSZ 	400	400
%BMT 	PHO	   6.0
%SSD 	1000
%BUP 	0
%BRD 	1000
%FSH 	1
%ASC 	0
%WEG 	0
%GPO 	0
%CPO 	0
%MEA 	2
%PRD 	15,0
%PTS 	999
%STS 	    -252.9	  252.9	   15.0 # Start Scan values in mm ( X , Y , Z )
%EDS 	    252.5	   -252.5	   15.0 # End Scan values in mm ( X , Y , Z )
#
#	  X      Y      Z     Dose
#
=	-252.9	252.9	15.0	1.4
=	-252.4	252.4	15.0	1.4
=	-252.0	252.0	15.0	1.4
=	-251.5	251.5	15.0	1.4
=	-250.9	250.9	15.0	1.4
=	-250.3	250.3	15.0	1.4
=	-249.8	249.8	15.0	1.4
=	-249.2	249.2	15.0	1.4
=	-248.6	248.6	15.0	1.5
=	-248.2	248.2	15.0	1.5
=	-247.7	247.7	15.0	1.5
=	-247.2	247.2	15.0	1.5
=	-246.6	246.6	15.0	1.5
=	-246.0	246.0	15.0	1.5
=	-245.5	245.5	15.0	1.5
=	-245.0	245.0	15.0	1.5
=	-244.5	244.5	15.0	1.5
=	-244.0	244.0	15.0	1.5
=	-243.6	243.6	15.0	1.5
=	-243.0	243.0	15.0	1.5
=	-242.4	242.4	15.0	1.6
=	-241.9	241.9	15.0	1.6
=	-241.4	241.4	15.0	1.6
=	-241.0	241.0	15.0	1.6
=	-240.5	240.5	15.0	1.6
=	-240.0	240.0	15.0	1.6
=	-239.4	239.4	15.0	1.6
=	-239.0	239.0	15.0	1.6
=	-238.4	238.4	15.0	1.6
=	-237.8	237.8	15.0	1.7
=	-237.3	237.3	15.0	1.7
=	-236.9	236.9	15.0	1.7
=	-236.5	236.5	15.0	1.7
=	-236.0	236.0	15.0	1.7
=	-235.4	235.4	15.0	1.7
=	-234.8	234.8	15.0	1.7
=	-234.3	234.3	15.0	1.7
=	-233.7	233.7	15.0	1.7
=	-233.2	233.2	15.0	1.7
=	-232.7	232.7	15.0	1.8
=	-232.1	232.1	15.0	1.8
=	-231.6	231.6	15.0	1.8
=	-231.0	231.0	15.0	1.8
=	-230.4	230.4	15.0	1.8
=	-229.8	229.8	15.0	1.8
=	-229.3	229.3	15.0	1.8
=	-228.7	228.7	15.0	1.9
=	-228.1	228.1	15.0	1.9
=	-227.5	227.5	15.0	1.9
=	-227.0	227.0	15.0	1.9
=	-226.5	226.5	15.0	1.9
=	-226.0	226.0	15.0	1.9
=	-225.4	225.4	15.0	1.9
=	-224.8	224.8	15.0	2.0
=	-224.2	224.2	15.0	2.0
=	-223.8	223.8	15.0	2.0
=	-223.2	223.2	15.0	2.0
=	-222.7	222.7	15.0	2.0
=	-222.2	222.2	15.0	2.0
=	-221.7	221.7	15.0	2.1
=	-221.2	221.2	15.0	2.1
=	-220.6	220.6	15.0	2.1
=	-220.1	220.1	15.0	2.1
=	-219.5	219.5	15.0	2.1
=	-218.9	218.9	15.0	2.2
=	-218.3	218.3	15.0	2.2
=	-217.8	217.8	15.0	2.2
=	-217.2	217.2	15.0	2.2
=	-216.8	216.8	15.0	2.2
=	-216.3	216.3	15.0	2.2
=	-215.9	215.9	15.0	2.3
=	-215.5	215.5	15.0	2.3
=	-215.0	215.0	15.0	2.3
=	-214.4	214.4	15.0	2.3
=	-214.0	214.0	15.0	2.3
=	-213.5	213.5	15.0	2.4
=	-213.0	213.0	15.0	2.4
=	-212.4	212.4	15.0	2.4
=	-211.9	211.9	15.0	2.4
=	-211.3	211.3	15.0	2.4
=	-210.7	210.7	15.0	2.5
=	-210.2	210.2	15.0	2.5
=	-209.6	209.6	15.0	2.5
=	-209.1	209.1	15.0	2.5
=	-208.7	208.7	15.0	2.6
=	-208.2	208.2	15.0	2.6
=	-207.8	207.8	15.0	2.6
=	-207.4	207.4	15.0	2.6
=	-206.9	206.9	15.0	2.7
=	-206.5	206.5	15.0	2.7
=	-206.0	206.0	15.0	2.7
=	-205.6	205.6	15.0	2.7
=	-205.1	205.1	15.0	2.8
=	-204.7	204.7	15.0	2.8
=	-204.4	204.4	15.0	2.8
=	-203.8	203.8	15.0	2.8
=	-203.3	203.3	15.0	2.9
=	-202.9	202.9	15.0	2.9
=	-202.4	202.4	15.0	3.0
=	-201.9	201.9	15.0	3.0
=	-201.5	201.5	15.0	3.0
=	-201.0	201.0	15.0	3.1
=	-200.4	200.4	15.0	3.1
=	-199.8	199.8	15.0	3.2
=	-199.3	199.3	15.0	3.2
=	-198.8	198.8	15.0	3.3
=	-198.3	198.3	15.0	3.3
=	-197.8	197.8	15.0	3.4
=	-197.2	197.2	15.0	3.4
=	-196.7	196.7	15.0	3.5
=	-196.1	196.1	15.0	3.5
=	-195.5	195.5	15.0	3.6
=	-195.0	195.0	15.0	3.7
=	-194.4	194.4	15.0	3.7
=	-193.9	193.9	15.0	3.7
=	-193.4	193.4	15.0	3.8
=	-192.8	192.8	15.0	3.9
=	-192.3	192.3	15.0	4.0
=	-191.8	191.8	15.0	4.0
=	-191.2	191.2	15.0	4.1
=	-190.6	190.6	15.0	4.2
=	-190.1	190.1	15.0	4.3
=	-189.6	189.6	15.0	4.4
=	-189.2	189.2	15.0	4.5
=	-188.8	188.8	15.0	4.6
=	-188.3	188.3	15.0	4.7
=	-187.8	187.8	15.0	5.0
=	-187.3	187.3	15.0	5.2
=	-186.8	186.8	15.0	5.5
=	-186.2	186.2	15.0	5.9
=	-185.6	185.6	15.0	6.5
=	-185.2	185.2	15.0	7.0
=	-184.7	184.7	15.0	7.6
=	-184.2	184.2	15.0	8.5
=	-183.7	183.7	15.0	9.6
=	-183.3	183.3	15.0	10.6
=	-182.9	182.9	15.0	11.9
=	-182.3	182.3	15.0	13.9
=	-181.8	181.8	15.0	16.3
=	-181.2	181.2	15.0	19.2
=	-180.7	180.7	15.0	22.1
=	-180.2	180.2	15.0	25.2
=	-179.7	179.7	15.0	28.1
=	-179.2	179.2	15.0	31.2
=	-178.9	178.9	15.0	33.6
=	-178.3	178.3	15.0	36.6
=	-177.7	177.7	15.0	39.4
=	-177.2	177.2	15.0	41.7
=	-176.6	176.6	15.0	43.4
=	-176.0	176.0	15.0	44.5
=	-175.5	175.5	15.0	45.1
=	-175.1	175.1	15.0	45.4
=	-174.6	174.6	15.0	45.8
=	-174.1	174.1	15.0	46.0
=	-173.6	173.6	15.0	46.2
=	-173.1	173.1	15.0	46.4
=	-172.6	172.6	15.0	46.6
=	-172.1	172.1	15.0	46.7
=	-171.7	171.7	15.0	46.9
=	-171.3	171.3	15.0	47.0
=	-170.9	170.9	15.0	47.1
=	-170.5	170.5	15.0	47.2
=	-170.0	170.0	15.0	47.4
=	-169.5	169.5	15.0	47.5
=	-169.0	169.0	15.0	47.7
=	-168.6	168.6	15.0	47.8
=	-168.1	168.1	15.0	47.9
=	-167.7	167.7	15.0	48.0
=	-167.3	167.3	15.0	48.1
=	-166.9	166.9	15.0	48.2
=	-166.4	166.4	15.0	48.3
=	-165.9	165.9	15.0	48.5
=	-165.4	165.4	15.0	48.6
=	-164.8	164.8	15.0	48.8
=	-164.4	164.4	15.0	48.9
=	-163.9	163.9	15.0	49.0
=	-163.4	163.4	15.0	49.1
=	-162.9	162.9	15.0	49.2
=	-162.5	162.5	15.0	49.4
=	-162.0	162.0	15.0	49.5
=	-161.6	161.6	15.0	49.6
=	-161.2	161.2	15.0	49.7
=	-160.8	160.8	15.0	49.8
=	-160.4	160.4	15.0	49.9
=	-159.8	159.8	15.0	50.1
=	-159.4	159.4	15.0	50.2
=	-158.8	158.8	15.0	50.3
=	-158.3	158.3	15.0	50.4
=	-157.8	157.8	15.0	50.6
=	-157.2	157.2	15.0	50.7
=	-156.6	156.6	15.0	50.9
=	-156.0	156.0	15.0	51.1
=	-155.5	155.5	15.0	51.2
=	-154.9	154.9	15.0	51.3
=	-154.3	154.3	15.0	51.5
=	-153.7	153.7	15.0	51.6
=	-153.2	153.2	15.0	51.7
=	-152.6	152.6	15.0	51.9
=	-152.0	152.0	15.0	52.0
=	-151.5	151.5	15.0	52.2
=	-151.0	151.0	15.0	52.3
=	-150.4	150.4	15.0	52.5
=	-149.8	149.8	15.0	52.6
=	-149.3	149.3	15.0	52.8
=	-148.8	148.8	15.0	52.9
=	-148.4	148.4	15.0	53.0
=	-147.8	147.8	15.0	53.2
=	-147.3	147.3	15.0	53.3
=	-146.8	146.8	15.0	53.4
=	-146.3	146.3	15.0	53.6
=	-145.8	145.8	15.0	53.7
=	-145.3	145.3	15.0	53.8
=	-144.8	144.8	15.0	53.9
=	-144.4	144.4	15.0	54.1
=	-143.9	143.9	15.0	54.2
=	-143.4	143.4	15.0	54.3
=	-142.8	142.8	15.0	54.4
=	-142.3	142.3	15.0	54.6
=	-141.8	141.8	15.0	54.7
=	-141.3	141.3	15.0	54.9
=	-140.6	140.6	15.0	55.0
=	-140.2	140.2	15.0	55.1
=	-139.6	139.6	15.0	55.3
=	-139.1	139.1	15.0	55.4
=	-138.5	138.5	15.0	55.6
=	-138.0	138.0	15.0	55.8
=	-137.6	137.6	15.0	55.9
=	-137.2	137.2	15.0	55.9
=	-136.8	136.8	15.0	56.0
=	-136.4	136.4	15.0	56.2
=	-136.0	136.0	15.0	56.3
=	-135.5	135.5	15.0	56.4
=	-135.0	135.0	15.0	56.5
=	-134.7	134.7	15.0	56.6
=	-134.3	134.3	15.0	56.7
=	-133.9	133.9	15.0	56.8
=	-133.4	133.4	15.0	57.0
=	-132.9	132.9	15.0	57.1
=	-132.5	132.5	15.0	57.2
=	-131.9	131.9	15.0	57.4
=	-131.4	131.4	15.0	57.5
=	-131.0	131.0	15.0	57.6
=	-130.5	130.5	15.0	57.8
=	-129.9	129.9	15.0	57.9
=	-129.3	129.3	15.0	58.1
=	-128.9	128.9	15.0	58.2
=	-128.3	128.3	15.0	58.4
=	-127.8	127.8	15.0	58.5
=	-127.2	127.2	15.0	58.7
=	-126.7	126.7	15.0	58.8
=	-126.2	126.2	15.0	59.0
=	-125.6	125.6	15.0	59.2
=	-125.0	125.0	15.0	59.3
=	-124.4	124.4	15.0	59.5
=	-123.9	123.9	15.0	59.7
=	-123.3	123.3	15.0	59.8
=	-122.7	122.7	15.0	59.9
=	-122.2	122.2	15.0	60.1
=	-121.6	121.6	15.0	60.3
=	-121.0	121.0	15.0	60.5
=	-120.4	120.4	15.0	60.6
=	-120.0	120.0	15.0	60.7
=	-119.7	119.7	15.0	60.8
=	-119.1	119.1	15.0	61.0
=	-118.5	118.5	15.0	61.2
=	-118.0	118.0	15.0	61.3
=	-117.5	117.5	15.0	61.5
=	-117.1	117.1	15.0	61.6
=	-116.6	116.6	15.0	61.8
=	-116.2	116.2	15.0	61.8
=	-115.8	115.8	15.0	62.0
=	-115.3	115.3	15.0	62.1
=	-114.9	114.9	15.0	62.3
=	-114.4	114.4	15.0	62.4
=	-114.0	114.0	15.0	62.5
=	-113.6	113.6	15.0	62.6
=	-113.1	113.1	15.0	62.8
=	-112.7	112.7	15.0	62.9
=	-112.2	112.2	15.0	63.0
=	-111.7	111.7	15.0	63.2
=	-111.1	111.1	15.0	63.4
=	-110.5	110.5	15.0	63.5
=	-110.0	110.0	15.0	63.7
=	-109.4	109.4	15.0	63.9
=	-108.8	108.8	15.0	64.1
=	-108.2	108.2	15.0	64.2
=	-107.6	107.6	15.0	64.4
=	-107.1	107.1	15.0	64.5
=	-106.6	106.6	15.0	64.7
=	-106.0	106.0	15.0	64.9
=	-105.5	105.5	15.0	65.1
=	-104.9	104.9	15.0	65.2
=	-104.5	104.5	15.0	65.4
=	-103.9	103.9	15.0	65.6
=	-103.3	103.3	15.0	65.8
=	-102.7	102.7	15.0	66.0
=	-102.1	102.1	15.0	66.1
=	-101.6	101.6	15.0	66.3
=	-101.1	101.1	15.0	66.4
=	-100.5	100.5	15.0	66.6
=	-100.0	100.0	15.0	66.8
=	-99.4	99.4	15.0	67.0
=	-98.8	98.8	15.0	67.2
=	-98.3	98.3	15.0	67.4
=	-97.8	97.8	15.0	67.5
=	-97.4	97.4	15.0	67.7
=	-96.9	96.9	15.0	67.8
=	-96.6	96.6	15.0	67.9
=	-96.2	96.2	15.0	68.0
=	-95.8	95.8	15.0	68.1
=	-95.4	95.4	15.0	68.3
=	-94.9	94.9	15.0	68.5
=	-94.4	94.4	15.0	68.6
=	-94.0	94.0	15.0	68.8
=	-93.6	93.6	15.0	68.9
=	-93.1	93.1	15.0	69.1
=	-92.6	92.6	15.0	69.2
=	-92.1	92.1	15.0	69.4
=	-91.7	91.7	15.0	69.5
=	-91.4	91.4	15.0	69.6
=	-90.9	90.9	15.0	69.9
=	-90.5	90.5	15.0	70.0
=	-90.0	90.0	15.0	70.1
=	-89.4	89.4	15.0	70.3
=	-88.8	88.8	15.0	70.5
=	-88.4	88.4	15.0	70.6
=	-87.9	87.9	15.0	70.8
=	-87.4	87.4	15.0	70.9
=	-86.8	86.8	15.0	71.2
=	-86.3	86.3	15.0	71.4
=	-85.7	85.7	15.0	71.6
=	-85.1	85.1	15.0	71.8
=	-84.5	84.5	15.0	72.0
=	-83.9	83.9	15.0	72.2
=	-83.4	83.4	15.0	72.4
=	-83.0	83.0	15.0	72.5
=	-82.5	82.5	15.0	72.7
=	-81.9	81.9	15.0	72.9
=	-81.4	81.4	15.0	73.1
=	-80.9	80.9	15.0	73.3
=	-80.4	80.4	15.0	73.5
=	-80.0	80.0	15.0	73.6
=	-79.6	79.6	15.0	73.7
=	-79.1	79.1	15.0	73.9
=	-78.6	78.6	15.0	74.1
=	-78.1	78.1	15.0	74.3
=	-77.8	77.8	15.0	74.4
=	-77.3	77.3	15.0	74.6
=	-76.8	76.8	15.0	74.7
=	-76.3	76.3	15.0	75.0
=	-75.8	75.8	15.0	75.1
=	-75.2	75.2	15.0	75.3
=	-74.7	74.7	15.0	75.5
=	-74.2	74.2	15.0	75.7
=	-73.6	73.6	15.0	75.9
=	-73.2	73.2	15.0	76.1
=	-72.8	72.8	15.0	76.2
=	-72.3	72.3	15.0	76.4
=	-71.8	71.8	15.0	76.6
=	-71.3	71.3	15.0	76.8
=	-70.7	70.7	15.0	77.0
=	-70.1	70.1	15.0	77.2
=	-69.6	69.6	15.0	77.4
=	-69.1	69.1	15.0	77.6
=	-68.6	68.6	15.0	77.8
=	-68.1	68.1	15.0	78.0
=	-67.6	67.6	15.0	78.1
=	-67.2	67.2	15.0	78.3
=	-66.7	66.7	15.0	78.5
=	-66.2	66.2	15.0	78.7
=	-65.7	65.7	15.0	78.9
=	-65.2	65.2	15.0	79.1
=	-64.8	64.8	15.0	79.2
=	-64.4	64.4	15.0	79.4
=	-64.1	64.1	15.0	79.5
=	-63.6	63.6	15.0	79.7
=	-63.0	63.0	15.0	79.9
=	-62.7	62.7	15.0	80.0
=	-62.2	62.2	15.0	80.2
=	-61.7	61.7	15.0	80.4
=	-61.2	61.2	15.0	80.7
=	-60.7	60.7	15.0	80.8
=	-60.1	60.1	15.0	81.1
=	-59.5	59.5	15.0	81.3
=	-59.0	59.0	15.0	81.5
=	-58.4	58.4	15.0	81.7
=	-57.8	57.8	15.0	82.0
=	-57.3	57.3	15.0	82.2
=	-56.9	56.9	15.0	82.3
=	-56.5	56.5	15.0	82.5
=	-56.1	56.1	15.0	82.7
=	-55.6	55.6	15.0	82.7
=	-55.3	55.3	15.0	82.9
=	-54.9	54.9	15.0	83.1
=	-54.4	54.4	15.0	83.3
=	-54.0	54.0	15.0	83.5
=	-53.5	53.5	15.0	83.7
=	-53.1	53.1	15.0	83.9
=	-52.7	52.7	15.0	84.0
=	-52.1	52.1	15.0	84.2
=	-51.6	51.6	15.0	84.4
=	-51.1	51.1	15.0	84.6
=	-50.5	50.5	15.0	84.9
=	-50.0	50.0	15.0	85.0
=	-49.5	49.5	15.0	85.3
=	-49.1	49.1	15.0	85.4
=	-48.6	48.6	15.0	85.6
=	-48.1	48.1	15.0	85.9
=	-47.7	47.7	15.0	86.0
=	-47.2	47.2	15.0	86.2
=	-46.7	46.7	15.0	86.4
=	-46.2	46.2	15.0	86.6
=	-45.6	45.6	15.0	86.9
=	-45.0	45.0	15.0	87.1
=	-44.5	44.5	15.0	87.4
=	-43.9	43.9	15.0	87.6
=	-43.4	43.4	15.0	87.8
=	-42.9	42.9	15.0	88.0
=	-42.3	42.3	15.0	88.2
=	-41.7	41.7	15.0	88.5
=	-41.1	41.1	15.0	88.7
=	-40.6	40.6	15.0	89.0
=	-40.0	40.0	15.0	89.2
=	-39.5	39.5	15.0	89.4
=	-39.0	39.0	15.0	89.6
=	-38.4	38.4	15.0	89.9
=	-37.8	37.8	15.0	90.1
=	-37.2	37.2	15.0	90.3
=	-36.7	36.7	15.0	90.5
=	-36.3	36.3	15.0	90.6
=	-35.8	35.8	15.0	90.9
=	-35.2	35.2	15.0	91.1
=	-34.7	34.7	15.0	91.3
=	-34.1	34.1	15.0	91.5
=	-33.5	33.5	15.0	91.8
=	-32.9	32.9	15.0	92.0
=	-32.4	32.4	15.0	92.3
=	-31.8	31.8	15.0	92.4
=	-31.2	31.2	15.0	92.6
=	-30.7	30.7	15.0	92.9
=	-30.2	30.2	15.0	93.0
=	-29.6	29.6	15.0	93.3
=	-29.1	29.1	15.0	93.5
=	-28.5	28.5	15.0	93.7
=	-27.9	27.9	15.0	93.9
=	-27.3	27.3	15.0	94.1
=	-26.8	26.8	15.0	94.3
=	-26.2	26.2	15.0	94.5
=	-25.6	25.6	15.0	94.7
=	-25.0	25.0	15.0	94.9
=	-24.4	24.4	15.0	95.2
=	-23.9	23.9	15.0	95.3
=	-23.5	23.5	15.0	95.5
=	-23.1	23.1	15.0	95.6
=	-22.6	22.6	15.0	95.8
=	-22.1	22.1	15.0	96.0
=	-21.6	21.6	15.0	96.1
=	-21.1	21.1	15.0	96.2
=	-20.6	20.6	15.0	96.4
=	-20.1	20.1	15.0	96.6
=	-19.7	19.7	15.0	96.7
=	-19.3	19.3	15.0	96.8
=	-18.7	18.7	15.0	97.0
=	-18.2	18.2	15.0	97.1
=	-17.6	17.6	15.0	97.3
=	-17.1	17.1	15.0	97.4
=	-16.6	16.6	15.0	97.5
=	-16.0	16.0	15.0	97.7
=	-15.5	15.5	15.0	97.9
=	-14.9	14.9	15.0	98.0
=	-14.3	14.3	15.0	98.2
=	-13.7	13.7	15.0	98.3
=	-13.1	13.1	15.0	98.5
=	-12.6	12.6	15.0	98.6
=	-12.0	12.0	15.0	98.7
=	-11.4	11.4	15.0	98.8
=	-10.9	10.9	15.0	99.0
=	-10.5	10.5	15.0	99.0
=	-10.0	10.0	15.0	99.1
=	-9.5	9.5	15.0	99.2
=	-9.1	9.1	15.0	99.3
=	-8.6	8.6	15.0	99.3
=	-8.1	8.1	15.0	99.4
=	-7.8	7.8	15.0	99.4
=	-7.4	7.4	15.0	99.5
=	-7.0	7.0	15.0	99.6
=	-6.5	6.5	15.0	99.6
=	-6.1	6.1	15.0	99.7
=	-5.7	5.7	15.0	99.7
=	-5.2	5.2	15.0	99.7
=	-4.8	4.8	15.0	99.8
=	-4.3	4.3	15.0	99.8
=	-3.9	3.9	15.0	99.8
=	-3.5	3.5	15.0	99.9
=	-3.1	3.1	15.0	99.9
=	-2.5	2.5	15.0	100.0
=	-2.0	2.0	15.0	100.1
=	-1.5	1.5	15.0	100.0
=	-1.0	1.0	15.0	100.0
=	0.1	-0.1	15.0	100.0
=	0.5	-0.5	15.0	100.0
=	1.1	-1.1	15.0	100.0
=	1.7	-1.7	15.0	100.1
=	2.1	-2.1	15.0	100.0
=	2.7	-2.7	15.0	99.9
=	3.2	-3.2	15.0	99.9
=	3.6	-3.6	15.0	99.9
=	4.0	-4.0	15.0	99.8
=	4.4	-4.4	15.0	99.8
=	4.9	-4.9	15.0	99.8
=	5.3	-5.3	15.0	99.7
=	5.8	-5.8	15.0	99.7
=	6.2	-6.2	15.0	99.6
=	6.6	-6.6	15.0	99.6
=	7.1	-7.1	15.0	99.6
=	7.5	-7.5	15.0	99.5
=	7.9	-7.9	15.0	99.4
=	8.2	-8.2	15.0	99.4
=	8.7	-8.7	15.0	99.3
=	9.2	-9.2	15.0	99.3
=	9.6	-9.6	15.0	99.1
=	10.1	-10.1	15.0	99.0
=	10.6	-10.6	15.0	99.0
=	11.0	-11.0	15.0	98.9
=	11.6	-11.6	15.0	98.8
=	12.1	-12.1	15.0	98.7
=	12.7	-12.7	15.0	98.6
=	13.3	-13.3	15.0	98.4
=	13.9	-13.9	15.0	98.3
=	14.4	-14.4	15.0	98.2
=	15.0	-15.0	15.0	98.0
=	15.6	-15.6	15.0	97.8
=	16.2	-16.2	15.0	97.7
=	16.7	-16.7	15.0	97.5
=	17.2	-17.2	15.0	97.4
=	17.8	-17.8	15.0	97.3
=	18.3	-18.3	15.0	97.1
=	18.9	-18.9	15.0	96.9
=	19.4	-19.4	15.0	96.8
=	19.8	-19.8	15.0	96.7
=	20.2	-20.2	15.0	96.5
=	20.8	-20.8	15.0	96.4
=	21.2	-21.2	15.0	96.2
=	21.8	-21.8	15.0	96.0
=	22.2	-22.2	15.0	95.9
=	22.7	-22.7	15.0	95.7
=	23.2	-23.2	15.0	95.6
=	23.5	-23.5	15.0	95.5
=	24.0	-24.0	15.0	95.3
=	24.6	-24.6	15.0	95.1
=	25.2	-25.2	15.0	94.8
=	25.8	-25.8	15.0	94.7
=	26.3	-26.3	15.0	94.4
=	26.9	-26.9	15.0	94.3
=	27.5	-27.5	15.0	94.1
=	28.1	-28.1	15.0	93.8
=	28.6	-28.6	15.0	93.7
=	29.2	-29.2	15.0	93.4
=	29.8	-29.8	15.0	93.3
=	30.3	-30.3	15.0	93.0
=	30.8	-30.8	15.0	92.8
=	31.4	-31.4	15.0	92.5
=	31.9	-31.9	15.0	92.4
=	32.5	-32.5	15.0	92.2
=	33.1	-33.1	15.0	92.0
=	33.7	-33.7	15.0	91.7
=	34.2	-34.2	15.0	91.5
=	34.8	-34.8	15.0	91.3
=	35.3	-35.3	15.0	91.0
=	35.9	-35.9	15.0	90.8
=	36.4	-36.4	15.0	90.6
=	36.8	-36.8	15.0	90.4
=	37.3	-37.3	15.0	90.2
=	37.9	-37.9	15.0	90.0
=	38.5	-38.5	15.0	89.8
=	39.1	-39.1	15.0	89.6
=	39.6	-39.6	15.0	89.3
=	40.1	-40.1	15.0	89.1
=	40.7	-40.7	15.0	88.9
=	41.3	-41.3	15.0	88.6
=	41.9	-41.9	15.0	88.4
=	42.4	-42.4	15.0	88.2
=	43.0	-43.0	15.0	87.9
=	43.6	-43.6	15.0	87.7
=	44.0	-44.0	15.0	87.5
=	44.6	-44.6	15.0	87.3
=	45.2	-45.2	15.0	87.1
=	45.8	-45.8	15.0	86.8
=	46.3	-46.3	15.0	86.6
=	46.9	-46.9	15.0	86.4
=	47.3	-47.3	15.0	86.2
=	47.8	-47.8	15.0	86.0
=	48.2	-48.2	15.0	85.8
=	48.8	-48.8	15.0	85.6
=	49.2	-49.2	15.0	85.4
=	49.7	-49.7	15.0	85.2
=	50.1	-50.1	15.0	85.0
=	50.7	-50.7	15.0	84.8
=	51.2	-51.2	15.0	84.6
=	51.7	-51.7	15.0	84.4
=	52.2	-52.2	15.0	84.1
=	52.8	-52.8	15.0	83.9
=	53.2	-53.2	15.0	83.8
=	53.7	-53.7	15.0	83.6
=	54.1	-54.1	15.0	83.4
=	54.5	-54.5	15.0	83.2
=	55.0	-55.0	15.0	83.1
=	55.4	-55.4	15.0	82.9
=	55.7	-55.7	15.0	82.7
=	56.2	-56.2	15.0	82.6
=	56.6	-56.6	15.0	82.4
=	57.0	-57.0	15.0	82.3
=	57.5	-57.5	15.0	82.1
=	57.9	-57.9	15.0	81.9
=	58.5	-58.5	15.0	81.7
=	59.1	-59.1	15.0	81.4
=	59.7	-59.7	15.0	81.2
=	60.2	-60.2	15.0	81.0
=	60.8	-60.8	15.0	80.8
=	61.3	-61.3	15.0	80.6
=	61.8	-61.8	15.0	80.4
=	62.4	-62.4	15.0	80.2
=	62.8	-62.8	15.0	80.0
=	63.1	-63.1	15.0	79.9
=	63.7	-63.7	15.0	79.6
=	64.2	-64.2	15.0	79.5
=	64.5	-64.5	15.0	79.4
=	64.9	-64.9	15.0	79.2
=	65.3	-65.3	15.0	79.1
=	65.8	-65.8	15.0	78.8
=	66.4	-66.4	15.0	78.6
=	66.8	-66.8	15.0	78.4
=	67.3	-67.3	15.0	78.2
=	67.7	-67.7	15.0	78.1
=	68.2	-68.2	15.0	77.9
=	68.7	-68.7	15.0	77.7
=	69.2	-69.2	15.0	77.6
=	69.7	-69.7	15.0	77.4
=	70.3	-70.3	15.0	77.2
=	70.9	-70.9	15.0	76.9
=	71.4	-71.4	15.0	76.8
=	71.9	-71.9	15.0	76.6
=	72.5	-72.5	15.0	76.3
=	72.9	-72.9	15.0	76.2
=	73.3	-73.3	15.0	76.0
=	73.8	-73.8	15.0	75.9
=	74.3	-74.3	15.0	75.6
=	74.8	-74.8	15.0	75.5
=	75.3	-75.3	15.0	75.3
=	75.9	-75.9	15.0	75.1
=	76.4	-76.4	15.0	74.9
=	76.9	-76.9	15.0	74.7
=	77.4	-77.4	15.0	74.5
=	77.9	-77.9	15.0	74.3
=	78.2	-78.2	15.0	74.2
=	78.7	-78.7	15.0	74.0
=	79.2	-79.2	15.0	73.9
=	79.7	-79.7	15.0	73.7
=	80.1	-80.1	15.0	73.6
=	80.5	-80.5	15.0	73.5
=	81.0	-81.0	15.0	73.2
=	81.5	-81.5	15.0	73.1
=	82.1	-82.1	15.0	72.8
=	82.6	-82.6	15.0	72.6
=	83.1	-83.1	15.0	72.5
=	83.5	-83.5	15.0	72.4
=	84.1	-84.1	15.0	72.1
=	84.7	-84.7	15.0	71.9
=	85.2	-85.2	15.0	71.8
=	85.8	-85.8	15.0	71.6
=	86.4	-86.4	15.0	71.3
=	87.0	-87.0	15.0	71.1
=	87.5	-87.5	15.0	70.9
=	88.1	-88.1	15.0	70.7
=	88.5	-88.5	15.0	70.6
=	89.0	-89.0	15.0	70.4
=	89.6	-89.6	15.0	70.2
=	90.1	-90.1	15.0	70.1
=	90.6	-90.6	15.0	69.9
=	91.0	-91.0	15.0	69.8
=	91.5	-91.5	15.0	69.6
=	91.8	-91.8	15.0	69.5
=	92.2	-92.2	15.0	69.4
=	92.7	-92.7	15.0	69.2
=	93.3	-93.3	15.0	69.0
=	93.7	-93.7	15.0	68.9
=	94.1	-94.1	15.0	68.7
=	94.5	-94.5	15.0	68.6
=	95.1	-95.1	15.0	68.4
=	95.5	-95.5	15.0	68.3
=	95.9	-95.9	15.0	68.1
=	96.3	-96.3	15.0	68.0
=	96.6	-96.6	15.0	67.9
=	97.0	-97.0	15.0	67.8
=	97.5	-97.5	15.0	67.6
=	97.9	-97.9	15.0	67.5
=	98.4	-98.4	15.0	67.3
=	99.0	-99.0	15.0	67.1
=	99.6	-99.6	15.0	67.0
=	100.1	-100.1	15.0	66.7
=	100.7	-100.7	15.0	66.6
=	101.2	-101.2	15.0	66.4
=	101.7	-101.7	15.0	66.2
=	102.3	-102.3	15.0	66.1
=	102.9	-102.9	15.0	65.9
=	103.4	-103.4	15.0	65.7
=	104.0	-104.0	15.0	65.5
=	104.6	-104.6	15.0	65.3
=	105.0	-105.0	15.0	65.2
=	105.6	-105.6	15.0	65.0
=	106.2	-106.2	15.0	64.9
=	106.8	-106.8	15.0	64.7
=	107.2	-107.2	15.0	64.5
=	107.8	-107.8	15.0	64.4
=	108.4	-108.4	15.0	64.2
=	108.9	-108.9	15.0	64.0
=	109.5	-109.5	15.0	63.9
=	110.1	-110.1	15.0	63.6
=	110.7	-110.7	15.0	63.5
=	111.2	-111.2	15.0	63.3
=	111.8	-111.8	15.0	63.1
=	112.4	-112.4	15.0	63.0
=	112.8	-112.8	15.0	62.9
=	113.2	-113.2	15.0	62.8
=	113.7	-113.7	15.0	62.6
=	114.1	-114.1	15.0	62.4
=	114.6	-114.6	15.0	62.4
=	115.0	-115.0	15.0	62.2
=	115.4	-115.4	15.0	62.1
=	115.9	-115.9	15.0	61.9
=	116.3	-116.3	15.0	61.8
=	116.7	-116.7	15.0	61.7
=	117.2	-117.2	15.0	61.6
=	117.7	-117.7	15.0	61.4
=	118.1	-118.1	15.0	61.3
=	118.7	-118.7	15.0	61.1
=	119.3	-119.3	15.0	60.9
=	119.8	-119.8	15.0	60.8
=	120.1	-120.1	15.0	60.7
=	120.6	-120.6	15.0	60.6
=	121.2	-121.2	15.0	60.4
=	121.7	-121.7	15.0	60.3
=	122.3	-122.3	15.0	60.1
=	122.9	-122.9	15.0	59.9
=	123.4	-123.4	15.0	59.8
=	124.0	-124.0	15.0	59.6
=	124.6	-124.6	15.0	59.4
=	125.2	-125.2	15.0	59.3
=	125.7	-125.7	15.0	59.1
=	126.3	-126.3	15.0	59.0
=	126.8	-126.8	15.0	58.8
=	127.3	-127.3	15.0	58.7
=	127.9	-127.9	15.0	58.5
=	128.5	-128.5	15.0	58.4
=	129.0	-129.0	15.0	58.2
=	129.5	-129.5	15.0	58.1
=	130.1	-130.1	15.0	57.9
=	130.6	-130.6	15.0	57.7
=	131.1	-131.1	15.0	57.6
=	131.5	-131.5	15.0	57.5
=	132.1	-132.1	15.0	57.4
=	132.6	-132.6	15.0	57.2
=	133.1	-133.1	15.0	57.1
=	133.5	-133.5	15.0	56.9
=	134.0	-134.0	15.0	56.8
=	134.4	-134.4	15.0	56.7
=	134.8	-134.8	15.0	56.6
=	135.1	-135.1	15.0	56.5
=	135.6	-135.6	15.0	56.4
=	136.1	-136.1	15.0	56.3
=	136.5	-136.5	15.0	56.1
=	136.9	-136.9	15.0	56.0
=	137.3	-137.3	15.0	55.9
=	137.7	-137.7	15.0	55.9
=	138.2	-138.2	15.0	55.7
=	138.6	-138.6	15.0	55.6
=	139.2	-139.2	15.0	55.4
=	139.8	-139.8	15.0	55.3
=	140.3	-140.3	15.0	55.1
=	140.8	-140.8	15.0	55.0
=	141.4	-141.4	15.0	54.8
=	141.9	-141.9	15.0	54.7
=	142.4	-142.4	15.0	54.5
=	143.0	-143.0	15.0	54.4
=	143.5	-143.5	15.0	54.3
=	144.0	-144.0	15.0	54.2
=	144.5	-144.5	15.0	54.0
=	145.0	-145.0	15.0	53.9
=	145.4	-145.4	15.0	53.8
=	145.9	-145.9	15.0	53.7
=	146.4	-146.4	15.0	53.5
=	147.0	-147.0	15.0	53.4
=	147.4	-147.4	15.0	53.2
=	147.9	-147.9	15.0	53.1
=	148.5	-148.5	15.0	52.9
=	148.9	-148.9	15.0	52.8
=	149.4	-149.4	15.0	52.7
=	150.0	-150.0	15.0	52.6
=	150.6	-150.6	15.0	52.4
=	151.1	-151.1	15.0	52.2
=	151.6	-151.6	15.0	52.1
=	152.2	-152.2	15.0	52.0
=	152.7	-152.7	15.0	51.9
=	153.3	-153.3	15.0	51.7
=	153.9	-153.9	15.0	51.6
=	154.5	-154.5	15.0	51.4
=	155.0	-155.0	15.0	51.3
=	155.6	-155.6	15.0	51.1
=	156.2	-156.2	15.0	51.0
=	156.8	-156.8	15.0	50.8
=	157.3	-157.3	15.0	50.7
=	157.9	-157.9	15.0	50.5
=	158.4	-158.4	15.0	50.4
=	158.9	-158.9	15.0	50.3
=	159.5	-159.5	15.0	50.1
=	160.0	-160.0	15.0	50.0
=	160.5	-160.5	15.0	49.9
=	160.9	-160.9	15.0	49.7
=	161.3	-161.3	15.0	49.6
=	161.7	-161.7	15.0	49.6
=	162.1	-162.1	15.0	49.5
=	162.6	-162.6	15.0	49.3
=	163.1	-163.1	15.0	49.2
=	163.5	-163.5	15.0	49.1
=	164.1	-164.1	15.0	49.0
=	164.5	-164.5	15.0	48.9
=	165.0	-165.0	15.0	48.7
=	165.5	-165.5	15.0	48.6
=	166.0	-166.0	15.0	48.5
=	166.5	-166.5	15.0	48.3
=	167.0	-167.0	15.0	48.2
=	167.4	-167.4	15.0	48.1
=	167.8	-167.8	15.0	48.0
=	168.3	-168.3	15.0	47.8
=	168.7	-168.7	15.0	47.7
=	169.1	-169.1	15.0	47.6
=	169.6	-169.6	15.0	47.5
=	170.1	-170.1	15.0	47.3
=	170.6	-170.6	15.0	47.2
=	171.0	-171.0	15.0	47.1
=	171.4	-171.4	15.0	47.0
=	171.8	-171.8	15.0	46.8
=	172.2	-172.2	15.0	46.7
=	172.7	-172.7	15.0	46.5
=	173.3	-173.3	15.0	46.3
=	173.7	-173.7	15.0	46.1
=	174.2	-174.2	15.0	46.0
=	174.7	-174.7	15.0	45.7
=	175.3	-175.3	15.0	45.4
=	175.6	-175.6	15.0	45.0
=	176.1	-176.1	15.0	44.3
=	176.7	-176.7	15.0	43.0
=	177.3	-177.3	15.0	41.2
=	177.9	-177.9	15.0	38.7
=	178.5	-178.5	15.0	35.8
=	179.0	-179.0	15.0	32.9
=	179.3	-179.3	15.0	30.5
=	179.9	-179.9	15.0	27.3
=	180.3	-180.3	15.0	24.4
=	180.8	-180.8	15.0	21.5
=	181.3	-181.3	15.0	18.4
=	181.9	-181.9	15.0	15.6
=	182.5	-182.5	15.0	13.4
=	183.0	-183.0	15.0	11.5
=	183.4	-183.4	15.0	10.3
=	183.8	-183.8	15.0	9.4
=	184.3	-184.3	15.0	8.3
=	184.8	-184.8	15.0	7.4
=	185.3	-185.3	15.0	6.8
=	185.8	-185.8	15.0	6.3
=	186.3	-186.3	15.0	5.8
=	186.9	-186.9	15.0	5.4
=	187.4	-187.4	15.0	5.1
=	187.9	-187.9	15.0	4.9
=	188.5	-188.5	15.0	4.7
=	188.9	-188.9	15.0	4.6
=	189.3	-189.3	15.0	4.5
=	189.7	-189.7	15.0	4.4
=	190.2	-190.2	15.0	4.3
=	190.8	-190.8	15.0	4.2
=	191.4	-191.4	15.0	4.1
=	191.9	-191.9	15.0	4.0
=	192.5	-192.5	15.0	3.9
=	192.9	-192.9	15.0	3.9
=	193.5	-193.5	15.0	3.8
=	194.1	-194.1	15.0	3.7
=	194.5	-194.5	15.0	3.7
=	195.1	-195.1	15.0	3.6
=	195.7	-195.7	15.0	3.6
=	196.3	-196.3	15.0	3.5
=	196.8	-196.8	15.0	3.5
=	197.4	-197.4	15.0	3.4
=	197.9	-197.9	15.0	3.3
=	198.4	-198.4	15.0	3.3
=	198.9	-198.9	15.0	3.3
=	199.4	-199.4	15.0	3.2
=	200.0	-200.0	15.0	3.2
=	200.5	-200.5	15.0	3.1
=	201.1	-201.1	15.0	3.1
=	201.6	-201.6	15.0	3.0
=	202.0	-202.0	15.0	3.0
=	202.5	-202.5	15.0	3.0
=	203.0	-203.0	15.0	2.9
=	203.5	-203.5	15.0	2.9
=	204.0	-204.0	15.0	2.8
=	204.5	-204.5	15.0	2.8
=	204.8	-204.8	15.0	2.8
=	205.3	-205.3	15.0	2.8
=	205.7	-205.7	15.0	2.7
=	206.1	-206.1	15.0	2.7
=	206.6	-206.6	15.0	2.7
=	207.0	-207.0	15.0	2.7
=	207.5	-207.5	15.0	2.6
=	207.9	-207.9	15.0	2.6
=	208.3	-208.3	15.0	2.6
=	208.8	-208.8	15.0	2.6
=	209.2	-209.2	15.0	2.5
=	209.7	-209.7	15.0	2.5
=	210.3	-210.3	15.0	2.5
=	210.9	-210.9	15.0	2.5
=	211.4	-211.4	15.0	2.4
=	212.0	-212.0	15.0	2.4
=	212.6	-212.6	15.0	2.4
=	213.2	-213.2	15.0	2.4
=	213.7	-213.7	15.0	2.4
=	214.1	-214.1	15.0	2.3
=	214.6	-214.6	15.0	2.3
=	215.1	-215.1	15.0	2.3
=	215.6	-215.6	15.0	2.3
=	216.0	-216.0	15.0	2.3
=	216.5	-216.5	15.0	2.2
=	216.8	-216.8	15.0	2.2
=	217.3	-217.3	15.0	2.2
=	217.9	-217.9	15.0	2.2
=	218.5	-218.5	15.0	2.2
=	219.1	-219.1	15.0	2.1
=	219.6	-219.6	15.0	2.1
=	220.2	-220.2	15.0	2.1
=	220.8	-220.8	15.0	2.1
=	221.3	-221.3	15.0	2.1
=	221.9	-221.9	15.0	2.1
=	222.3	-222.3	15.0	2.0
=	222.8	-222.8	15.0	2.0
=	223.4	-223.4	15.0	2.0
=	223.9	-223.9	15.0	2.0
=	224.4	-224.4	15.0	2.0
=	224.9	-224.9	15.0	2.0
=	225.5	-225.5	15.0	1.9
=	226.1	-226.1	15.0	1.9
=	226.6	-226.6	15.0	1.9
=	227.1	-227.1	15.0	1.9
=	227.7	-227.7	15.0	1.9
=	228.2	-228.2	15.0	1.9
=	228.8	-228.8	15.0	1.9
=	229.4	-229.4	15.0	1.8
=	230.0	-230.0	15.0	1.8
=	230.5	-230.5	15.0	1.8
=	231.1	-231.1	15.0	1.8
=	231.7	-231.7	15.0	1.8
=	232.2	-232.2	15.0	1.8
=	232.8	-232.8	15.0	1.8
=	233.3	-233.3	15.0	1.7
=	233.8	-233.8	15.0	1.7
=	234.4	-234.4	15.0	1.7
=	235.0	-235.0	15.0	1.7
=	235.5	-235.5	15.0	1.7
=	236.1	-236.1	15.0	1.7
=	236.6	-236.6	15.0	1.7
=	237.0	-237.0	15.0	1.7
=	237.4	-237.4	15.0	1.7
=	238.0	-238.0	15.0	1.6
=	238.6	-238.6	15.0	1.6
=	239.1	-239.1	15.0	1.6
=	239.6	-239.6	15.0	1.6
=	240.1	-240.1	15.0	1.6
=	240.7	-240.7	15.0	1.6
=	241.1	-241.1	15.0	1.6
=	241.5	-241.5	15.0	1.6
=	242.0	-242.0	15.0	1.6
=	242.6	-242.6	15.0	1.6
=	243.1	-243.1	15.0	1.5
=	243.7	-243.7	15.0	1.5
=	244.1	-244.1	15.0	1.5
=	244.6	-244.6	15.0	1.5
=	245.1	-245.1	15.0	1.5
=	245.6	-245.6	15.0	1.5
=	246.2	-246.2	15.0	1.5
=	246.7	-246.7	15.0	1.5
=	247.3	-247.3	15.0	1.5
=	247.9	-247.9	15.0	1.5
=	248.3	-248.3	15.0	1.5
=	248.7	-248.7	15.0	1.5
=	249.3	-249.3	15.0	1.4
=	249.9	-249.9	15.0	1.4
=	250.5	-250.5	15.0	1.4
=	251.0	-251.0	15.0	1.4
=	251.6	-251.6	15.0	1.4
=	252.1	-252.1	15.0	1.4
=	252.5	-252.5	15.0	1.4
:EOM # End of Measurement
#
# RFA300 ASCII Measurement Dump ( BDS format )
#
# Measurement number 	2
#
%VNR 1.0
%MOD 	RAT
%TYP 	SCN
%SCN 	DIA
%FLD 	ION
%DAT 	09-09-2011
%TIM 	12:00:00
%FSZ 	400	400
%BMT 	PHO	   6.0
%SSD 	1000
%BUP 	0
%BRD 	1000
%FSH 	1
%ASC 	0
%WEG 	0
%GPO 	0
%CPO 	0
%MEA 	2
%PRD 	50,0
%PTS 	836
%STS 	    -259.7	  259.7	   50.0 # Start Scan values in mm ( X , Y , Z )
%EDS 	    259.4	   -259.4	   50.0 # End Scan values in mm ( X , Y , Z )
#
#	  X      Y      Z     Dose
#
=	-259.7	259.7	50.0	1.7
=	-259.2	259.2	50.0	1.7
=	-258.6	258.6	50.0	1.7
=	-257.9	257.9	50.0	1.7
=	-257.2	257.2	50.0	1.7
=	-256.5	256.5	50.0	1.7
=	-255.7	255.7	50.0	1.7
=	-255.0	255.0	50.0	1.8
=	-254.4	254.4	50.0	1.8
=	-253.8	253.8	50.0	1.8
=	-253.2	253.2	50.0	1.8
=	-252.5	252.5	50.0	1.8
=	-251.7	251.7	50.0	1.8
=	-251.1	251.1	50.0	1.8
=	-250.4	250.4	50.0	1.9
=	-249.8	249.8	50.0	1.9
=	-249.4	249.4	50.0	1.9
=	-248.8	248.8	50.0	1.9
=	-248.1	248.1	50.0	1.9
=	-247.5	247.5	50.0	1.9
=	-246.9	246.9	50.0	1.9
=	-246.4	246.4	50.0	2.0
=	-245.9	245.9	50.0	2.0
=	-245.4	245.4	50.0	2.0
=	-244.9	244.9	50.0	2.0
=	-244.4	244.4	50.0	2.0
=	-243.7	243.7	50.0	2.0
=	-243.0	243.0	50.0	2.1
=	-242.2	242.2	50.0	2.1
=	-241.5	241.5	50.0	2.1
=	-241.0	241.0	50.0	2.1
=	-240.4	240.4	50.0	2.1
=	-239.7	239.7	50.0	2.1
=	-239.1	239.1	50.0	2.2
=	-238.4	238.4	50.0	2.2
=	-237.6	237.6	50.0	2.2
=	-236.9	236.9	50.0	2.2
=	-236.3	236.3	50.0	2.3
=	-235.7	235.7	50.0	2.3
=	-235.0	235.0	50.0	2.3
=	-234.4	234.4	50.0	2.3
=	-233.8	233.8	50.0	2.3
=	-233.1	233.1	50.0	2.4
=	-232.3	232.3	50.0	2.4
=	-231.6	231.6	50.0	2.4
=	-231.0	231.0	50.0	2.4
=	-230.3	230.3	50.0	2.5
=	-229.6	229.6	50.0	2.5
=	-229.0	229.0	50.0	2.5
=	-228.3	228.3	50.0	2.6
=	-227.8	227.8	50.0	2.6
=	-227.2	227.2	50.0	2.6
=	-226.4	226.4	50.0	2.6
=	-225.7	225.7	50.0	2.7
=	-225.0	225.0	50.0	2.7
=	-224.3	224.3	50.0	2.7
=	-223.7	223.7	50.0	2.8
=	-223.0	223.0	50.0	2.8
=	-222.3	222.3	50.0	2.8
=	-221.6	221.6	50.0	2.9
=	-220.9	220.9	50.0	2.9
=	-220.3	220.3	50.0	2.9
=	-219.6	219.6	50.0	3.0
=	-219.0	219.0	50.0	3.0
=	-218.5	218.5	50.0	3.0
=	-218.0	218.0	50.0	3.1
=	-217.4	217.4	50.0	3.1
=	-216.7	216.7	50.0	3.2
=	-216.1	216.1	50.0	3.2
=	-215.4	215.4	50.0	3.3
=	-214.7	214.7	50.0	3.3
=	-213.9	213.9	50.0	3.3
=	-213.2	213.2	50.0	3.4
=	-212.5	212.5	50.0	3.5
=	-211.8	211.8	50.0	3.5
=	-211.3	211.3	50.0	3.6
=	-210.6	210.6	50.0	3.6
=	-210.0	210.0	50.0	3.7
=	-209.4	209.4	50.0	3.7
=	-209.0	209.0	50.0	3.8
=	-208.5	208.5	50.0	3.8
=	-207.9	207.9	50.0	3.9
=	-207.2	207.2	50.0	4.0
=	-206.5	206.5	50.0	4.0
=	-206.0	206.0	50.0	4.1
=	-205.5	205.5	50.0	4.2
=	-204.9	204.9	50.0	4.3
=	-204.4	204.4	50.0	4.3
=	-203.9	203.9	50.0	4.4
=	-203.4	203.4	50.0	4.5
=	-202.9	202.9	50.0	4.5
=	-202.3	202.3	50.0	4.6
=	-201.8	201.8	50.0	4.7
=	-201.2	201.2	50.0	4.8
=	-200.7	200.7	50.0	4.9
=	-200.2	200.2	50.0	4.9
=	-199.7	199.7	50.0	5.0
=	-199.2	199.2	50.0	5.1
=	-198.5	198.5	50.0	5.2
=	-198.0	198.0	50.0	5.3
=	-197.6	197.6	50.0	5.4
=	-196.9	196.9	50.0	5.5
=	-196.3	196.3	50.0	5.7
=	-195.7	195.7	50.0	5.9
=	-194.9	194.9	50.0	6.1
=	-194.2	194.2	50.0	6.4
=	-193.5	193.5	50.0	6.8
=	-192.8	192.8	50.0	7.2
=	-192.2	192.2	50.0	7.7
=	-191.5	191.5	50.0	8.5
=	-190.8	190.8	50.0	9.5
=	-190.1	190.1	50.0	10.8
=	-189.3	189.3	50.0	12.5
=	-188.6	188.6	50.0	14.7
=	-187.9	187.9	50.0	17.3
=	-187.2	187.2	50.0	20.7
=	-186.5	186.5	50.0	24.3
=	-185.8	185.8	50.0	28.4
=	-185.1	185.1	50.0	32.3
=	-184.4	184.4	50.0	35.8
=	-183.6	183.6	50.0	38.8
=	-182.9	182.9	50.0	41.0
=	-182.3	182.3	50.0	42.2
=	-181.6	181.6	50.0	43.1
=	-181.0	181.0	50.0	43.7
=	-180.5	180.5	50.0	44.0
=	-180.0	180.0	50.0	44.3
=	-179.5	179.5	50.0	44.6
=	-178.8	178.8	50.0	44.9
=	-178.1	178.1	50.0	45.2
=	-177.5	177.5	50.0	45.4
=	-176.9	176.9	50.0	45.6
=	-176.2	176.2	50.0	45.9
=	-175.5	175.5	50.0	46.2
=	-174.8	174.8	50.0	46.4
=	-174.2	174.2	50.0	46.6
=	-173.5	173.5	50.0	46.8
=	-172.7	172.7	50.0	47.0
=	-172.2	172.2	50.0	47.2
=	-171.6	171.6	50.0	47.4
=	-171.1	171.1	50.0	47.5
=	-170.7	170.7	50.0	47.7
=	-170.0	170.0	50.0	47.9
=	-169.4	169.4	50.0	48.0
=	-168.7	168.7	50.0	48.3
=	-168.0	168.0	50.0	48.5
=	-167.3	167.3	50.0	48.7
=	-166.8	166.8	50.0	48.8
=	-166.1	166.1	50.0	49.0
=	-165.4	165.4	50.0	49.2
=	-164.7	164.7	50.0	49.4
=	-164.1	164.1	50.0	49.6
=	-163.4	163.4	50.0	49.8
=	-162.8	162.8	50.0	49.9
=	-162.1	162.1	50.0	50.1
=	-161.5	161.5	50.0	50.3
=	-161.0	161.0	50.0	50.5
=	-160.4	160.4	50.0	50.6
=	-159.9	159.9	50.0	50.8
=	-159.2	159.2	50.0	50.9
=	-158.7	158.7	50.0	51.1
=	-158.1	158.1	50.0	51.3
=	-157.5	157.5	50.0	51.4
=	-157.1	157.1	50.0	51.6
=	-156.4	156.4	50.0	51.8
=	-155.7	155.7	50.0	51.9
=	-155.3	155.3	50.0	52.0
=	-154.6	154.6	50.0	52.2
=	-154.0	154.0	50.0	52.4
=	-153.5	153.5	50.0	52.6
=	-152.9	152.9	50.0	52.7
=	-152.2	152.2	50.0	52.9
=	-151.5	151.5	50.0	53.1
=	-150.7	150.7	50.0	53.3
=	-150.0	150.0	50.0	53.4
=	-149.3	149.3	50.0	53.6
=	-148.6	148.6	50.0	53.8
=	-148.0	148.0	50.0	54.0
=	-147.4	147.4	50.0	54.1
=	-146.8	146.8	50.0	54.3
=	-146.2	146.2	50.0	54.5
=	-145.7	145.7	50.0	54.6
=	-145.0	145.0	50.0	54.8
=	-144.3	144.3	50.0	55.0
=	-143.6	143.6	50.0	55.2
=	-142.8	142.8	50.0	55.4
=	-142.1	142.1	50.0	55.6
=	-141.4	141.4	50.0	55.8
=	-140.7	140.7	50.0	56.0
=	-140.0	140.0	50.0	56.3
=	-139.4	139.4	50.0	56.4
=	-138.6	138.6	50.0	56.6
=	-137.9	137.9	50.0	56.8
=	-137.2	137.2	50.0	57.0
=	-136.6	136.6	50.0	57.2
=	-136.1	136.1	50.0	57.3
=	-135.6	135.6	50.0	57.4
=	-135.1	135.1	50.0	57.6
=	-134.5	134.5	50.0	57.8
=	-133.9	133.9	50.0	57.9
=	-133.4	133.4	50.0	58.1
=	-132.8	132.8	50.0	58.2
=	-132.3	132.3	50.0	58.4
=	-131.8	131.8	50.0	58.5
=	-131.2	131.2	50.0	58.7
=	-130.5	130.5	50.0	58.9
=	-129.8	129.8	50.0	59.1
=	-129.1	129.1	50.0	59.3
=	-128.6	128.6	50.0	59.4
